[Measurement conditions]
Sample identification,XRD_Centroid16Mar22_Act21Mar22_B1_0593M_NaOH_LS0153_1
Comment - 1,"Configuration=Stage for Flat Samples/Holders, Owner=User-1, Creation date=7/1/2020 9:53:24 AM"
Comment - 2,"Goniometer=Theta/Theta; Minimum step size 2Theta:0.0001; Minimum step size Omega:0.0001"
Comment - 3,"Sample stage=Stage for flat samples/holders"
Comment - 4,"Diffractometer system=EMPYREAN"
Comment - 5,"Measurement program=C:\Users\ibo5034\OneDrive - The Pennsylvania State University\NEUP\Zerobackground scan.xrdmp, Identifier={98A3B11C-88F9-4AA6-982C-73314A311EF5}"
Anode material,Cu
K-Alpha1 wavelength,1.5405980
K-Alpha2 wavelength,1.5444260
Ratio K-Alpha2/K-Alpha1,0.500
Divergence slit,Fixed,0.25
Monochromator used,NO
Generator voltage, 45
Tube current, 40
File date and time,24/Mar/2022 18:01
Unit cell,
h k l, 0 0 0
Scan axis,Gonio
Scan range,4.994599997,64.999991833
Scan step size,0.0262606
No. of points, 2285
Scan type,CONTINUOUS
Time per step,96.390
[Scan points]
Angle, TimePerStep, Intensity, ESD
5.007730280, 96.390, 4639.0, 68.1102
5.033990845, 96.390, 4703.0, 68.5784
5.060251411, 96.390, 4514.0, 67.1863
5.086511976, 96.390, 4412.0, 66.4229
5.112772541, 96.390, 4610.0, 67.8970
5.139033107, 96.390, 4549.0, 67.4463
5.165293672, 96.390, 4542.0, 67.3944
5.191554237, 96.390, 4379.0, 66.1740
5.217814803, 96.390, 4577.0, 67.6535
5.244075368, 96.390, 4410.0, 66.4078
5.270335934, 96.390, 4379.0, 66.1740
5.296596499, 96.390, 4389.0, 66.2495
5.322857064, 96.390, 4457.0, 66.7608
5.349117630, 96.390, 4221.0, 64.9692
5.375378195, 96.390, 4458.0, 66.7683
5.401638760, 96.390, 4319.0, 65.7191
5.427899326, 96.390, 4231.0, 65.0461
5.454159891, 96.390, 4403.0, 66.3551
5.480420456, 96.390, 4315.0, 65.6887
5.506681022, 96.390, 4403.0, 66.3551
5.532941587, 96.390, 4226.0, 65.0077
5.559202152, 96.390, 4245.0, 65.1537
5.585462718, 96.390, 4311.0, 65.6582
5.611723283, 96.390, 4182.0, 64.6684
5.637983849, 96.390, 4222.0, 64.9769
5.664244414, 96.390, 4270.0, 65.3452
5.690504979, 96.390, 4250.0, 65.1920
5.716765545, 96.390, 4231.0, 65.0461
5.743026110, 96.390, 4177.0, 64.6297
5.769286675, 96.390, 4279.0, 65.4141
5.795547241, 96.390, 4155.0, 64.4593
5.821807806, 96.390, 4181.0, 64.6607
5.848068371, 96.390, 4225.0, 65.0000
5.874328937, 96.390, 4315.0, 65.6887
5.900589502, 96.390, 4082.0, 63.8905
5.926850067, 96.390, 4093.0, 63.9766
5.953110633, 96.390, 4250.0, 65.1920
5.979371198, 96.390, 4332.0, 65.8179
6.005631763, 96.390, 4113.0, 64.1327
6.031892329, 96.390, 4120.0, 64.1872
6.058152894, 96.390, 4126.0, 64.2339
6.084413460, 96.390, 4180.0, 64.6529
6.110674025, 96.390, 4126.0, 64.2339
6.136934590, 96.390, 4222.0, 64.9769
6.163195156, 96.390, 4105.0, 64.0703
6.189455721, 96.390, 4153.0, 64.4438
6.215716286, 96.390, 4154.0, 64.4515
6.241976852, 96.390, 4184.0, 64.6838
6.268237417, 96.390, 4137.0, 64.3195
6.294497982, 96.390, 4126.0, 64.2339
6.320758548, 96.390, 4146.0, 64.3894
6.347019113, 96.390, 4097.0, 64.0078
6.373279678, 96.390, 4075.0, 63.8357
6.399540244, 96.390, 3975.0, 63.0476
6.425800809, 96.390, 4105.0, 64.0703
6.452061375, 96.390, 4165.0, 64.5368
6.478321940, 96.390, 4056.0, 63.6867
6.504582505, 96.390, 3911.0, 62.5380
6.530843071, 96.390, 4043.0, 63.5846
6.557103636, 96.390, 4030.0, 63.4823
6.583364201, 96.390, 3964.0, 62.9603
6.609624767, 96.390, 4006.0, 63.2930
6.635885332, 96.390, 4071.0, 63.8044
6.662145897, 96.390, 3991.0, 63.1744
6.688406463, 96.390, 4127.0, 64.2417
6.714667028, 96.390, 4053.0, 63.6632
6.740927593, 96.390, 3999.0, 63.2376
6.767188159, 96.390, 3973.0, 63.0317
6.793448724, 96.390, 3898.0, 62.4340
6.819709289, 96.390, 3985.0, 63.1269
6.845969855, 96.390, 3982.0, 63.1031
6.872230420, 96.390, 4045.0, 63.6003
6.898490986, 96.390, 3995.0, 63.2060
6.924751551, 96.390, 3866.0, 62.1772
6.951012116, 96.390, 3999.0, 63.2376
6.977272682, 96.390, 3955.0, 62.8888
7.003533247, 96.390, 4090.0, 63.9531
7.029793812, 96.390, 3972.0, 63.0238
7.056054378, 96.390, 3960.0, 62.9285
7.082314943, 96.390, 4054.0, 63.6710
7.108575508, 96.390, 3964.0, 62.9603
7.134836074, 96.390, 3857.0, 62.1048
7.161096639, 96.390, 3933.0, 62.7136
7.187357204, 96.390, 3969.0, 63.0000
7.213617770, 96.390, 3812.0, 61.7414
7.239878335, 96.390, 3897.0, 62.4260
7.266138900, 96.390, 3909.0, 62.5220
7.292399466, 96.390, 3805.0, 61.6847
7.318660031, 96.390, 3897.0, 62.4260
7.344920597, 96.390, 3914.0, 62.5620
7.371181162, 96.390, 3836.0, 61.9355
7.397441727, 96.390, 3877.0, 62.2656
7.423702293, 96.390, 3945.0, 62.8092
7.449962858, 96.390, 3922.0, 62.6259
7.476223423, 96.390, 4004.0, 63.2772
7.502483989, 96.390, 3919.0, 62.6019
7.528744554, 96.390, 3864.0, 62.1611
7.555005119, 96.390, 3862.0, 62.1450
7.581265685, 96.390, 3781.0, 61.4898
7.607526250, 96.390, 3876.0, 62.2575
7.633786815, 96.390, 3842.0, 61.9839
7.660047381, 96.390, 3861.0, 62.1369
7.686307946, 96.390, 3766.0, 61.3677
7.712568512, 96.390, 3705.0, 60.8687
7.738829077, 96.390, 3758.0, 61.3025
7.765089642, 96.390, 3838.0, 61.9516
7.791350208, 96.390, 3920.0, 62.6099
7.817610773, 96.390, 3806.0, 61.6928
7.843871338, 96.390, 3786.0, 61.5305
7.870131904, 96.390, 3759.0, 61.3107
7.896392469, 96.390, 3807.0, 61.7009
7.922653034, 96.390, 3715.0, 60.9508
7.948913600, 96.390, 3708.0, 60.8933
7.975174165, 96.390, 3791.0, 61.5711
8.001434730, 96.390, 3709.0, 60.9016
8.027695296, 96.390, 3804.0, 61.6766
8.053955861, 96.390, 3841.0, 61.9758
8.080216426, 96.390, 3655.0, 60.4566
8.106476992, 96.390, 3708.0, 60.8933
8.132737557, 96.390, 3777.0, 61.4573
8.158998123, 96.390, 3761.0, 61.3270
8.185258688, 96.390, 3695.0, 60.7865
8.211519253, 96.390, 3774.0, 61.4329
8.237779819, 96.390, 3703.0, 60.8523
8.264040384, 96.390, 3681.0, 60.6712
8.290300949, 96.390, 3689.0, 60.7371
8.316561515, 96.390, 3871.0, 62.2174
8.342822080, 96.390, 3697.0, 60.8030
8.369082645, 96.390, 3723.0, 61.0164
8.395343211, 96.390, 3808.0, 61.7090
8.421603776, 96.390, 3669.0, 60.5723
8.447864341, 96.390, 3549.0, 59.5735
8.474124907, 96.390, 3540.0, 59.4979
8.500385472, 96.390, 3726.0, 61.0410
8.526646038, 96.390, 3612.0, 60.0999
8.552906603, 96.390, 3673.0, 60.6053
8.579167168, 96.390, 3707.0, 60.8851
8.605427734, 96.390, 3731.0, 61.0819
8.631688299, 96.390, 3653.0, 60.4401
8.657948864, 96.390, 3589.0, 59.9083
8.684209430, 96.390, 3676.0, 60.6300
8.710469995, 96.390, 3597.0, 59.9750
8.736730560, 96.390, 3656.0, 60.4649
8.762991126, 96.390, 3570.0, 59.7495
8.789251691, 96.390, 3672.0, 60.5970
8.815512256, 96.390, 3637.0, 60.3075
8.841772822, 96.390, 3484.0, 59.0254
8.868033387, 96.390, 3600.0, 60.0000
8.894293952, 96.390, 3593.0, 59.9416
8.920554518, 96.390, 3616.0, 60.1332
8.946815083, 96.390, 3474.0, 58.9406
8.973075649, 96.390, 3587.0, 59.8916
8.999336214, 96.390, 3546.0, 59.5483
9.025596779, 96.390, 3631.0, 60.2578
9.051857345, 96.390, 3535.0, 59.4559
9.078117910, 96.390, 3718.0, 60.9754
9.104378475, 96.390, 3426.0, 58.5320
9.130639041, 96.390, 3482.0, 59.0085
9.156899606, 96.390, 3515.0, 59.2874
9.183160171, 96.390, 3545.0, 59.5399
9.209420737, 96.390, 3532.0, 59.4306
9.235681302, 96.390, 3493.0, 59.1016
9.261941867, 96.390, 3455.0, 58.7792
9.288202433, 96.390, 3519.0, 59.3212
9.314462998, 96.390, 3543.0, 59.5231
9.340723564, 96.390, 3455.0, 58.7792
9.366984129, 96.390, 3564.0, 59.6992
9.393244694, 96.390, 3462.0, 58.8388
9.419505260, 96.390, 3510.0, 59.2453
9.445765825, 96.390, 3449.0, 58.7282
9.472026390, 96.390, 3579.0, 59.8247
9.498286956, 96.390, 3552.0, 59.5987
9.524547521, 96.390, 3420.0, 58.4808
9.550808086, 96.390, 3501.0, 59.1692
9.577068652, 96.390, 3339.0, 57.7841
9.603329217, 96.390, 3400.0, 58.3095
9.629589782, 96.390, 3365.0, 58.0086
9.655850348, 96.390, 3395.0, 58.2666
9.682110913, 96.390, 3437.0, 58.6259
9.708371478, 96.390, 3491.0, 59.0847
9.734632044, 96.390, 3365.0, 58.0086
9.760892609, 96.390, 3420.0, 58.4808
9.787153175, 96.390, 3259.0, 57.0877
9.813413740, 96.390, 3371.0, 58.0603
9.839674305, 96.390, 3495.0, 59.1185
9.865934871, 96.390, 3425.0, 58.5235
9.892195436, 96.390, 3432.0, 58.5833
9.918456001, 96.390, 3353.0, 57.9051
9.944716567, 96.390, 3341.0, 57.8014
9.970977132, 96.390, 3313.0, 57.5587
9.997237697, 96.390, 3325.0, 57.6628
10.023498263, 96.390, 3262.0, 57.1139
10.049758828, 96.390, 3313.0, 57.5587
10.076019393, 96.390, 3285.0, 57.3149
10.102279959, 96.390, 3329.0, 57.6975
10.128540524, 96.390, 3300.0, 57.4456
10.154801090, 96.390, 3396.0, 58.2752
10.181061655, 96.390, 3312.0, 57.5500
10.207322220, 96.390, 3307.0, 57.5065
10.233582786, 96.390, 3285.0, 57.3149
10.259843351, 96.390, 3378.0, 58.1206
10.286103916, 96.390, 3372.0, 58.0689
10.312364482, 96.390, 3162.0, 56.2317
10.338625047, 96.390, 3272.0, 57.2014
10.364885612, 96.390, 3327.0, 57.6802
10.391146178, 96.390, 3247.0, 56.9825
10.417406743, 96.390, 3265.0, 57.1402
10.443667308, 96.390, 3178.0, 56.3738
10.469927874, 96.390, 3226.0, 56.7979
10.496188439, 96.390, 3260.0, 57.0964
10.522449004, 96.390, 3215.0, 56.7010
10.548709570, 96.390, 3147.0, 56.0981
10.574970135, 96.390, 3258.0, 57.0789
10.601230701, 96.390, 3163.0, 56.2406
10.627491266, 96.390, 3182.0, 56.4092
10.653751831, 96.390, 3221.0, 56.7539
10.680012397, 96.390, 3240.0, 56.9210
10.706272962, 96.390, 3319.0, 57.6108
10.732533527, 96.390, 3215.0, 56.7010
10.758794093, 96.390, 3243.0, 56.9473
10.785054658, 96.390, 3226.0, 56.7979
10.811315223, 96.390, 3184.0, 56.4269
10.837575789, 96.390, 3194.0, 56.5155
10.863836354, 96.390, 3169.0, 56.2939
10.890096919, 96.390, 3083.0, 55.5248
10.916357485, 96.390, 3123.0, 55.8838
10.942618050, 96.390, 3258.0, 57.0789
10.968878616, 96.390, 3059.0, 55.3082
10.995139181, 96.390, 3196.0, 56.5332
11.021399746, 96.390, 3137.0, 56.0089
11.047660312, 96.390, 3128.0, 55.9285
11.073920877, 96.390, 3089.0, 55.5788
11.100181442, 96.390, 3103.0, 55.7046
11.126442008, 96.390, 2996.0, 54.7357
11.152702573, 96.390, 3154.0, 56.1605
11.178963138, 96.390, 3044.0, 55.1725
11.205223704, 96.390, 3100.0, 55.6776
11.231484269, 96.390, 3101.0, 55.6866
11.257744834, 96.390, 3142.0, 56.0535
11.284005400, 96.390, 3042.0, 55.1543
11.310265965, 96.390, 3011.0, 54.8726
11.336526530, 96.390, 3042.0, 55.1543
11.362787096, 96.390, 3089.0, 55.5788
11.389047661, 96.390, 3058.0, 55.2992
11.415308227, 96.390, 2952.0, 54.3323
11.441568792, 96.390, 3011.0, 54.8726
11.467829357, 96.390, 2992.0, 54.6992
11.494089923, 96.390, 3051.0, 55.2359
11.520350488, 96.390, 3018.0, 54.9363
11.546611053, 96.390, 2953.0, 54.3415
11.572871619, 96.390, 3005.0, 54.8179
11.599132184, 96.390, 2972.0, 54.5161
11.625392749, 96.390, 3004.0, 54.8088
11.651653315, 96.390, 2910.0, 53.9444
11.677913880, 96.390, 2965.0, 54.4518
11.704174445, 96.390, 2949.0, 54.3047
11.730435011, 96.390, 2890.0, 53.7587
11.756695576, 96.390, 2918.0, 54.0185
11.782956141, 96.390, 2925.0, 54.0833
11.809216707, 96.390, 2903.0, 53.8795
11.835477272, 96.390, 2880.0, 53.6656
11.861737838, 96.390, 2926.0, 54.0925
11.887998403, 96.390, 2900.0, 53.8516
11.914258968, 96.390, 2973.0, 54.5252
11.940519534, 96.390, 2994.0, 54.7175
11.966780099, 96.390, 2879.0, 53.6563
11.993040664, 96.390, 2919.0, 54.0278
12.019301230, 96.390, 2875.0, 53.6190
12.045561795, 96.390, 2873.0, 53.6004
12.071822360, 96.390, 2872.0, 53.5910
12.098082926, 96.390, 2874.0, 53.6097
12.124343491, 96.390, 2852.0, 53.4041
12.150604056, 96.390, 2804.0, 52.9528
12.176864622, 96.390, 2881.0, 53.6749
12.203125187, 96.390, 2856.0, 53.4416
12.229385753, 96.390, 2801.0, 52.9245
12.255646318, 96.390, 2866.0, 53.5350
12.281906883, 96.390, 2793.0, 52.8488
12.308167449, 96.390, 2707.0, 52.0288
12.334428014, 96.390, 2769.0, 52.6213
12.360688579, 96.390, 2776.0, 52.6878
12.386949145, 96.390, 2735.0, 52.2972
12.413209710, 96.390, 2858.0, 53.4603
12.439470275, 96.390, 2719.0, 52.1440
12.465730841, 96.390, 2789.0, 52.8110
12.491991406, 96.390, 2751.0, 52.4500
12.518251971, 96.390, 2675.0, 51.7204
12.544512537, 96.390, 2713.0, 52.0865
12.570773102, 96.390, 2764.0, 52.5738
12.597033667, 96.390, 2729.0, 52.2398
12.623294233, 96.390, 2665.0, 51.6236
12.649554798, 96.390, 2725.0, 52.2015
12.675815364, 96.390, 2633.0, 51.3128
12.702075929, 96.390, 2675.0, 51.7204
12.728336494, 96.390, 2737.0, 52.3163
12.754597060, 96.390, 2766.0, 52.5928
12.780857625, 96.390, 2700.0, 51.9615
12.807118190, 96.390, 2697.0, 51.9326
12.833378756, 96.390, 2642.0, 51.4004
12.859639321, 96.390, 2745.0, 52.3927
12.885899886, 96.390, 2666.0, 51.6333
12.912160452, 96.390, 2599.0, 50.9804
12.938421017, 96.390, 2604.0, 51.0294
12.964681582, 96.390, 2673.0, 51.7011
12.990942148, 96.390, 2723.0, 52.1824
13.017202713, 96.390, 2607.0, 51.0588
13.043463279, 96.390, 2633.0, 51.3128
13.069723844, 96.390, 2610.0, 51.0882
13.095984409, 96.390, 2550.0, 50.4975
13.122244975, 96.390, 2638.0, 51.3615
13.148505540, 96.390, 2540.0, 50.3984
13.174766105, 96.390, 2652.0, 51.4976
13.201026671, 96.390, 2552.0, 50.5173
13.227287236, 96.390, 2565.0, 50.6458
13.253547801, 96.390, 2667.0, 51.6430
13.279808367, 96.390, 2688.0, 51.8459
13.306068932, 96.390, 2619.0, 51.1762
13.332329497, 96.390, 2537.0, 50.3686
13.358590063, 96.390, 2493.0, 49.9300
13.384850628, 96.390, 2570.0, 50.6952
13.411111193, 96.390, 2658.0, 51.5558
13.437371759, 96.390, 2648.0, 51.4587
13.463632324, 96.390, 2548.0, 50.4777
13.489892890, 96.390, 2632.0, 51.3030
13.516153455, 96.390, 2569.0, 50.6853
13.542414020, 96.390, 2575.0, 50.7445
13.568674586, 96.390, 2556.0, 50.5569
13.594935151, 96.390, 2460.0, 49.5984
13.621195716, 96.390, 2566.0, 50.6557
13.647456282, 96.390, 2608.0, 51.0686
13.673716847, 96.390, 2604.0, 51.0294
13.699977412, 96.390, 2567.0, 50.6656
13.726237978, 96.390, 2359.0, 48.5695
13.752498543, 96.390, 2562.0, 50.6162
13.778759108, 96.390, 2493.0, 49.9300
13.805019674, 96.390, 2508.0, 50.0799
13.831280239, 96.390, 2520.0, 50.1996
13.857540805, 96.390, 2528.0, 50.2792
13.883801370, 96.390, 2424.0, 49.2341
13.910061935, 96.390, 2425.0, 49.2443
13.936322501, 96.390, 2489.0, 49.8899
13.962583066, 96.390, 2427.0, 49.2646
13.988843631, 96.390, 2484.0, 49.8397
14.015104197, 96.390, 2424.0, 49.2341
14.041364762, 96.390, 2446.0, 49.4571
14.067625327, 96.390, 2430.0, 49.2950
14.093885893, 96.390, 2473.0, 49.7293
14.120146458, 96.390, 2444.0, 49.4368
14.146407023, 96.390, 2484.0, 49.8397
14.172667589, 96.390, 2476.0, 49.7594
14.198928154, 96.390, 2464.0, 49.6387
14.225188719, 96.390, 2498.0, 49.9800
14.251449285, 96.390, 2441.0, 49.4065
14.277709850, 96.390, 2475.0, 49.7494
14.303970416, 96.390, 2476.0, 49.7594
14.330230981, 96.390, 2387.0, 48.8569
14.356491546, 96.390, 2388.0, 48.8672
14.382752112, 96.390, 2406.0, 49.0510
14.409012677, 96.390, 2374.0, 48.7237
14.435273242, 96.390, 2403.0, 49.0204
14.461533808, 96.390, 2375.0, 48.7340
14.487794373, 96.390, 2365.0, 48.6313
14.514054938, 96.390, 2397.0, 48.9592
14.540315504, 96.390, 2384.0, 48.8262
14.566576069, 96.390, 2496.0, 49.9600
14.592836634, 96.390, 2341.0, 48.3839
14.619097200, 96.390, 2441.0, 49.4065
14.645357765, 96.390, 2368.0, 48.6621
14.671618331, 96.390, 2340.0, 48.3735
14.697878896, 96.390, 2262.0, 47.5605
14.724139461, 96.390, 2318.0, 48.1456
14.750400027, 96.390, 2300.0, 47.9583
14.776660592, 96.390, 2375.0, 48.7340
14.802921157, 96.390, 2354.0, 48.5180
14.829181723, 96.390, 2398.0, 48.9694
14.855442288, 96.390, 2406.0, 49.0510
14.881702853, 96.390, 2424.0, 49.2341
14.907963419, 96.390, 2357.0, 48.5489
14.934223984, 96.390, 2302.0, 47.9792
14.960484549, 96.390, 2319.0, 48.1560
14.986745115, 96.390, 2376.0, 48.7442
15.013005680, 96.390, 2303.0, 47.9896
15.039266245, 96.390, 2348.0, 48.4562
15.065526811, 96.390, 2263.0, 47.5710
15.091787376, 96.390, 2340.0, 48.3735
15.118047942, 96.390, 2327.0, 48.2390
15.144308507, 96.390, 2363.0, 48.6107
15.170569072, 96.390, 2326.0, 48.2286
15.196829638, 96.390, 2309.0, 48.0521
15.223090203, 96.390, 2359.0, 48.5695
15.249350768, 96.390, 2328.0, 48.2494
15.275611334, 96.390, 2338.0, 48.3529
15.301871899, 96.390, 2437.0, 49.3660
15.328132464, 96.390, 2359.0, 48.5695
15.354393030, 96.390, 2380.0, 48.7852
15.380653595, 96.390, 2376.0, 48.7442
15.406914160, 96.390, 2279.0, 47.7389
15.433174726, 96.390, 2363.0, 48.6107
15.459435291, 96.390, 2269.0, 47.6340
15.485695857, 96.390, 2383.0, 48.8160
15.511956422, 96.390, 2351.0, 48.4871
15.538216987, 96.390, 2315.0, 48.1144
15.564477553, 96.390, 2318.0, 48.1456
15.590738118, 96.390, 2338.0, 48.3529
15.616998683, 96.390, 2340.0, 48.3735
15.643259249, 96.390, 2401.0, 49.0000
15.669519814, 96.390, 2276.0, 47.7074
15.695780379, 96.390, 2352.0, 48.4974
15.722040945, 96.390, 2328.0, 48.2494
15.748301510, 96.390, 2289.0, 47.8435
15.774562075, 96.390, 2283.0, 47.7807
15.800822641, 96.390, 2251.0, 47.4447
15.827083206, 96.390, 2260.0, 47.5395
15.853343771, 96.390, 2286.0, 47.8121
15.879604337, 96.390, 2329.0, 48.2597
15.905864902, 96.390, 2340.0, 48.3735
15.932125468, 96.390, 2257.0, 47.5079
15.958386033, 96.390, 2280.0, 47.7493
15.984646598, 96.390, 2419.0, 49.1833
16.010907164, 96.390, 2282.0, 47.7703
16.037167729, 96.390, 2234.0, 47.2652
16.063428294, 96.390, 2334.0, 48.3115
16.089688860, 96.390, 2282.0, 47.7703
16.115949425, 96.390, 2402.0, 49.0102
16.142209990, 96.390, 2244.0, 47.3709
16.168470556, 96.390, 2218.0, 47.0956
16.194731121, 96.390, 2289.0, 47.8435
16.220991686, 96.390, 2269.0, 47.6340
16.247252252, 96.390, 2321.0, 48.1768
16.273512817, 96.390, 2327.0, 48.2390
16.299773382, 96.390, 2292.0, 47.8748
16.326033948, 96.390, 2376.0, 48.7442
16.352294513, 96.390, 2345.0, 48.4252
16.378555079, 96.390, 2358.0, 48.5592
16.404815644, 96.390, 2335.0, 48.3218
16.431076209, 96.390, 2279.0, 47.7389
16.457336775, 96.390, 2274.0, 47.6865
16.483597340, 96.390, 2385.0, 48.8365
16.509857905, 96.390, 2355.0, 48.5283
16.536118471, 96.390, 2300.0, 47.9583
16.562379036, 96.390, 2323.0, 48.1975
16.588639601, 96.390, 2303.0, 47.9896
16.614900167, 96.390, 2294.0, 47.8957
16.641160732, 96.390, 2311.0, 48.0729
16.667421297, 96.390, 2337.0, 48.3425
16.693681863, 96.390, 2357.0, 48.5489
16.719942428, 96.390, 2239.0, 47.3181
16.746202994, 96.390, 2306.0, 48.0208
16.772463559, 96.390, 2368.0, 48.6621
16.798724124, 96.390, 2321.0, 48.1768
16.824984690, 96.390, 2303.0, 47.9896
16.851245255, 96.390, 2368.0, 48.6621
16.877505820, 96.390, 2365.0, 48.6313
16.903766386, 96.390, 2255.0, 47.4868
16.930026951, 96.390, 2421.0, 49.2037
16.956287516, 96.390, 2342.0, 48.3942
16.982548082, 96.390, 2333.0, 48.3011
17.008808647, 96.390, 2371.0, 48.6929
17.035069212, 96.390, 2376.0, 48.7442
17.061329778, 96.390, 2402.0, 49.0102
17.087590343, 96.390, 2373.0, 48.7134
17.113850908, 96.390, 2429.0, 49.2849
17.140111474, 96.390, 2437.0, 49.3660
17.166372039, 96.390, 2410.0, 49.0918
17.192632605, 96.390, 2356.0, 48.5386
17.218893170, 96.390, 2351.0, 48.4871
17.245153735, 96.390, 2374.0, 48.7237
17.271414301, 96.390, 2293.0, 47.8853
17.297674866, 96.390, 2347.0, 48.4458
17.323935431, 96.390, 2420.0, 49.1935
17.350195997, 96.390, 2410.0, 49.0918
17.376456562, 96.390, 2388.0, 48.8672
17.402717127, 96.390, 2364.0, 48.6210
17.428977693, 96.390, 2407.0, 49.0612
17.455238258, 96.390, 2469.0, 49.6890
17.481498823, 96.390, 2461.0, 49.6085
17.507759389, 96.390, 2327.0, 48.2390
17.534019954, 96.390, 2442.0, 49.4166
17.560280520, 96.390, 2342.0, 48.3942
17.586541085, 96.390, 2378.0, 48.7647
17.612801650, 96.390, 2417.0, 49.1630
17.639062216, 96.390, 2402.0, 49.0102
17.665322781, 96.390, 2401.0, 49.0000
17.691583346, 96.390, 2429.0, 49.2849
17.717843912, 96.390, 2377.0, 48.7545
17.744104477, 96.390, 2415.0, 49.1426
17.770365042, 96.390, 2439.0, 49.3862
17.796625608, 96.390, 2387.0, 48.8569
17.822886173, 96.390, 2465.0, 49.6488
17.849146738, 96.390, 2443.0, 49.4267
17.875407304, 96.390, 2329.0, 48.2597
17.901667869, 96.390, 2364.0, 48.6210
17.927928434, 96.390, 2481.0, 49.8096
17.954189000, 96.390, 2474.0, 49.7393
17.980449565, 96.390, 2428.0, 49.2747
18.006710131, 96.390, 2388.0, 48.8672
18.032970696, 96.390, 2458.0, 49.5782
18.059231261, 96.390, 2501.0, 50.0100
18.085491827, 96.390, 2522.0, 50.2195
18.111752392, 96.390, 2487.0, 49.8698
18.138012957, 96.390, 2477.0, 49.7695
18.164273523, 96.390, 2488.0, 49.8799
18.190534088, 96.390, 2527.0, 50.2693
18.216794653, 96.390, 2457.0, 49.5681
18.243055219, 96.390, 2429.0, 49.2849
18.269315784, 96.390, 2425.0, 49.2443
18.295576349, 96.390, 2370.0, 48.6826
18.321836915, 96.390, 2524.0, 50.2394
18.348097480, 96.390, 2462.0, 49.6185
18.374358046, 96.390, 2491.0, 49.9099
18.400618611, 96.390, 2517.0, 50.1697
18.426879176, 96.390, 2507.0, 50.0700
18.453139742, 96.390, 2485.0, 49.8498
18.479400307, 96.390, 2471.0, 49.7092
18.505660872, 96.390, 2509.0, 50.0899
18.531921438, 96.390, 2569.0, 50.6853
18.558182003, 96.390, 2537.0, 50.3686
18.584442568, 96.390, 2498.0, 49.9800
18.610703134, 96.390, 2549.0, 50.4876
18.636963699, 96.390, 2444.0, 49.4368
18.663224264, 96.390, 2537.0, 50.3686
18.689484830, 96.390, 2523.0, 50.2295
18.715745395, 96.390, 2497.0, 49.9700
18.742005960, 96.390, 2429.0, 49.2849
18.768266526, 96.390, 2519.0, 50.1896
18.794527091, 96.390, 2512.0, 50.1199
18.820787657, 96.390, 2473.0, 49.7293
18.847048222, 96.390, 2629.0, 51.2738
18.873308787, 96.390, 2569.0, 50.6853
18.899569353, 96.390, 2565.0, 50.6458
18.925829918, 96.390, 2602.0, 51.0098
18.952090483, 96.390, 2525.0, 50.2494
18.978351049, 96.390, 2568.0, 50.6754
19.004611614, 96.390, 2563.0, 50.6261
19.030872179, 96.390, 2568.0, 50.6754
19.057132745, 96.390, 2526.0, 50.2593
19.083393310, 96.390, 2569.0, 50.6853
19.109653875, 96.390, 2600.0, 50.9902
19.135914441, 96.390, 2513.0, 50.1298
19.162175006, 96.390, 2617.0, 51.1566
19.188435572, 96.390, 2601.0, 51.0000
19.214696137, 96.390, 2573.0, 50.7247
19.240956702, 96.390, 2553.0, 50.5272
19.267217268, 96.390, 2561.0, 50.6063
19.293477833, 96.390, 2558.0, 50.5767
19.319738398, 96.390, 2565.0, 50.6458
19.345998964, 96.390, 2670.0, 51.6720
19.372259529, 96.390, 2577.0, 50.7642
19.398520094, 96.390, 2700.0, 51.9615
19.424780660, 96.390, 2695.0, 51.9134
19.451041225, 96.390, 2616.0, 51.1468
19.477301790, 96.390, 2643.0, 51.4101
19.503562356, 96.390, 2670.0, 51.6720
19.529822921, 96.390, 2662.0, 51.5946
19.556083486, 96.390, 2574.0, 50.7346
19.582344052, 96.390, 2608.0, 51.0686
19.608604617, 96.390, 2629.0, 51.2738
19.634865183, 96.390, 2549.0, 50.4876
19.661125748, 96.390, 2759.0, 52.5262
19.687386313, 96.390, 2621.0, 51.1957
19.713646879, 96.390, 2717.0, 52.1249
19.739907444, 96.390, 2657.0, 51.5461
19.766168009, 96.390, 2709.0, 52.0481
19.792428575, 96.390, 2694.0, 51.9038
19.818689140, 96.390, 2752.0, 52.4595
19.844949705, 96.390, 2707.0, 52.0288
19.871210271, 96.390, 2714.0, 52.0961
19.897470836, 96.390, 2597.0, 50.9608
19.923731401, 96.390, 2746.0, 52.4023
19.949991967, 96.390, 2772.0, 52.6498
19.976252532, 96.390, 2737.0, 52.3163
20.002513097, 96.390, 2765.0, 52.5833
20.028773663, 96.390, 2686.0, 51.8266
20.055034228, 96.390, 2691.0, 51.8748
20.081294794, 96.390, 2677.0, 51.7397
20.107555359, 96.390, 2752.0, 52.4595
20.133815924, 96.390, 2758.0, 52.5167
20.160076490, 96.390, 2742.0, 52.3641
20.186337055, 96.390, 2805.0, 52.9623
20.212597620, 96.390, 2656.0, 51.5364
20.238858186, 96.390, 2692.0, 51.8845
20.265118751, 96.390, 2675.0, 51.7204
20.291379316, 96.390, 2760.0, 52.5357
20.317639882, 96.390, 2632.0, 51.3030
20.343900447, 96.390, 2745.0, 52.3927
20.370161012, 96.390, 2757.0, 52.5071
20.396421578, 96.390, 2753.0, 52.4690
20.422682143, 96.390, 2770.0, 52.6308
20.448942709, 96.390, 2692.0, 51.8845
20.475203274, 96.390, 2798.0, 52.8961
20.501463839, 96.390, 2742.0, 52.3641
20.527724405, 96.390, 2826.0, 53.1601
20.553984970, 96.390, 2766.0, 52.5928
20.580245535, 96.390, 2829.0, 53.1883
20.606506101, 96.390, 2849.0, 53.3760
20.632766666, 96.390, 2812.0, 53.0283
20.659027231, 96.390, 2827.0, 53.1695
20.685287797, 96.390, 2930.0, 54.1295
20.711548362, 96.390, 2821.0, 53.1131
20.737808927, 96.390, 3005.0, 54.8179
20.764069493, 96.390, 2862.0, 53.4977
20.790330058, 96.390, 2748.0, 52.4214
20.816590623, 96.390, 2804.0, 52.9528
20.842851189, 96.390, 2825.0, 53.1507
20.869111754, 96.390, 2821.0, 53.1131
20.895372320, 96.390, 2881.0, 53.6749
20.921632885, 96.390, 2793.0, 52.8488
20.947893450, 96.390, 2826.0, 53.1601
20.974154016, 96.390, 2820.0, 53.1037
21.000414581, 96.390, 2880.0, 53.6656
21.026675146, 96.390, 2819.0, 53.0943
21.052935712, 96.390, 2851.0, 53.3948
21.079196277, 96.390, 2796.0, 52.8772
21.105456842, 96.390, 2782.0, 52.7447
21.131717408, 96.390, 2722.0, 52.1728
21.157977973, 96.390, 2791.0, 52.8299
21.184238538, 96.390, 2900.0, 53.8516
21.210499104, 96.390, 2798.0, 52.8961
21.236759669, 96.390, 2852.0, 53.4041
21.263020235, 96.390, 2864.0, 53.5164
21.289280800, 96.390, 2890.0, 53.7587
21.315541365, 96.390, 2794.0, 52.8583
21.341801931, 96.390, 2796.0, 52.8772
21.368062496, 96.390, 2840.0, 53.2917
21.394323061, 96.390, 2867.0, 53.5444
21.420583627, 96.390, 2798.0, 52.8961
21.446844192, 96.390, 2767.0, 52.6023
21.473104757, 96.390, 2766.0, 52.5928
21.499365323, 96.390, 2651.0, 51.4879
21.525625888, 96.390, 2861.0, 53.4883
21.551886453, 96.390, 2785.0, 52.7731
21.578147019, 96.390, 2783.0, 52.7541
21.604407584, 96.390, 2810.0, 53.0094
21.630668149, 96.390, 2775.0, 52.6783
21.656928715, 96.390, 2735.0, 52.2972
21.683189280, 96.390, 2842.0, 53.3104
21.709449846, 96.390, 2868.0, 53.5537
21.735710411, 96.390, 2873.0, 53.6004
21.761970976, 96.390, 2721.0, 52.1632
21.788231542, 96.390, 2752.0, 52.4595
21.814492107, 96.390, 2818.0, 53.0848
21.840752672, 96.390, 2819.0, 53.0943
21.867013238, 96.390, 2760.0, 52.5357
21.893273803, 96.390, 2784.0, 52.7636
21.919534368, 96.390, 2828.0, 53.1789
21.945794934, 96.390, 2776.0, 52.6878
21.972055499, 96.390, 2866.0, 53.5350
21.998316064, 96.390, 2869.0, 53.5630
22.024576630, 96.390, 2780.0, 52.7257
22.050837195, 96.390, 2848.0, 53.3667
22.077097761, 96.390, 2816.0, 53.0660
22.103358326, 96.390, 2856.0, 53.4416
22.129618891, 96.390, 2811.0, 53.0189
22.155879457, 96.390, 2869.0, 53.5630
22.182140022, 96.390, 2765.0, 52.5833
22.208400587, 96.390, 2908.0, 53.9259
22.234661153, 96.390, 2764.0, 52.5738
22.260921718, 96.390, 2812.0, 53.0283
22.287182283, 96.390, 2867.0, 53.5444
22.313442849, 96.390, 2773.0, 52.6593
22.339703414, 96.390, 2739.0, 52.3355
22.365963979, 96.390, 2864.0, 53.5164
22.392224545, 96.390, 2797.0, 52.8867
22.418485110, 96.390, 2812.0, 53.0283
22.444745675, 96.390, 2800.0, 52.9150
22.471006241, 96.390, 2728.0, 52.2303
22.497266806, 96.390, 2710.0, 52.0577
22.523527372, 96.390, 2860.0, 53.4790
22.549787937, 96.390, 2878.0, 53.6470
22.576048502, 96.390, 2886.0, 53.7215
22.602309068, 96.390, 2794.0, 52.8583
22.628569633, 96.390, 2741.0, 52.3546
22.654830198, 96.390, 2666.0, 51.6333
22.681090764, 96.390, 2763.0, 52.5642
22.707351329, 96.390, 2898.0, 53.8331
22.733611894, 96.390, 2764.0, 52.5738
22.759872460, 96.390, 2882.0, 53.6843
22.786133025, 96.390, 2816.0, 53.0660
22.812393590, 96.390, 2859.0, 53.4696
22.838654156, 96.390, 2821.0, 53.1131
22.864914721, 96.390, 2802.0, 52.9339
22.891175287, 96.390, 2878.0, 53.6470
22.917435852, 96.390, 2809.0, 53.0000
22.943696417, 96.390, 2787.0, 52.7920
22.969956983, 96.390, 2918.0, 54.0185
22.996217548, 96.390, 2757.0, 52.5071
23.022478113, 96.390, 2807.0, 52.9811
23.048738679, 96.390, 2830.0, 53.1977
23.074999244, 96.390, 2591.0, 50.9019
23.101259809, 96.390, 2686.0, 51.8266
23.127520375, 96.390, 2686.0, 51.8266
23.153780940, 96.390, 2736.0, 52.3068
23.180041505, 96.390, 2766.0, 52.5928
23.206302071, 96.390, 2725.0, 52.2015
23.232562636, 96.390, 2732.0, 52.2685
23.258823201, 96.390, 2854.0, 53.4228
23.285083767, 96.390, 2789.0, 52.8110
23.311344332, 96.390, 2719.0, 52.1440
23.337604898, 96.390, 2767.0, 52.6023
23.363865463, 96.390, 2771.0, 52.6403
23.390126028, 96.390, 2741.0, 52.3546
23.416386594, 96.390, 2732.0, 52.2685
23.442647159, 96.390, 2659.0, 51.5655
23.468907724, 96.390, 2749.0, 52.4309
23.495168290, 96.390, 2729.0, 52.2398
23.521428855, 96.390, 2696.0, 51.9230
23.547689420, 96.390, 2649.0, 51.4684
23.573949986, 96.390, 2740.0, 52.3450
23.600210551, 96.390, 2755.0, 52.4881
23.626471116, 96.390, 2650.0, 51.4782
23.652731682, 96.390, 2676.0, 51.7301
23.678992247, 96.390, 2619.0, 51.1762
23.705252813, 96.390, 2647.0, 51.4490
23.731513378, 96.390, 2685.0, 51.8170
23.757773943, 96.390, 2699.0, 51.9519
23.784034509, 96.390, 2692.0, 51.8845
23.810295074, 96.390, 2695.0, 51.9134
23.836555639, 96.390, 2667.0, 51.6430
23.862816205, 96.390, 2676.0, 51.7301
23.889076770, 96.390, 2651.0, 51.4879
23.915337335, 96.390, 2610.0, 51.0882
23.941597901, 96.390, 2595.0, 50.9411
23.967858466, 96.390, 2665.0, 51.6236
23.994119031, 96.390, 2530.0, 50.2991
24.020379597, 96.390, 2660.0, 51.5752
24.046640162, 96.390, 2660.0, 51.5752
24.072900727, 96.390, 2495.0, 49.9500
24.099161293, 96.390, 2575.0, 50.7445
24.125421858, 96.390, 2582.0, 50.8134
24.151682424, 96.390, 2558.0, 50.5767
24.177942989, 96.390, 2557.0, 50.5668
24.204203554, 96.390, 2539.0, 50.3885
24.230464120, 96.390, 2531.0, 50.3090
24.256724685, 96.390, 2639.0, 51.3712
24.282985250, 96.390, 2502.0, 50.0200
24.309245816, 96.390, 2533.0, 50.3289
24.335506381, 96.390, 2417.0, 49.1630
24.361766946, 96.390, 2380.0, 48.7852
24.388027512, 96.390, 2536.0, 50.3587
24.414288077, 96.390, 2524.0, 50.2394
24.440548642, 96.390, 2438.0, 49.3761
24.466809208, 96.390, 2441.0, 49.4065
24.493069773, 96.390, 2458.0, 49.5782
24.519330338, 96.390, 2475.0, 49.7494
24.545590904, 96.390, 2418.0, 49.1732
24.571851469, 96.390, 2458.0, 49.5782
24.598112035, 96.390, 2496.0, 49.9600
24.624372600, 96.390, 2336.0, 48.3322
24.650633165, 96.390, 2412.0, 49.1121
24.676893731, 96.390, 2365.0, 48.6313
24.703154296, 96.390, 2461.0, 49.6085
24.729414861, 96.390, 2448.0, 49.4773
24.755675427, 96.390, 2439.0, 49.3862
24.781935992, 96.390, 2515.0, 50.1498
24.808196557, 96.390, 2411.0, 49.1019
24.834457123, 96.390, 2434.0, 49.3356
24.860717688, 96.390, 2411.0, 49.1019
24.886978253, 96.390, 2473.0, 49.7293
24.913238819, 96.390, 2388.0, 48.8672
24.939499384, 96.390, 2318.0, 48.1456
24.965759950, 96.390, 2402.0, 49.0102
24.992020515, 96.390, 2412.0, 49.1121
25.018281080, 96.390, 2358.0, 48.5592
25.044541646, 96.390, 2403.0, 49.0204
25.070802211, 96.390, 2419.0, 49.1833
25.097062776, 96.390, 2355.0, 48.5283
25.123323342, 96.390, 2450.0, 49.4975
25.149583907, 96.390, 2305.0, 48.0104
25.175844472, 96.390, 2307.0, 48.0312
25.202105038, 96.390, 2314.0, 48.1041
25.228365603, 96.390, 2371.0, 48.6929
25.254626168, 96.390, 2339.0, 48.3632
25.280886734, 96.390, 2331.0, 48.2804
25.307147299, 96.390, 2300.0, 47.9583
25.333407864, 96.390, 2454.0, 49.5379
25.359668430, 96.390, 2417.0, 49.1630
25.385928995, 96.390, 2272.0, 47.6655
25.412189561, 96.390, 2339.0, 48.3632
25.438450126, 96.390, 2310.0, 48.0625
25.464710691, 96.390, 2323.0, 48.1975
25.490971257, 96.390, 2301.0, 47.9687
25.517231822, 96.390, 2336.0, 48.3322
25.543492387, 96.390, 2302.0, 47.9792
25.569752953, 96.390, 2246.0, 47.3920
25.596013518, 96.390, 2317.0, 48.1352
25.622274083, 96.390, 2328.0, 48.2494
25.648534649, 96.390, 2305.0, 48.0104
25.674795214, 96.390, 2272.0, 47.6655
25.701055779, 96.390, 2305.0, 48.0104
25.727316345, 96.390, 2251.0, 47.4447
25.753576910, 96.390, 2237.0, 47.2969
25.779837476, 96.390, 2248.0, 47.4131
25.806098041, 96.390, 2159.0, 46.4650
25.832358606, 96.390, 2285.0, 47.8017
25.858619172, 96.390, 2210.0, 47.0106
25.884879737, 96.390, 2179.0, 46.6798
25.911140302, 96.390, 2237.0, 47.2969
25.937400868, 96.390, 2169.0, 46.5725
25.963661433, 96.390, 2301.0, 47.9687
25.989921998, 96.390, 2291.0, 47.8644
26.016182564, 96.390, 2151.0, 46.3789
26.042443129, 96.390, 2299.0, 47.9479
26.068703694, 96.390, 2152.0, 46.3897
26.094964260, 96.390, 2297.0, 47.9270
26.121224825, 96.390, 2173.0, 46.6154
26.147485390, 96.390, 2194.0, 46.8402
26.173745956, 96.390, 2242.0, 47.3498
26.200006521, 96.390, 2269.0, 47.6340
26.226267087, 96.390, 2184.0, 46.7333
26.252527652, 96.390, 2211.0, 47.0213
26.278788217, 96.390, 2234.0, 47.2652
26.305048783, 96.390, 2223.0, 47.1487
26.331309348, 96.390, 2210.0, 47.0106
26.357569913, 96.390, 2194.0, 46.8402
26.383830479, 96.390, 2218.0, 47.0956
26.410091044, 96.390, 2182.0, 46.7119
26.436351609, 96.390, 2096.0, 45.7821
26.462612175, 96.390, 2181.0, 46.7012
26.488872740, 96.390, 2200.0, 46.9042
26.515133305, 96.390, 2196.0, 46.8615
26.541393871, 96.390, 2233.0, 47.2546
26.567654436, 96.390, 2196.0, 46.8615
26.593915002, 96.390, 2193.0, 46.8295
26.620175567, 96.390, 2173.0, 46.6154
26.646436132, 96.390, 2153.0, 46.4004
26.672696698, 96.390, 2145.0, 46.3141
26.698957263, 96.390, 2073.0, 45.5302
26.725217828, 96.390, 2107.0, 45.9021
26.751478394, 96.390, 2154.0, 46.4112
26.777738959, 96.390, 2239.0, 47.3181
26.803999524, 96.390, 2190.0, 46.7974
26.830260090, 96.390, 2160.0, 46.4758
26.856520655, 96.390, 2125.0, 46.0977
26.882781220, 96.390, 2197.0, 46.8722
26.909041786, 96.390, 2183.0, 46.7226
26.935302351, 96.390, 2099.0, 45.8148
26.961562916, 96.390, 2102.0, 45.8476
26.987823482, 96.390, 2120.0, 46.0435
27.014084047, 96.390, 2091.0, 45.7275
27.040344613, 96.390, 2134.0, 46.1952
27.066605178, 96.390, 2120.0, 46.0435
27.092865743, 96.390, 2095.0, 45.7712
27.119126309, 96.390, 2121.0, 46.0543
27.145386874, 96.390, 2206.0, 46.9681
27.171647439, 96.390, 2182.0, 46.7119
27.197908005, 96.390, 2153.0, 46.4004
27.224168570, 96.390, 2159.0, 46.4650
27.250429135, 96.390, 2215.0, 47.0638
27.276689701, 96.390, 2095.0, 45.7712
27.302950266, 96.390, 2151.0, 46.3789
27.329210831, 96.390, 2117.0, 46.0109
27.355471397, 96.390, 2127.0, 46.1194
27.381731962, 96.390, 2079.0, 45.5961
27.407992528, 96.390, 2180.0, 46.6905
27.434253093, 96.390, 2062.0, 45.4093
27.460513658, 96.390, 2124.0, 46.0869
27.486774224, 96.390, 2070.0, 45.4973
27.513034789, 96.390, 2067.0, 45.4643
27.539295354, 96.390, 2158.0, 46.4543
27.565555920, 96.390, 2135.0, 46.2061
27.591816485, 96.390, 2088.0, 45.6946
27.618077050, 96.390, 2111.0, 45.9456
27.644337616, 96.390, 2183.0, 46.7226
27.670598181, 96.390, 2102.0, 45.8476
27.696858746, 96.390, 2193.0, 46.8295
27.723119312, 96.390, 2140.0, 46.2601
27.749379877, 96.390, 2124.0, 46.0869
27.775640442, 96.390, 2129.0, 46.1411
27.801901008, 96.390, 2063.0, 45.4203
27.828161573, 96.390, 2028.0, 45.0333
27.854422139, 96.390, 2110.0, 45.9347
27.880682704, 96.390, 2028.0, 45.0333
27.906943269, 96.390, 2107.0, 45.9021
27.933203835, 96.390, 2147.0, 46.3357
27.959464400, 96.390, 2176.0, 46.6476
27.985724965, 96.390, 2134.0, 46.1952
28.011985531, 96.390, 2179.0, 46.6798
28.038246096, 96.390, 2016.0, 44.8999
28.064506661, 96.390, 2107.0, 45.9021
28.090767227, 96.390, 2049.0, 45.2659
28.117027792, 96.390, 2139.0, 46.2493
28.143288357, 96.390, 2081.0, 45.6180
28.169548923, 96.390, 2112.0, 45.9565
28.195809488, 96.390, 2179.0, 46.6798
28.222070054, 96.390, 2073.0, 45.5302
28.248330619, 96.390, 2172.0, 46.6047
28.274591184, 96.390, 2133.0, 46.1844
28.300851750, 96.390, 2146.0, 46.3249
28.327112315, 96.390, 2140.0, 46.2601
28.353372880, 96.390, 2180.0, 46.6905
28.379633446, 96.390, 2147.0, 46.3357
28.405894011, 96.390, 2158.0, 46.4543
28.432154576, 96.390, 2088.0, 45.6946
28.458415142, 96.390, 2029.0, 45.0444
28.484675707, 96.390, 2065.0, 45.4423
28.510936272, 96.390, 2126.0, 46.1086
28.537196838, 96.390, 2170.0, 46.5833
28.563457403, 96.390, 2129.0, 46.1411
28.589717968, 96.390, 2128.0, 46.1303
28.615978534, 96.390, 2086.0, 45.6727
28.642239099, 96.390, 2165.0, 46.5296
28.668499665, 96.390, 2094.0, 45.7602
28.694760230, 96.390, 2133.0, 46.1844
28.721020795, 96.390, 2175.0, 46.6369
28.747281361, 96.390, 2095.0, 45.7712
28.773541926, 96.390, 2136.0, 46.2169
28.799802491, 96.390, 2159.0, 46.4650
28.826063057, 96.390, 2149.0, 46.3573
28.852323622, 96.390, 2164.0, 46.5188
28.878584187, 96.390, 2057.0, 45.3542
28.904844753, 96.390, 2060.0, 45.3872
28.931105318, 96.390, 2163.0, 46.5081
28.957365883, 96.390, 2193.0, 46.8295
28.983626449, 96.390, 2148.0, 46.3465
29.009887014, 96.390, 2147.0, 46.3357
29.036147579, 96.390, 2148.0, 46.3465
29.062408145, 96.390, 2164.0, 46.5188
29.088668710, 96.390, 2108.0, 45.9130
29.114929276, 96.390, 2130.0, 46.1519
29.141189841, 96.390, 2182.0, 46.7119
29.167450406, 96.390, 2076.0, 45.5631
29.193710972, 96.390, 2103.0, 45.8585
29.219971537, 96.390, 2155.0, 46.4220
29.246232102, 96.390, 2128.0, 46.1303
29.272492668, 96.390, 2159.0, 46.4650
29.298753233, 96.390, 2181.0, 46.7012
29.325013798, 96.390, 2180.0, 46.6905
29.351274364, 96.390, 2176.0, 46.6476
29.377534929, 96.390, 2117.0, 46.0109
29.403795494, 96.390, 2196.0, 46.8615
29.430056060, 96.390, 2169.0, 46.5725
29.456316625, 96.390, 2176.0, 46.6476
29.482577191, 96.390, 2069.0, 45.4863
29.508837756, 96.390, 2167.0, 46.5510
29.535098321, 96.390, 2136.0, 46.2169
29.561358887, 96.390, 2133.0, 46.1844
29.587619452, 96.390, 2131.0, 46.1628
29.613880017, 96.390, 2108.0, 45.9130
29.640140583, 96.390, 2191.0, 46.8081
29.666401148, 96.390, 2102.0, 45.8476
29.692661713, 96.390, 2097.0, 45.7930
29.718922279, 96.390, 2098.0, 45.8039
29.745182844, 96.390, 2030.0, 45.0555
29.771443409, 96.390, 2161.0, 46.4866
29.797703975, 96.390, 2096.0, 45.7821
29.823964540, 96.390, 2140.0, 46.2601
29.850225105, 96.390, 2167.0, 46.5510
29.876485671, 96.390, 2070.0, 45.4973
29.902746236, 96.390, 2191.0, 46.8081
29.929006802, 96.390, 2011.0, 44.8442
29.955267367, 96.390, 2096.0, 45.7821
29.981527932, 96.390, 2052.0, 45.2990
30.007788498, 96.390, 2103.0, 45.8585
30.034049063, 96.390, 2135.0, 46.2061
30.060309628, 96.390, 2133.0, 46.1844
30.086570194, 96.390, 2055.0, 45.3321
30.112830759, 96.390, 2145.0, 46.3141
30.139091324, 96.390, 2121.0, 46.0543
30.165351890, 96.390, 2171.0, 46.5940
30.191612455, 96.390, 2180.0, 46.6905
30.217873020, 96.390, 2160.0, 46.4758
30.244133586, 96.390, 2142.0, 46.2817
30.270394151, 96.390, 2112.0, 45.9565
30.296654717, 96.390, 2264.0, 47.5815
30.322915282, 96.390, 2114.0, 45.9783
30.349175847, 96.390, 2161.0, 46.4866
30.375436413, 96.390, 2258.0, 47.5184
30.401696978, 96.390, 2147.0, 46.3357
30.427957543, 96.390, 2108.0, 45.9130
30.454218109, 96.390, 2141.0, 46.2709
30.480478674, 96.390, 2287.0, 47.8226
30.506739239, 96.390, 2087.0, 45.6837
30.532999805, 96.390, 2116.0, 46.0000
30.559260370, 96.390, 2100.0, 45.8258
30.585520935, 96.390, 2032.0, 45.0777
30.611781501, 96.390, 2238.0, 47.3075
30.638042066, 96.390, 2162.0, 46.4973
30.664302631, 96.390, 2077.0, 45.5741
30.690563197, 96.390, 2292.0, 47.8748
30.716823762, 96.390, 2209.0, 47.0000
30.743084328, 96.390, 2211.0, 47.0213
30.769344893, 96.390, 2151.0, 46.3789
30.795605458, 96.390, 2111.0, 45.9456
30.821866024, 96.390, 2062.0, 45.4093
30.848126589, 96.390, 2228.0, 47.2017
30.874387154, 96.390, 2155.0, 46.4220
30.900647720, 96.390, 2152.0, 46.3897
30.926908285, 96.390, 2184.0, 46.7333
30.953168850, 96.390, 2125.0, 46.0977
30.979429416, 96.390, 2126.0, 46.1086
31.005689981, 96.390, 2186.0, 46.7547
31.031950546, 96.390, 2180.0, 46.6905
31.058211112, 96.390, 2184.0, 46.7333
31.084471677, 96.390, 2148.0, 46.3465
31.110732243, 96.390, 2194.0, 46.8402
31.136992808, 96.390, 2178.0, 46.6690
31.163253373, 96.390, 2119.0, 46.0326
31.189513939, 96.390, 2220.0, 47.1169
31.215774504, 96.390, 2147.0, 46.3357
31.242035069, 96.390, 2124.0, 46.0869
31.268295635, 96.390, 2166.0, 46.5403
31.294556200, 96.390, 2235.0, 47.2758
31.320816765, 96.390, 2138.0, 46.2385
31.347077331, 96.390, 2182.0, 46.7119
31.373337896, 96.390, 2192.0, 46.8188
31.399598461, 96.390, 2178.0, 46.6690
31.425859027, 96.390, 2135.0, 46.2061
31.452119592, 96.390, 2207.0, 46.9787
31.478380157, 96.390, 2148.0, 46.3465
31.504640723, 96.390, 2164.0, 46.5188
31.530901288, 96.390, 2202.0, 46.9255
31.557161854, 96.390, 2155.0, 46.4220
31.583422419, 96.390, 2197.0, 46.8722
31.609682984, 96.390, 2161.0, 46.4866
31.635943550, 96.390, 2106.0, 45.8912
31.662204115, 96.390, 2107.0, 45.9021
31.688464680, 96.390, 2070.0, 45.4973
31.714725246, 96.390, 2145.0, 46.3141
31.740985811, 96.390, 2270.0, 47.6445
31.767246376, 96.390, 2215.0, 47.0638
31.793506942, 96.390, 2112.0, 45.9565
31.819767507, 96.390, 2251.0, 47.4447
31.846028072, 96.390, 2181.0, 46.7012
31.872288638, 96.390, 2051.0, 45.2880
31.898549203, 96.390, 2115.0, 45.9891
31.924809769, 96.390, 2177.0, 46.6583
31.951070334, 96.390, 2192.0, 46.8188
31.977330899, 96.390, 2206.0, 46.9681
32.003591465, 96.390, 2103.0, 45.8585
32.029852030, 96.390, 2298.0, 47.9375
32.056112595, 96.390, 2235.0, 47.2758
32.082373161, 96.390, 2181.0, 46.7012
32.108633726, 96.390, 2283.0, 47.7807
32.134894291, 96.390, 2228.0, 47.2017
32.161154857, 96.390, 2217.0, 47.0850
32.187415422, 96.390, 2235.0, 47.2758
32.213675987, 96.390, 2137.0, 46.2277
32.239936553, 96.390, 2107.0, 45.9021
32.266197118, 96.390, 2094.0, 45.7602
32.292457683, 96.390, 2131.0, 46.1628
32.318718249, 96.390, 2066.0, 45.4533
32.344978814, 96.390, 2037.0, 45.1331
32.371239380, 96.390, 2048.0, 45.2548
32.397499945, 96.390, 2185.0, 46.7440
32.423760510, 96.390, 2124.0, 46.0869
32.450021076, 96.390, 2109.0, 45.9239
32.476281641, 96.390, 2155.0, 46.4220
32.502542206, 96.390, 2046.0, 45.2327
32.528802772, 96.390, 2206.0, 46.9681
32.555063337, 96.390, 2053.0, 45.3100
32.581323902, 96.390, 2081.0, 45.6180
32.607584468, 96.390, 2068.0, 45.4753
32.633845033, 96.390, 2105.0, 45.8803
32.660105598, 96.390, 2103.0, 45.8585
32.686366164, 96.390, 2085.0, 45.6618
32.712626729, 96.390, 2067.0, 45.4643
32.738887295, 96.390, 2119.0, 46.0326
32.765147860, 96.390, 2109.0, 45.9239
32.791408425, 96.390, 2144.0, 46.3033
32.817668991, 96.390, 2084.0, 45.6508
32.843929556, 96.390, 2032.0, 45.0777
32.870190121, 96.390, 2070.0, 45.4973
32.896450687, 96.390, 2110.0, 45.9347
32.922711252, 96.390, 2036.0, 45.1221
32.948971817, 96.390, 2162.0, 46.4973
32.975232383, 96.390, 1959.0, 44.2606
33.001492948, 96.390, 2136.0, 46.2169
33.027753513, 96.390, 2065.0, 45.4423
33.054014079, 96.390, 2097.0, 45.7930
33.080274644, 96.390, 2128.0, 46.1303
33.106535209, 96.390, 2093.0, 45.7493
33.132795775, 96.390, 2070.0, 45.4973
33.159056340, 96.390, 2080.0, 45.6070
33.185316906, 96.390, 2043.0, 45.1996
33.211577471, 96.390, 2128.0, 46.1303
33.237838036, 96.390, 2156.0, 46.4327
33.264098602, 96.390, 2034.0, 45.0999
33.290359167, 96.390, 2075.0, 45.5522
33.316619732, 96.390, 2086.0, 45.6727
33.342880298, 96.390, 2169.0, 46.5725
33.369140863, 96.390, 2092.0, 45.7384
33.395401428, 96.390, 2074.0, 45.5412
33.421661994, 96.390, 2178.0, 46.6690
33.447922559, 96.390, 2155.0, 46.4220
33.474183124, 96.390, 2057.0, 45.3542
33.500443690, 96.390, 2168.0, 46.5618
33.526704255, 96.390, 2026.0, 45.0111
33.552964820, 96.390, 2090.0, 45.7165
33.579225386, 96.390, 2061.0, 45.3982
33.605485951, 96.390, 2152.0, 46.3897
33.631746517, 96.390, 2128.0, 46.1303
33.658007082, 96.390, 2157.0, 46.4435
33.684267647, 96.390, 2159.0, 46.4650
33.710528213, 96.390, 2117.0, 46.0109
33.736788778, 96.390, 2113.0, 45.9674
33.763049343, 96.390, 2113.0, 45.9674
33.789309909, 96.390, 2146.0, 46.3249
33.815570474, 96.390, 2083.0, 45.6399
33.841831039, 96.390, 2160.0, 46.4758
33.868091605, 96.390, 2205.0, 46.9574
33.894352170, 96.390, 2054.0, 45.3211
33.920612735, 96.390, 2280.0, 47.7493
33.946873301, 96.390, 2214.0, 47.0532
33.973133866, 96.390, 2184.0, 46.7333
33.999394432, 96.390, 2264.0, 47.5815
34.025654997, 96.390, 2287.0, 47.8226
34.051915562, 96.390, 2243.0, 47.3603
34.078176128, 96.390, 2292.0, 47.8748
34.104436693, 96.390, 2283.0, 47.7807
34.130697258, 96.390, 2226.0, 47.1805
34.156957824, 96.390, 2290.0, 47.8539
34.183218389, 96.390, 2272.0, 47.6655
34.209478954, 96.390, 2203.0, 46.9361
34.235739520, 96.390, 2274.0, 47.6865
34.262000085, 96.390, 2341.0, 48.3839
34.288260650, 96.390, 2278.0, 47.7284
34.314521216, 96.390, 2274.0, 47.6865
34.340781781, 96.390, 2316.0, 48.1248
34.367042346, 96.390, 2297.0, 47.9270
34.393302912, 96.390, 2285.0, 47.8017
34.419563477, 96.390, 2321.0, 48.1768
34.445824043, 96.390, 2288.0, 47.8330
34.472084608, 96.390, 2371.0, 48.6929
34.498345173, 96.390, 2372.0, 48.7032
34.524605739, 96.390, 2417.0, 49.1630
34.550866304, 96.390, 2331.0, 48.2804
34.577126869, 96.390, 2373.0, 48.7134
34.603387435, 96.390, 2246.0, 47.3920
34.629648000, 96.390, 2358.0, 48.5592
34.655908565, 96.390, 2358.0, 48.5592
34.682169131, 96.390, 2358.0, 48.5592
34.708429696, 96.390, 2360.0, 48.5798
34.734690261, 96.390, 2333.0, 48.3011
34.760950827, 96.390, 2341.0, 48.3839
34.787211392, 96.390, 2302.0, 47.9792
34.813471958, 96.390, 2395.0, 48.9387
34.839732523, 96.390, 2399.0, 48.9796
34.865993088, 96.390, 2309.0, 48.0521
34.892253654, 96.390, 2343.0, 48.4045
34.918514219, 96.390, 2393.0, 48.9183
34.944774784, 96.390, 2454.0, 49.5379
34.971035350, 96.390, 2336.0, 48.3322
34.997295915, 96.390, 2379.0, 48.7750
35.023556480, 96.390, 2383.0, 48.8160
35.049817046, 96.390, 2278.0, 47.7284
35.076077611, 96.390, 2347.0, 48.4458
35.102338176, 96.390, 2356.0, 48.5386
35.128598742, 96.390, 2325.0, 48.2183
35.154859307, 96.390, 2344.0, 48.4149
35.181119872, 96.390, 2183.0, 46.7226
35.207380438, 96.390, 2323.0, 48.1975
35.233641003, 96.390, 2324.0, 48.2079
35.259901569, 96.390, 2256.0, 47.4974
35.286162134, 96.390, 2298.0, 47.9375
35.312422699, 96.390, 2273.0, 47.6760
35.338683265, 96.390, 2334.0, 48.3115
35.364943830, 96.390, 2313.0, 48.0937
35.391204395, 96.390, 2298.0, 47.9375
35.417464961, 96.390, 2302.0, 47.9792
35.443725526, 96.390, 2338.0, 48.3529
35.469986091, 96.390, 2237.0, 47.2969
35.496246657, 96.390, 2306.0, 48.0208
35.522507222, 96.390, 2261.0, 47.5500
35.548767787, 96.390, 2328.0, 48.2494
35.575028353, 96.390, 2248.0, 47.4131
35.601288918, 96.390, 2209.0, 47.0000
35.627549484, 96.390, 2273.0, 47.6760
35.653810049, 96.390, 2194.0, 46.8402
35.680070614, 96.390, 2209.0, 47.0000
35.706331180, 96.390, 2262.0, 47.5605
35.732591745, 96.390, 2274.0, 47.6865
35.758852310, 96.390, 2211.0, 47.0213
35.785112876, 96.390, 2242.0, 47.3498
35.811373441, 96.390, 2243.0, 47.3603
35.837634006, 96.390, 2188.0, 46.7761
35.863894572, 96.390, 2267.0, 47.6130
35.890155137, 96.390, 2202.0, 46.9255
35.916415702, 96.390, 2246.0, 47.3920
35.942676268, 96.390, 2259.0, 47.5289
35.968936833, 96.390, 2157.0, 46.4435
35.995197398, 96.390, 2146.0, 46.3249
36.021457964, 96.390, 2238.0, 47.3075
36.047718529, 96.390, 2136.0, 46.2169
36.073979095, 96.390, 2155.0, 46.4220
36.100239660, 96.390, 2127.0, 46.1194
36.126500225, 96.390, 2151.0, 46.3789
36.152760791, 96.390, 2087.0, 45.6837
36.179021356, 96.390, 2009.0, 44.8219
36.205281921, 96.390, 2073.0, 45.5302
36.231542487, 96.390, 2051.0, 45.2880
36.257803052, 96.390, 2155.0, 46.4220
36.284063617, 96.390, 2149.0, 46.3573
36.310324183, 96.390, 2109.0, 45.9239
36.336584748, 96.390, 2142.0, 46.2817
36.362845313, 96.390, 2108.0, 45.9130
36.389105879, 96.390, 2072.0, 45.5192
36.415366444, 96.390, 2005.0, 44.7772
36.441627010, 96.390, 2043.0, 45.1996
36.467887575, 96.390, 2005.0, 44.7772
36.494148140, 96.390, 2014.0, 44.8776
36.520408706, 96.390, 2037.0, 45.1331
36.546669271, 96.390, 2003.0, 44.7549
36.572929836, 96.390, 1912.0, 43.7264
36.599190402, 96.390, 1993.0, 44.6430
36.625450967, 96.390, 2065.0, 45.4423
36.651711532, 96.390, 2013.0, 44.8665
36.677972098, 96.390, 1967.0, 44.3509
36.704232663, 96.390, 2060.0, 45.3872
36.730493228, 96.390, 1943.0, 44.0795
36.756753794, 96.390, 1999.0, 44.7102
36.783014359, 96.390, 2028.0, 45.0333
36.809274924, 96.390, 1947.0, 44.1248
36.835535490, 96.390, 1909.0, 43.6921
36.861796055, 96.390, 1899.0, 43.5775
36.888056621, 96.390, 1953.0, 44.1928
36.914317186, 96.390, 1896.0, 43.5431
36.940577751, 96.390, 1975.0, 44.4410
36.966838317, 96.390, 1979.0, 44.4860
36.993098882, 96.390, 1959.0, 44.2606
37.019359447, 96.390, 1889.0, 43.4626
37.045620013, 96.390, 1903.0, 43.6234
37.071880578, 96.390, 1978.0, 44.4747
37.098141143, 96.390, 1833.0, 42.8135
37.124401709, 96.390, 1989.0, 44.5982
37.150662274, 96.390, 1859.0, 43.1161
37.176922839, 96.390, 1967.0, 44.3509
37.203183405, 96.390, 1883.0, 43.3935
37.229443970, 96.390, 1907.0, 43.6692
37.255704535, 96.390, 1900.0, 43.5890
37.281965101, 96.390, 1920.0, 43.8178
37.308225666, 96.390, 1851.0, 43.0232
37.334486232, 96.390, 1911.0, 43.7150
37.360746797, 96.390, 1896.0, 43.5431
37.387007362, 96.390, 1956.0, 44.2267
37.413267928, 96.390, 1803.0, 42.4617
37.439528493, 96.390, 1869.0, 43.2319
37.465789058, 96.390, 1830.0, 42.7785
37.492049624, 96.390, 1843.0, 42.9302
37.518310189, 96.390, 1907.0, 43.6692
37.544570754, 96.390, 1821.0, 42.6732
37.570831320, 96.390, 1872.0, 43.2666
37.597091885, 96.390, 1751.0, 41.8450
37.623352450, 96.390, 1762.0, 41.9762
37.649613016, 96.390, 1831.0, 42.7902
37.675873581, 96.390, 1863.0, 43.1625
37.702134147, 96.390, 1702.0, 41.2553
37.728394712, 96.390, 1812.0, 42.5676
37.754655277, 96.390, 1832.0, 42.8019
37.780915843, 96.390, 1833.0, 42.8135
37.807176408, 96.390, 1800.0, 42.4264
37.833436973, 96.390, 1827.0, 42.7434
37.859697539, 96.390, 1830.0, 42.7785
37.885958104, 96.390, 1772.0, 42.0951
37.912218669, 96.390, 1864.0, 43.1741
37.938479235, 96.390, 1765.0, 42.0119
37.964739800, 96.390, 1776.0, 42.1426
37.991000365, 96.390, 1690.0, 41.1096
38.017260931, 96.390, 1798.0, 42.4028
38.043521496, 96.390, 1798.0, 42.4028
38.069782061, 96.390, 1688.0, 41.0853
38.096042627, 96.390, 1757.0, 41.9166
38.122303192, 96.390, 1735.0, 41.6533
38.148563758, 96.390, 1753.0, 41.8688
38.174824323, 96.390, 1688.0, 41.0853
38.201084888, 96.390, 1617.0, 40.2119
38.227345454, 96.390, 1772.0, 42.0951
38.253606019, 96.390, 1740.0, 41.7133
38.279866584, 96.390, 1727.0, 41.5572
38.306127150, 96.390, 1817.0, 42.6263
38.332387715, 96.390, 1712.0, 41.3763
38.358648280, 96.390, 1745.0, 41.7732
38.384908846, 96.390, 1726.0, 41.5452
38.411169411, 96.390, 1680.0, 40.9878
38.437429976, 96.390, 1684.0, 41.0366
38.463690542, 96.390, 1762.0, 41.9762
38.489951107, 96.390, 1689.0, 41.0974
38.516211673, 96.390, 1724.0, 41.5211
38.542472238, 96.390, 1665.0, 40.8044
38.568732803, 96.390, 1672.0, 40.8901
38.594993369, 96.390, 1743.0, 41.7493
38.621253934, 96.390, 1690.0, 41.1096
38.647514499, 96.390, 1657.0, 40.7063
38.673775065, 96.390, 1695.0, 41.1704
38.700035630, 96.390, 1653.0, 40.6571
38.726296195, 96.390, 1634.0, 40.4228
38.752556761, 96.390, 1625.0, 40.3113
38.778817326, 96.390, 1687.0, 41.0731
38.805077891, 96.390, 1744.0, 41.7612
38.831338457, 96.390, 1620.0, 40.2492
38.857599022, 96.390, 1616.0, 40.1995
38.883859587, 96.390, 1754.0, 41.8808
38.910120153, 96.390, 1703.0, 41.2674
38.936380718, 96.390, 1641.0, 40.5093
38.962641284, 96.390, 1665.0, 40.8044
38.988901849, 96.390, 1658.0, 40.7185
39.015162414, 96.390, 1539.0, 39.2301
39.041422980, 96.390, 1642.0, 40.5216
39.067683545, 96.390, 1598.0, 39.9750
39.093944110, 96.390, 1570.0, 39.6232
39.120204676, 96.390, 1654.0, 40.6694
39.146465241, 96.390, 1616.0, 40.1995
39.172725806, 96.390, 1527.0, 39.0768
39.198986372, 96.390, 1583.0, 39.7869
39.225246937, 96.390, 1642.0, 40.5216
39.251507502, 96.390, 1587.0, 39.8372
39.277768068, 96.390, 1614.0, 40.1746
39.304028633, 96.390, 1629.0, 40.3609
39.330289199, 96.390, 1634.0, 40.4228
39.356549764, 96.390, 1610.0, 40.1248
39.382810329, 96.390, 1564.0, 39.5474
39.409070895, 96.390, 1651.0, 40.6325
39.435331460, 96.390, 1569.0, 39.6106
39.461592025, 96.390, 1597.0, 39.9625
39.487852591, 96.390, 1572.0, 39.6485
39.514113156, 96.390, 1584.0, 39.7995
39.540373721, 96.390, 1563.0, 39.5348
39.566634287, 96.390, 1571.0, 39.6358
39.592894852, 96.390, 1510.0, 38.8587
39.619155417, 96.390, 1616.0, 40.1995
39.645415983, 96.390, 1534.0, 39.1663
39.671676548, 96.390, 1525.0, 39.0512
39.697937113, 96.390, 1488.0, 38.5746
39.724197679, 96.390, 1556.0, 39.4462
39.750458244, 96.390, 1546.0, 39.3192
39.776718810, 96.390, 1451.0, 38.0920
39.802979375, 96.390, 1502.0, 38.7556
39.829239940, 96.390, 1548.0, 39.3446
39.855500506, 96.390, 1581.0, 39.7618
39.881761071, 96.390, 1536.0, 39.1918
39.908021636, 96.390, 1533.0, 39.1535
39.934282202, 96.390, 1483.0, 38.5097
39.960542767, 96.390, 1561.0, 39.5095
39.986803332, 96.390, 1563.0, 39.5348
40.013063898, 96.390, 1572.0, 39.6485
40.039324463, 96.390, 1504.0, 38.7814
40.065585028, 96.390, 1549.0, 39.3573
40.091845594, 96.390, 1452.0, 38.1051
40.118106159, 96.390, 1488.0, 38.5746
40.144366725, 96.390, 1526.0, 39.0640
40.170627290, 96.390, 1450.0, 38.0789
40.196887855, 96.390, 1575.0, 39.6863
40.223148421, 96.390, 1573.0, 39.6611
40.249408986, 96.390, 1517.0, 38.9487
40.275669551, 96.390, 1538.0, 39.2173
40.301930117, 96.390, 1453.0, 38.1182
40.328190682, 96.390, 1462.0, 38.2361
40.354451247, 96.390, 1459.0, 38.1969
40.380711813, 96.390, 1472.0, 38.3667
40.406972378, 96.390, 1462.0, 38.2361
40.433232943, 96.390, 1404.0, 37.4700
40.459493509, 96.390, 1436.0, 37.8946
40.485754074, 96.390, 1466.0, 38.2884
40.512014639, 96.390, 1474.0, 38.3927
40.538275205, 96.390, 1472.0, 38.3667
40.564535770, 96.390, 1411.0, 37.5633
40.590796336, 96.390, 1504.0, 38.7814
40.617056901, 96.390, 1404.0, 37.4700
40.643317466, 96.390, 1442.0, 37.9737
40.669578032, 96.390, 1424.0, 37.7359
40.695838597, 96.390, 1539.0, 39.2301
40.722099162, 96.390, 1472.0, 38.3667
40.748359728, 96.390, 1408.0, 37.5233
40.774620293, 96.390, 1409.0, 37.5366
40.800880858, 96.390, 1385.0, 37.2156
40.827141424, 96.390, 1425.0, 37.7492
40.853401989, 96.390, 1444.0, 38.0000
40.879662554, 96.390, 1441.0, 37.9605
40.905923120, 96.390, 1406.0, 37.4967
40.932183685, 96.390, 1463.0, 38.2492
40.958444251, 96.390, 1458.0, 38.1838
40.984704816, 96.390, 1397.0, 37.3765
41.010965381, 96.390, 1411.0, 37.5633
41.037225947, 96.390, 1341.0, 36.6197
41.063486512, 96.390, 1374.0, 37.0675
41.089747077, 96.390, 1370.0, 37.0135
41.116007643, 96.390, 1355.0, 36.8103
41.142268208, 96.390, 1363.0, 36.9188
41.168528773, 96.390, 1377.0, 37.1080
41.194789339, 96.390, 1448.0, 38.0526
41.221049904, 96.390, 1370.0, 37.0135
41.247310469, 96.390, 1404.0, 37.4700
41.273571035, 96.390, 1394.0, 37.3363
41.299831600, 96.390, 1408.0, 37.5233
41.326092165, 96.390, 1457.0, 38.1707
41.352352731, 96.390, 1322.0, 36.3593
41.378613296, 96.390, 1481.0, 38.4838
41.404873862, 96.390, 1428.0, 37.7889
41.431134427, 96.390, 1392.0, 37.3095
41.457394992, 96.390, 1430.0, 37.8153
41.483655558, 96.390, 1424.0, 37.7359
41.509916123, 96.390, 1403.0, 37.4566
41.536176688, 96.390, 1350.0, 36.7423
41.562437254, 96.390, 1362.0, 36.9053
41.588697819, 96.390, 1389.0, 37.2693
41.614958384, 96.390, 1379.0, 37.1349
41.641218950, 96.390, 1419.0, 37.6696
41.667479515, 96.390, 1402.0, 37.4433
41.693740080, 96.390, 1378.0, 37.1214
41.720000646, 96.390, 1388.0, 37.2559
41.746261211, 96.390, 1380.0, 37.1484
41.772521776, 96.390, 1383.0, 37.1887
41.798782342, 96.390, 1398.0, 37.3898
41.825042907, 96.390, 1367.0, 36.9730
41.851303473, 96.390, 1313.0, 36.2353
41.877564038, 96.390, 1359.0, 36.8646
41.903824603, 96.390, 1367.0, 36.9730
41.930085169, 96.390, 1338.0, 36.5787
41.956345734, 96.390, 1349.0, 36.7287
41.982606299, 96.390, 1360.0, 36.8782
42.008866865, 96.390, 1299.0, 36.0416
42.035127430, 96.390, 1404.0, 37.4700
42.061387995, 96.390, 1342.0, 36.6333
42.087648561, 96.390, 1341.0, 36.6197
42.113909126, 96.390, 1382.0, 37.1753
42.140169691, 96.390, 1441.0, 37.9605
42.166430257, 96.390, 1404.0, 37.4700
42.192690822, 96.390, 1396.0, 37.3631
42.218951388, 96.390, 1354.0, 36.7967
42.245211953, 96.390, 1384.0, 37.2022
42.271472518, 96.390, 1366.0, 36.9594
42.297733084, 96.390, 1354.0, 36.7967
42.323993649, 96.390, 1283.0, 35.8190
42.350254214, 96.390, 1415.0, 37.6165
42.376514780, 96.390, 1393.0, 37.3229
42.402775345, 96.390, 1373.0, 37.0540
42.429035910, 96.390, 1318.0, 36.3043
42.455296476, 96.390, 1381.0, 37.1618
42.481557041, 96.390, 1420.0, 37.6829
42.507817606, 96.390, 1309.0, 36.1801
42.534078172, 96.390, 1357.0, 36.8375
42.560338737, 96.390, 1313.0, 36.2353
42.586599302, 96.390, 1375.0, 37.0810
42.612859868, 96.390, 1416.0, 37.6298
42.639120433, 96.390, 1245.0, 35.2846
42.665380999, 96.390, 1382.0, 37.1753
42.691641564, 96.390, 1311.0, 36.2077
42.717902129, 96.390, 1369.0, 37.0000
42.744162695, 96.390, 1286.0, 35.8608
42.770423260, 96.390, 1345.0, 36.6742
42.796683825, 96.390, 1330.0, 36.4692
42.822944391, 96.390, 1358.0, 36.8511
42.849204956, 96.390, 1328.0, 36.4417
42.875465521, 96.390, 1351.0, 36.7560
42.901726087, 96.390, 1357.0, 36.8375
42.927986652, 96.390, 1354.0, 36.7967
42.954247217, 96.390, 1402.0, 37.4433
42.980507783, 96.390, 1441.0, 37.9605
43.006768348, 96.390, 1313.0, 36.2353
43.033028914, 96.390, 1381.0, 37.1618
43.059289479, 96.390, 1341.0, 36.6197
43.085550044, 96.390, 1293.0, 35.9583
43.111810610, 96.390, 1396.0, 37.3631
43.138071175, 96.390, 1310.0, 36.1939
43.164331740, 96.390, 1315.0, 36.2629
43.190592306, 96.390, 1375.0, 37.0810
43.216852871, 96.390, 1324.0, 36.3868
43.243113436, 96.390, 1356.0, 36.8239
43.269374002, 96.390, 1395.0, 37.3497
43.295634567, 96.390, 1343.0, 36.6470
43.321895132, 96.390, 1362.0, 36.9053
43.348155698, 96.390, 1357.0, 36.8375
43.374416263, 96.390, 1329.0, 36.4555
43.400676828, 96.390, 1369.0, 37.0000
43.426937394, 96.390, 1302.0, 36.0832
43.453197959, 96.390, 1341.0, 36.6197
43.479458525, 96.390, 1323.0, 36.3731
43.505719090, 96.390, 1380.0, 37.1484
43.531979655, 96.390, 1347.0, 36.7015
43.558240221, 96.390, 1336.0, 36.5513
43.584500786, 96.390, 1431.0, 37.8286
43.610761351, 96.390, 1280.0, 35.7771
43.637021917, 96.390, 1382.0, 37.1753
43.663282482, 96.390, 1386.0, 37.2290
43.689543047, 96.390, 1341.0, 36.6197
43.715803613, 96.390, 1421.0, 37.6962
43.742064178, 96.390, 1442.0, 37.9737
43.768324743, 96.390, 1357.0, 36.8375
43.794585309, 96.390, 1333.0, 36.5103
43.820845874, 96.390, 1338.0, 36.5787
43.847106440, 96.390, 1491.0, 38.6135
43.873367005, 96.390, 1362.0, 36.9053
43.899627570, 96.390, 1366.0, 36.9594
43.925888136, 96.390, 1346.0, 36.6879
43.952148701, 96.390, 1437.0, 37.9078
43.978409266, 96.390, 1417.0, 37.6431
44.004669832, 96.390, 1411.0, 37.5633
44.030930397, 96.390, 1362.0, 36.9053
44.057190962, 96.390, 1348.0, 36.7151
44.083451528, 96.390, 1372.0, 37.0405
44.109712093, 96.390, 1353.0, 36.7831
44.135972658, 96.390, 1362.0, 36.9053
44.162233224, 96.390, 1339.0, 36.5923
44.188493789, 96.390, 1364.0, 36.9324
44.214754354, 96.390, 1371.0, 37.0270
44.241014920, 96.390, 1387.0, 37.2424
44.267275485, 96.390, 1354.0, 36.7967
44.293536051, 96.390, 1361.0, 36.8917
44.319796616, 96.390, 1419.0, 37.6696
44.346057181, 96.390, 1374.0, 37.0675
44.372317747, 96.390, 1432.0, 37.8418
44.398578312, 96.390, 1419.0, 37.6696
44.424838877, 96.390, 1325.0, 36.4005
44.451099443, 96.390, 1441.0, 37.9605
44.477360008, 96.390, 1387.0, 37.2424
44.503620573, 96.390, 1414.0, 37.6032
44.529881139, 96.390, 1290.0, 35.9166
44.556141704, 96.390, 1357.0, 36.8375
44.582402269, 96.390, 1403.0, 37.4566
44.608662835, 96.390, 1410.0, 37.5500
44.634923400, 96.390, 1283.0, 35.8190
44.661183966, 96.390, 1330.0, 36.4692
44.687444531, 96.390, 1388.0, 37.2559
44.713705096, 96.390, 1434.0, 37.8682
44.739965662, 96.390, 1374.0, 37.0675
44.766226227, 96.390, 1367.0, 36.9730
44.792486792, 96.390, 1396.0, 37.3631
44.818747358, 96.390, 1387.0, 37.2424
44.845007923, 96.390, 1396.0, 37.3631
44.871268488, 96.390, 1418.0, 37.6563
44.897529054, 96.390, 1368.0, 36.9865
44.923789619, 96.390, 1386.0, 37.2290
44.950050184, 96.390, 1401.0, 37.4299
44.976310750, 96.390, 1405.0, 37.4833
45.002571315, 96.390, 1363.0, 36.9188
45.028831880, 96.390, 1375.0, 37.0810
45.055092446, 96.390, 1407.0, 37.5100
45.081353011, 96.390, 1405.0, 37.4833
45.107613577, 96.390, 1358.0, 36.8511
45.133874142, 96.390, 1342.0, 36.6333
45.160134707, 96.390, 1455.0, 38.1445
45.186395273, 96.390, 1411.0, 37.5633
45.212655838, 96.390, 1398.0, 37.3898
45.238916403, 96.390, 1341.0, 36.6197
45.265176969, 96.390, 1382.0, 37.1753
45.291437534, 96.390, 1338.0, 36.5787
45.317698099, 96.390, 1427.0, 37.7757
45.343958665, 96.390, 1426.0, 37.7624
45.370219230, 96.390, 1336.0, 36.5513
45.396479795, 96.390, 1456.0, 38.1576
45.422740361, 96.390, 1401.0, 37.4299
45.449000926, 96.390, 1453.0, 38.1182
45.475261492, 96.390, 1374.0, 37.0675
45.501522057, 96.390, 1426.0, 37.7624
45.527782622, 96.390, 1452.0, 38.1051
45.554043188, 96.390, 1384.0, 37.2022
45.580303753, 96.390, 1452.0, 38.1051
45.606564318, 96.390, 1354.0, 36.7967
45.632824884, 96.390, 1328.0, 36.4417
45.659085449, 96.390, 1421.0, 37.6962
45.685346014, 96.390, 1426.0, 37.7624
45.711606580, 96.390, 1354.0, 36.7967
45.737867145, 96.390, 1311.0, 36.2077
45.764127710, 96.390, 1332.0, 36.4966
45.790388276, 96.390, 1372.0, 37.0405
45.816648841, 96.390, 1421.0, 37.6962
45.842909406, 96.390, 1368.0, 36.9865
45.869169972, 96.390, 1411.0, 37.5633
45.895430537, 96.390, 1351.0, 36.7560
45.921691103, 96.390, 1407.0, 37.5100
45.947951668, 96.390, 1365.0, 36.9459
45.974212233, 96.390, 1442.0, 37.9737
46.000472799, 96.390, 1409.0, 37.5366
46.026733364, 96.390, 1386.0, 37.2290
46.052993929, 96.390, 1328.0, 36.4417
46.079254495, 96.390, 1333.0, 36.5103
46.105515060, 96.390, 1471.0, 38.3536
46.131775625, 96.390, 1365.0, 36.9459
46.158036191, 96.390, 1370.0, 37.0135
46.184296756, 96.390, 1410.0, 37.5500
46.210557321, 96.390, 1350.0, 36.7423
46.236817887, 96.390, 1337.0, 36.5650
46.263078452, 96.390, 1412.0, 37.5766
46.289339017, 96.390, 1360.0, 36.8782
46.315599583, 96.390, 1390.0, 37.2827
46.341860148, 96.390, 1312.0, 36.2215
46.368120714, 96.390, 1403.0, 37.4566
46.394381279, 96.390, 1403.0, 37.4566
46.420641844, 96.390, 1359.0, 36.8646
46.446902410, 96.390, 1365.0, 36.9459
46.473162975, 96.390, 1338.0, 36.5787
46.499423540, 96.390, 1367.0, 36.9730
46.525684106, 96.390, 1363.0, 36.9188
46.551944671, 96.390, 1333.0, 36.5103
46.578205236, 96.390, 1352.0, 36.7696
46.604465802, 96.390, 1317.0, 36.2905
46.630726367, 96.390, 1299.0, 36.0416
46.656986932, 96.390, 1302.0, 36.0832
46.683247498, 96.390, 1432.0, 37.8418
46.709508063, 96.390, 1361.0, 36.8917
46.735768629, 96.390, 1340.0, 36.6060
46.762029194, 96.390, 1282.0, 35.8050
46.788289759, 96.390, 1349.0, 36.7287
46.814550325, 96.390, 1367.0, 36.9730
46.840810890, 96.390, 1345.0, 36.6742
46.867071455, 96.390, 1367.0, 36.9730
46.893332021, 96.390, 1339.0, 36.5923
46.919592586, 96.390, 1330.0, 36.4692
46.945853151, 96.390, 1379.0, 37.1349
46.972113717, 96.390, 1429.0, 37.8021
46.998374282, 96.390, 1367.0, 36.9730
47.024634847, 96.390, 1379.0, 37.1349
47.050895413, 96.390, 1325.0, 36.4005
47.077155978, 96.390, 1396.0, 37.3631
47.103416543, 96.390, 1316.0, 36.2767
47.129677109, 96.390, 1292.0, 35.9444
47.155937674, 96.390, 1365.0, 36.9459
47.182198240, 96.390, 1342.0, 36.6333
47.208458805, 96.390, 1330.0, 36.4692
47.234719370, 96.390, 1336.0, 36.5513
47.260979936, 96.390, 1335.0, 36.5377
47.287240501, 96.390, 1334.0, 36.5240
47.313501066, 96.390, 1307.0, 36.1525
47.339761632, 96.390, 1351.0, 36.7560
47.366022197, 96.390, 1347.0, 36.7015
47.392282762, 96.390, 1344.0, 36.6606
47.418543328, 96.390, 1318.0, 36.3043
47.444803893, 96.390, 1331.0, 36.4829
47.471064458, 96.390, 1343.0, 36.6470
47.497325024, 96.390, 1268.0, 35.6090
47.523585589, 96.390, 1290.0, 35.9166
47.549846155, 96.390, 1272.0, 35.6651
47.576106720, 96.390, 1289.0, 35.9026
47.602367285, 96.390, 1339.0, 36.5923
47.628627851, 96.390, 1252.0, 35.3836
47.654888416, 96.390, 1276.0, 35.7211
47.681148981, 96.390, 1314.0, 36.2491
47.707409547, 96.390, 1248.0, 35.3270
47.733670112, 96.390, 1263.0, 35.5387
47.759930677, 96.390, 1253.0, 35.3977
47.786191243, 96.390, 1250.0, 35.3553
47.812451808, 96.390, 1342.0, 36.6333
47.838712373, 96.390, 1237.0, 35.1710
47.864972939, 96.390, 1234.0, 35.1283
47.891233504, 96.390, 1312.0, 36.2215
47.917494069, 96.390, 1244.0, 35.2704
47.943754635, 96.390, 1247.0, 35.3129
47.970015200, 96.390, 1283.0, 35.8190
47.996275766, 96.390, 1255.0, 35.4260
48.022536331, 96.390, 1303.0, 36.0971
48.048796896, 96.390, 1269.0, 35.6230
48.075057462, 96.390, 1254.0, 35.4119
48.101318027, 96.390, 1237.0, 35.1710
48.127578592, 96.390, 1304.0, 36.1109
48.153839158, 96.390, 1219.0, 34.9142
48.180099723, 96.390, 1269.0, 35.6230
48.206360288, 96.390, 1228.0, 35.0428
48.232620854, 96.390, 1269.0, 35.6230
48.258881419, 96.390, 1328.0, 36.4417
48.285141984, 96.390, 1308.0, 36.1663
48.311402550, 96.390, 1190.0, 34.4964
48.337663115, 96.390, 1222.0, 34.9571
48.363923681, 96.390, 1262.0, 35.5246
48.390184246, 96.390, 1301.0, 36.0694
48.416444811, 96.390, 1199.0, 34.6266
48.442705377, 96.390, 1267.0, 35.5949
48.468965942, 96.390, 1229.0, 35.0571
48.495226507, 96.390, 1259.0, 35.4824
48.521487073, 96.390, 1222.0, 34.9571
48.547747638, 96.390, 1250.0, 35.3553
48.574008203, 96.390, 1307.0, 36.1525
48.600268769, 96.390, 1263.0, 35.5387
48.626529334, 96.390, 1304.0, 36.1109
48.652789899, 96.390, 1214.0, 34.8425
48.679050465, 96.390, 1221.0, 34.9428
48.705311030, 96.390, 1206.0, 34.7275
48.731571595, 96.390, 1247.0, 35.3129
48.757832161, 96.390, 1243.0, 35.2562
48.784092726, 96.390, 1274.0, 35.6931
48.810353292, 96.390, 1271.0, 35.6511
48.836613857, 96.390, 1255.0, 35.4260
48.862874422, 96.390, 1235.0, 35.1426
48.889134988, 96.390, 1208.0, 34.7563
48.915395553, 96.390, 1229.0, 35.0571
48.941656118, 96.390, 1226.0, 35.0143
48.967916684, 96.390, 1224.0, 34.9857
48.994177249, 96.390, 1243.0, 35.2562
49.020437814, 96.390, 1184.0, 34.4093
49.046698380, 96.390, 1208.0, 34.7563
49.072958945, 96.390, 1226.0, 35.0143
49.099219510, 96.390, 1300.0, 36.0555
49.125480076, 96.390, 1279.0, 35.7631
49.151740641, 96.390, 1231.0, 35.0856
49.178001207, 96.390, 1223.0, 34.9714
49.204261772, 96.390, 1239.0, 35.1994
49.230522337, 96.390, 1214.0, 34.8425
49.256782903, 96.390, 1197.0, 34.5977
49.283043468, 96.390, 1194.0, 34.5543
49.309304033, 96.390, 1173.0, 34.2491
49.335564599, 96.390, 1203.0, 34.6843
49.361825164, 96.390, 1210.0, 34.7851
49.388085729, 96.390, 1313.0, 36.2353
49.414346295, 96.390, 1255.0, 35.4260
49.440606860, 96.390, 1218.0, 34.8999
49.466867425, 96.390, 1212.0, 34.8138
49.493127991, 96.390, 1197.0, 34.5977
49.519388556, 96.390, 1221.0, 34.9428
49.545649121, 96.390, 1219.0, 34.9142
49.571909687, 96.390, 1173.0, 34.2491
49.598170252, 96.390, 1233.0, 35.1141
49.624430818, 96.390, 1125.0, 33.5410
49.650691383, 96.390, 1194.0, 34.5543
49.676951948, 96.390, 1153.0, 33.9559
49.703212514, 96.390, 1164.0, 34.1174
49.729473079, 96.390, 1206.0, 34.7275
49.755733644, 96.390, 1160.0, 34.0588
49.781994210, 96.390, 1240.0, 35.2136
49.808254775, 96.390, 1147.0, 33.8674
49.834515340, 96.390, 1188.0, 34.4674
49.860775906, 96.390, 1202.0, 34.6699
49.887036471, 96.390, 1170.0, 34.2053
49.913297036, 96.390, 1152.0, 33.9411
49.939557602, 96.390, 1154.0, 33.9706
49.965818167, 96.390, 1160.0, 34.0588
49.992078732, 96.390, 1190.0, 34.4964
50.018339298, 96.390, 1189.0, 34.4819
50.044599863, 96.390, 1138.0, 33.7343
50.070860429, 96.390, 1129.0, 33.6006
50.097120994, 96.390, 1152.0, 33.9411
50.123381559, 96.390, 1164.0, 34.1174
50.149642125, 96.390, 1154.0, 33.9706
50.175902690, 96.390, 1102.0, 33.1964
50.202163255, 96.390, 1168.0, 34.1760
50.228423821, 96.390, 1125.0, 33.5410
50.254684386, 96.390, 1163.0, 34.1028
50.280944951, 96.390, 1156.0, 34.0000
50.307205517, 96.390, 1157.0, 34.0147
50.333466082, 96.390, 1075.0, 32.7872
50.359726647, 96.390, 1082.0, 32.8938
50.385987213, 96.390, 1191.0, 34.5109
50.412247778, 96.390, 1164.0, 34.1174
50.438508344, 96.390, 1053.0, 32.4500
50.464768909, 96.390, 1178.0, 34.3220
50.491029474, 96.390, 1136.0, 33.7046
50.517290040, 96.390, 1092.0, 33.0454
50.543550605, 96.390, 1077.0, 32.8177
50.569811170, 96.390, 1140.0, 33.7639
50.596071736, 96.390, 1189.0, 34.4819
50.622332301, 96.390, 1051.0, 32.4191
50.648592866, 96.390, 1198.0, 34.6121
50.674853432, 96.390, 1186.0, 34.4384
50.701113997, 96.390, 1096.0, 33.1059
50.727374562, 96.390, 1113.0, 33.3617
50.753635128, 96.390, 1127.0, 33.5708
50.779895693, 96.390, 1095.0, 33.0908
50.806156258, 96.390, 1116.0, 33.4066
50.832416824, 96.390, 1144.0, 33.8231
50.858677389, 96.390, 1070.0, 32.7109
50.884937955, 96.390, 1163.0, 34.1028
50.911198520, 96.390, 1108.0, 33.2866
50.937459085, 96.390, 1157.0, 34.0147
50.963719651, 96.390, 1072.0, 32.7414
50.989980216, 96.390, 1076.0, 32.8024
51.016240781, 96.390, 1071.0, 32.7261
51.042501347, 96.390, 1108.0, 33.2866
51.068761912, 96.390, 1124.0, 33.5261
51.095022477, 96.390, 1153.0, 33.9559
51.121283043, 96.390, 1095.0, 33.0908
51.147543608, 96.390, 1064.0, 32.6190
51.173804173, 96.390, 1090.0, 33.0151
51.200064739, 96.390, 1097.0, 33.1210
51.226325304, 96.390, 1040.0, 32.2490
51.252585870, 96.390, 1206.0, 34.7275
51.278846435, 96.390, 1134.0, 33.6749
51.305107000, 96.390, 1126.0, 33.5559
51.331367566, 96.390, 1066.0, 32.6497
51.357628131, 96.390, 1094.0, 33.0757
51.383888696, 96.390, 1110.0, 33.3167
51.410149262, 96.390, 1123.0, 33.5112
51.436409827, 96.390, 1114.0, 33.3766
51.462670392, 96.390, 1085.0, 32.9393
51.488930958, 96.390, 1106.0, 33.2566
51.515191523, 96.390, 1030.0, 32.0936
51.541452088, 96.390, 1066.0, 32.6497
51.567712654, 96.390, 1051.0, 32.4191
51.593973219, 96.390, 1090.0, 33.0151
51.620233784, 96.390, 1068.0, 32.6803
51.646494350, 96.390, 1043.0, 32.2955
51.672754915, 96.390, 1041.0, 32.2645
51.699015481, 96.390, 1059.0, 32.5423
51.725276046, 96.390, 1104.0, 33.2265
51.751536611, 96.390, 1014.0, 31.8434
51.777797177, 96.390, 1064.0, 32.6190
51.804057742, 96.390, 1111.0, 33.3317
51.830318307, 96.390, 1035.0, 32.1714
51.856578873, 96.390, 1075.0, 32.7872
51.882839438, 96.390, 1034.0, 32.1559
51.909100003, 96.390, 1087.0, 32.9697
51.935360569, 96.390, 1107.0, 33.2716
51.961621134, 96.390, 1064.0, 32.6190
51.987881699, 96.390, 1082.0, 32.8938
52.014142265, 96.390, 1072.0, 32.7414
52.040402830, 96.390, 1084.0, 32.9242
52.066663396, 96.390, 1059.0, 32.5423
52.092923961, 96.390, 1104.0, 33.2265
52.119184526, 96.390, 1091.0, 33.0303
52.145445092, 96.390, 1089.0, 33.0000
52.171705657, 96.390, 1058.0, 32.5269
52.197966222, 96.390, 1139.0, 33.7491
52.224226788, 96.390, 1108.0, 33.2866
52.250487353, 96.390, 1090.0, 33.0151
52.276747918, 96.390, 1035.0, 32.1714
52.303008484, 96.390, 1037.0, 32.2025
52.329269049, 96.390, 1065.0, 32.6343
52.355529614, 96.390, 1016.0, 31.8748
52.381790180, 96.390, 993.0, 31.5119
52.408050745, 96.390, 1059.0, 32.5423
52.434311310, 96.390, 1023.0, 31.9844
52.460571876, 96.390, 1081.0, 32.8786
52.486832441, 96.390, 1030.0, 32.0936
52.513093007, 96.390, 960.0, 30.9839
52.539353572, 96.390, 1028.0, 32.0624
52.565614137, 96.390, 1081.0, 32.8786
52.591874703, 96.390, 1054.0, 32.4654
52.618135268, 96.390, 1061.0, 32.5730
52.644395833, 96.390, 1049.0, 32.3883
52.670656399, 96.390, 1080.0, 32.8634
52.696916964, 96.390, 987.0, 31.4166
52.723177529, 96.390, 1100.0, 33.1662
52.749438095, 96.390, 1082.0, 32.8938
52.775698660, 96.390, 1078.0, 32.8329
52.801959225, 96.390, 1076.0, 32.8024
52.828219791, 96.390, 1007.0, 31.7333
52.854480356, 96.390, 1064.0, 32.6190
52.880740922, 96.390, 1032.0, 32.1248
52.907001487, 96.390, 1023.0, 31.9844
52.933262052, 96.390, 1026.0, 32.0312
52.959522618, 96.390, 999.0, 31.6070
52.985783183, 96.390, 1035.0, 32.1714
53.012043748, 96.390, 1049.0, 32.3883
53.038304314, 96.390, 1003.0, 31.6702
53.064564879, 96.390, 1048.0, 32.3728
53.090825444, 96.390, 1030.0, 32.0936
53.117086010, 96.390, 973.0, 31.1929
53.143346575, 96.390, 985.0, 31.3847
53.169607140, 96.390, 977.0, 31.2570
53.195867706, 96.390, 1107.0, 33.2716
53.222128271, 96.390, 1021.0, 31.9531
53.248388836, 96.390, 999.0, 31.6070
53.274649402, 96.390, 1059.0, 32.5423
53.300909967, 96.390, 1036.0, 32.1870
53.327170533, 96.390, 1101.0, 33.1813
53.353431098, 96.390, 967.0, 31.0966
53.379691663, 96.390, 1039.0, 32.2335
53.405952229, 96.390, 987.0, 31.4166
53.432212794, 96.390, 1046.0, 32.3419
53.458473359, 96.390, 1000.0, 31.6228
53.484733925, 96.390, 1001.0, 31.6386
53.510994490, 96.390, 1036.0, 32.1870
53.537255055, 96.390, 1008.0, 31.7490
53.563515621, 96.390, 1034.0, 32.1559
53.589776186, 96.390, 988.0, 31.4325
53.616036751, 96.390, 1029.0, 32.0780
53.642297317, 96.390, 1056.0, 32.4962
53.668557882, 96.390, 1022.0, 31.9687
53.694818448, 96.390, 981.0, 31.3209
53.721079013, 96.390, 1039.0, 32.2335
53.747339578, 96.390, 994.0, 31.5278
53.773600144, 96.390, 1062.0, 32.5883
53.799860709, 96.390, 1032.0, 32.1248
53.826121274, 96.390, 1022.0, 31.9687
53.852381840, 96.390, 1009.0, 31.7648
53.878642405, 96.390, 936.0, 30.5941
53.904902970, 96.390, 1004.0, 31.6860
53.931163536, 96.390, 1005.0, 31.7017
53.957424101, 96.390, 990.0, 31.4643
53.983684666, 96.390, 1011.0, 31.7962
54.009945232, 96.390, 961.0, 31.0000
54.036205797, 96.390, 956.0, 30.9192
54.062466362, 96.390, 1001.0, 31.6386
54.088726928, 96.390, 989.0, 31.4484
54.114987493, 96.390, 1008.0, 31.7490
54.141248059, 96.390, 1002.0, 31.6544
54.167508624, 96.390, 1024.0, 32.0000
54.193769189, 96.390, 983.0, 31.3528
54.220029755, 96.390, 1022.0, 31.9687
54.246290320, 96.390, 959.0, 30.9677
54.272550885, 96.390, 1027.0, 32.0468
54.298811451, 96.390, 1002.0, 31.6544
54.325072016, 96.390, 997.0, 31.5753
54.351332581, 96.390, 1008.0, 31.7490
54.377593147, 96.390, 957.0, 30.9354
54.403853712, 96.390, 977.0, 31.2570
54.430114277, 96.390, 959.0, 30.9677
54.456374843, 96.390, 1012.0, 31.8119
54.482635408, 96.390, 1015.0, 31.8591
54.508895973, 96.390, 1011.0, 31.7962
54.535156539, 96.390, 1034.0, 32.1559
54.561417104, 96.390, 930.0, 30.4959
54.587677670, 96.390, 949.0, 30.8058
54.613938235, 96.390, 945.0, 30.7409
54.640198800, 96.390, 979.0, 31.2890
54.666459366, 96.390, 955.0, 30.9031
54.692719931, 96.390, 975.0, 31.2250
54.718980496, 96.390, 942.0, 30.6920
54.745241062, 96.390, 969.0, 31.1288
54.771501627, 96.390, 954.0, 30.8869
54.797762192, 96.390, 1004.0, 31.6860
54.824022758, 96.390, 938.0, 30.6268
54.850283323, 96.390, 984.0, 31.3688
54.876543888, 96.390, 971.0, 31.1609
54.902804454, 96.390, 966.0, 31.0805
54.929065019, 96.390, 989.0, 31.4484
54.955325585, 96.390, 1012.0, 31.8119
54.981586150, 96.390, 912.0, 30.1993
55.007846715, 96.390, 962.0, 31.0161
55.034107281, 96.390, 943.0, 30.7083
55.060367846, 96.390, 950.0, 30.8221
55.086628411, 96.390, 974.0, 31.2090
55.112888977, 96.390, 1014.0, 31.8434
55.139149542, 96.390, 962.0, 31.0161
55.165410107, 96.390, 994.0, 31.5278
55.191670673, 96.390, 959.0, 30.9677
55.217931238, 96.390, 937.0, 30.6105
55.244191803, 96.390, 960.0, 30.9839
55.270452369, 96.390, 996.0, 31.5595
55.296712934, 96.390, 971.0, 31.1609
55.322973499, 96.390, 947.0, 30.7734
55.349234065, 96.390, 907.0, 30.1164
55.375494630, 96.390, 989.0, 31.4484
55.401755196, 96.390, 940.0, 30.6594
55.428015761, 96.390, 995.0, 31.5436
55.454276326, 96.390, 904.0, 30.0666
55.480536892, 96.390, 916.0, 30.2655
55.506797457, 96.390, 927.0, 30.4467
55.533058022, 96.390, 960.0, 30.9839
55.559318588, 96.390, 947.0, 30.7734
55.585579153, 96.390, 908.0, 30.1330
55.611839718, 96.390, 915.0, 30.2490
55.638100284, 96.390, 983.0, 31.3528
55.664360849, 96.390, 948.0, 30.7896
55.690621414, 96.390, 966.0, 31.0805
55.716881980, 96.390, 971.0, 31.1609
55.743142545, 96.390, 958.0, 30.9516
55.769403111, 96.390, 953.0, 30.8707
55.795663676, 96.390, 917.0, 30.2820
55.821924241, 96.390, 906.0, 30.0998
55.848184807, 96.390, 927.0, 30.4467
55.874445372, 96.390, 928.0, 30.4631
55.900705937, 96.390, 968.0, 31.1127
55.926966503, 96.390, 944.0, 30.7246
55.953227068, 96.390, 955.0, 30.9031
55.979487633, 96.390, 901.0, 30.0167
56.005748199, 96.390, 910.0, 30.1662
56.032008764, 96.390, 918.0, 30.2985
56.058269329, 96.390, 934.0, 30.5614
56.084529895, 96.390, 950.0, 30.8221
56.110790460, 96.390, 936.0, 30.5941
56.137051025, 96.390, 902.0, 30.0333
56.163311591, 96.390, 960.0, 30.9839
56.189572156, 96.390, 934.0, 30.5614
56.215832722, 96.390, 969.0, 31.1288
56.242093287, 96.390, 920.0, 30.3315
56.268353852, 96.390, 954.0, 30.8869
56.294614418, 96.390, 957.0, 30.9354
56.320874983, 96.390, 934.0, 30.5614
56.347135548, 96.390, 1000.0, 31.6228
56.373396114, 96.390, 933.0, 30.5450
56.399656679, 96.390, 910.0, 30.1662
56.425917244, 96.390, 908.0, 30.1330
56.452177810, 96.390, 973.0, 31.1929
56.478438375, 96.390, 924.0, 30.3974
56.504698940, 96.390, 891.0, 29.8496
56.530959506, 96.390, 927.0, 30.4467
56.557220071, 96.390, 930.0, 30.4959
56.583480637, 96.390, 900.0, 30.0000
56.609741202, 96.390, 898.0, 29.9666
56.636001767, 96.390, 922.0, 30.3645
56.662262333, 96.390, 937.0, 30.6105
56.688522898, 96.390, 955.0, 30.9031
56.714783463, 96.390, 942.0, 30.6920
56.741044029, 96.390, 880.0, 29.6648
56.767304594, 96.390, 937.0, 30.6105
56.793565159, 96.390, 943.0, 30.7083
56.819825725, 96.390, 925.0, 30.4138
56.846086290, 96.390, 905.0, 30.0832
56.872346855, 96.390, 1000.0, 31.6228
56.898607421, 96.390, 910.0, 30.1662
56.924867986, 96.390, 932.0, 30.5287
56.951128551, 96.390, 963.0, 31.0322
56.977389117, 96.390, 940.0, 30.6594
57.003649682, 96.390, 885.0, 29.7489
57.029910248, 96.390, 897.0, 29.9500
57.056170813, 96.390, 993.0, 31.5119
57.082431378, 96.390, 936.0, 30.5941
57.108691944, 96.390, 887.0, 29.7825
57.134952509, 96.390, 872.0, 29.5296
57.161213074, 96.390, 890.0, 29.8329
57.187473640, 96.390, 923.0, 30.3809
57.213734205, 96.390, 948.0, 30.7896
57.239994770, 96.390, 924.0, 30.3974
57.266255336, 96.390, 905.0, 30.0832
57.292515901, 96.390, 933.0, 30.5450
57.318776466, 96.390, 905.0, 30.0832
57.345037032, 96.390, 893.0, 29.8831
57.371297597, 96.390, 937.0, 30.6105
57.397558163, 96.390, 923.0, 30.3809
57.423818728, 96.390, 940.0, 30.6594
57.450079293, 96.390, 938.0, 30.6268
57.476339859, 96.390, 913.0, 30.2159
57.502600424, 96.390, 931.0, 30.5123
57.528860989, 96.390, 923.0, 30.3809
57.555121555, 96.390, 929.0, 30.4795
57.581382120, 96.390, 907.0, 30.1164
57.607642685, 96.390, 911.0, 30.1828
57.633903251, 96.390, 925.0, 30.4138
57.660163816, 96.390, 936.0, 30.5941
57.686424381, 96.390, 893.0, 29.8831
57.712684947, 96.390, 904.0, 30.0666
57.738945512, 96.390, 899.0, 29.9833
57.765206077, 96.390, 895.0, 29.9166
57.791466643, 96.390, 925.0, 30.4138
57.817727208, 96.390, 873.0, 29.5466
57.843987774, 96.390, 886.0, 29.7658
57.870248339, 96.390, 911.0, 30.1828
57.896508904, 96.390, 918.0, 30.2985
57.922769470, 96.390, 952.0, 30.8545
57.949030035, 96.390, 950.0, 30.8221
57.975290600, 96.390, 870.0, 29.4958
58.001551166, 96.390, 902.0, 30.0333
58.027811731, 96.390, 935.0, 30.5778
58.054072296, 96.390, 983.0, 31.3528
58.080332862, 96.390, 905.0, 30.0832
58.106593427, 96.390, 906.0, 30.0998
58.132853992, 96.390, 923.0, 30.3809
58.159114558, 96.390, 938.0, 30.6268
58.185375123, 96.390, 901.0, 30.0167
58.211635689, 96.390, 910.0, 30.1662
58.237896254, 96.390, 913.0, 30.2159
58.264156819, 96.390, 894.0, 29.8998
58.290417385, 96.390, 931.0, 30.5123
58.316677950, 96.390, 969.0, 31.1288
58.342938515, 96.390, 894.0, 29.8998
58.369199081, 96.390, 927.0, 30.4467
58.395459646, 96.390, 954.0, 30.8869
58.421720211, 96.390, 846.0, 29.0861
58.447980777, 96.390, 943.0, 30.7083
58.474241342, 96.390, 919.0, 30.3150
58.500501907, 96.390, 888.0, 29.7993
58.526762473, 96.390, 970.0, 31.1448
58.553023038, 96.390, 945.0, 30.7409
58.579283603, 96.390, 881.0, 29.6816
58.605544169, 96.390, 907.0, 30.1164
58.631804734, 96.390, 885.0, 29.7489
58.658065300, 96.390, 944.0, 30.7246
58.684325865, 96.390, 935.0, 30.5778
58.710586430, 96.390, 933.0, 30.5450
58.736846996, 96.390, 884.0, 29.7321
58.763107561, 96.390, 921.0, 30.3480
58.789368126, 96.390, 923.0, 30.3809
58.815628692, 96.390, 947.0, 30.7734
58.841889257, 96.390, 891.0, 29.8496
58.868149822, 96.390, 920.0, 30.3315
58.894410388, 96.390, 933.0, 30.5450
58.920670953, 96.390, 993.0, 31.5119
58.946931518, 96.390, 942.0, 30.6920
58.973192084, 96.390, 861.0, 29.3428
58.999452649, 96.390, 903.0, 30.0500
59.025713214, 96.390, 936.0, 30.5941
59.051973780, 96.390, 944.0, 30.7246
59.078234345, 96.390, 940.0, 30.6594
59.104494911, 96.390, 956.0, 30.9192
59.130755476, 96.390, 973.0, 31.1929
59.157016041, 96.390, 854.0, 29.2233
59.183276607, 96.390, 889.0, 29.8161
59.209537172, 96.390, 928.0, 30.4631
59.235797737, 96.390, 973.0, 31.1929
59.262058303, 96.390, 920.0, 30.3315
59.288318868, 96.390, 905.0, 30.0832
59.314579433, 96.390, 906.0, 30.0998
59.340839999, 96.390, 923.0, 30.3809
59.367100564, 96.390, 939.0, 30.6431
59.393361129, 96.390, 974.0, 31.2090
59.419621695, 96.390, 900.0, 30.0000
59.445882260, 96.390, 878.0, 29.6311
59.472142826, 96.390, 970.0, 31.1448
59.498403391, 96.390, 990.0, 31.4643
59.524663956, 96.390, 956.0, 30.9192
59.550924522, 96.390, 954.0, 30.8869
59.577185087, 96.390, 931.0, 30.5123
59.603445652, 96.390, 939.0, 30.6431
59.629706218, 96.390, 942.0, 30.6920
59.655966783, 96.390, 901.0, 30.0167
59.682227348, 96.390, 924.0, 30.3974
59.708487914, 96.390, 968.0, 31.1127
59.734748479, 96.390, 955.0, 30.9031
59.761009044, 96.390, 1016.0, 31.8748
59.787269610, 96.390, 977.0, 31.2570
59.813530175, 96.390, 985.0, 31.3847
59.839790740, 96.390, 903.0, 30.0500
59.866051306, 96.390, 1011.0, 31.7962
59.892311871, 96.390, 972.0, 31.1769
59.918572437, 96.390, 975.0, 31.2250
59.944833002, 96.390, 977.0, 31.2570
59.971093567, 96.390, 957.0, 30.9354
59.997354133, 96.390, 1017.0, 31.8904
60.023614698, 96.390, 976.0, 31.2410
60.049875263, 96.390, 1016.0, 31.8748
60.076135829, 96.390, 991.0, 31.4802
60.102396394, 96.390, 967.0, 31.0966
60.128656959, 96.390, 1043.0, 32.2955
60.154917525, 96.390, 1029.0, 32.0780
60.181178090, 96.390, 1014.0, 31.8434
60.207438655, 96.390, 1069.0, 32.6956
60.233699221, 96.390, 1063.0, 32.6037
60.259959786, 96.390, 1025.0, 32.0156
60.286220352, 96.390, 1087.0, 32.9697
60.312480917, 96.390, 1052.0, 32.4345
60.338741482, 96.390, 1018.0, 31.9061
60.365002048, 96.390, 1062.0, 32.5883
60.391262613, 96.390, 1041.0, 32.2645
60.417523178, 96.390, 1095.0, 33.0908
60.443783744, 96.390, 1086.0, 32.9545
60.470044309, 96.390, 1075.0, 32.7872
60.496304874, 96.390, 1142.0, 33.7935
60.522565440, 96.390, 1093.0, 33.0606
60.548826005, 96.390, 1097.0, 33.1210
60.575086570, 96.390, 1064.0, 32.6190
60.601347136, 96.390, 1140.0, 33.7639
60.627607701, 96.390, 1115.0, 33.3916
60.653868266, 96.390, 1195.0, 34.5688
60.680128832, 96.390, 1198.0, 34.6121
60.706389397, 96.390, 1100.0, 33.1662
60.732649963, 96.390, 1207.0, 34.7419
60.758910528, 96.390, 1160.0, 34.0588
60.785171093, 96.390, 1199.0, 34.6266
60.811431659, 96.390, 1252.0, 35.3836
60.837692224, 96.390, 1180.0, 34.3511
60.863952789, 96.390, 1223.0, 34.9714
60.890213355, 96.390, 1252.0, 35.3836
60.916473920, 96.390, 1248.0, 35.3270
60.942734485, 96.390, 1229.0, 35.0571
60.968995051, 96.390, 1223.0, 34.9714
60.995255616, 96.390, 1240.0, 35.2136
61.021516181, 96.390, 1231.0, 35.0856
61.047776747, 96.390, 1280.0, 35.7771
61.074037312, 96.390, 1227.0, 35.0286
61.100297878, 96.390, 1311.0, 36.2077
61.126558443, 96.390, 1351.0, 36.7560
61.152819008, 96.390, 1314.0, 36.2491
61.179079574, 96.390, 1278.0, 35.7491
61.205340139, 96.390, 1273.0, 35.6791
61.231600704, 96.390, 1222.0, 34.9571
61.257861270, 96.390, 1359.0, 36.8646
61.284121835, 96.390, 1280.0, 35.7771
61.310382400, 96.390, 1373.0, 37.0540
61.336642966, 96.390, 1239.0, 35.1994
61.362903531, 96.390, 1288.0, 35.8887
61.389164096, 96.390, 1299.0, 36.0416
61.415424662, 96.390, 1262.0, 35.5246
61.441685227, 96.390, 1264.0, 35.5528
61.467945792, 96.390, 1263.0, 35.5387
61.494206358, 96.390, 1276.0, 35.7211
61.520466923, 96.390, 1272.0, 35.6651
61.546727489, 96.390, 1195.0, 34.5688
61.572988054, 96.390, 1262.0, 35.5246
61.599248619, 96.390, 1192.0, 34.5254
61.625509185, 96.390, 1232.0, 35.0999
61.651769750, 96.390, 1276.0, 35.7211
61.678030315, 96.390, 1287.0, 35.8748
61.704290881, 96.390, 1240.0, 35.2136
61.730551446, 96.390, 1267.0, 35.5949
61.756812011, 96.390, 1242.0, 35.2420
61.783072577, 96.390, 1296.0, 36.0000
61.809333142, 96.390, 1225.0, 35.0000
61.835593707, 96.390, 1254.0, 35.4119
61.861854273, 96.390, 1182.0, 34.3802
61.888114838, 96.390, 1207.0, 34.7419
61.914375404, 96.390, 1304.0, 36.1109
61.940635969, 96.390, 1189.0, 34.4819
61.966896534, 96.390, 1217.0, 34.8855
61.993157100, 96.390, 1187.0, 34.4529
62.019417665, 96.390, 1174.0, 34.2637
62.045678230, 96.390, 1255.0, 35.4260
62.071938796, 96.390, 1176.0, 34.2929
62.098199361, 96.390, 1169.0, 34.1906
62.124459926, 96.390, 1194.0, 34.5543
62.150720492, 96.390, 1178.0, 34.3220
62.176981057, 96.390, 1198.0, 34.6121
62.203241622, 96.390, 1216.0, 34.8712
62.229502188, 96.390, 1194.0, 34.5543
62.255762753, 96.390, 1122.0, 33.4963
62.282023318, 96.390, 1125.0, 33.5410
62.308283884, 96.390, 1129.0, 33.6006
62.334544449, 96.390, 1142.0, 33.7935
62.360805015, 96.390, 1126.0, 33.5559
62.387065580, 96.390, 1134.0, 33.6749
62.413326145, 96.390, 1170.0, 34.2053
62.439586711, 96.390, 1119.0, 33.4515
62.465847276, 96.390, 1143.0, 33.8083
62.492107841, 96.390, 1060.0, 32.5576
62.518368407, 96.390, 1140.0, 33.7639
62.544628972, 96.390, 1096.0, 33.1059
62.570889537, 96.390, 1038.0, 32.2180
62.597150103, 96.390, 1149.0, 33.8969
62.623410668, 96.390, 1056.0, 32.4962
62.649671233, 96.390, 1063.0, 32.6037
62.675931799, 96.390, 1050.0, 32.4037
62.702192364, 96.390, 1100.0, 33.1662
62.728452930, 96.390, 1034.0, 32.1559
62.754713495, 96.390, 1045.0, 32.3265
62.780974060, 96.390, 1057.0, 32.5115
62.807234626, 96.390, 1053.0, 32.4500
62.833495191, 96.390, 1078.0, 32.8329
62.859755756, 96.390, 1043.0, 32.2955
62.886016322, 96.390, 1053.0, 32.4500
62.912276887, 96.390, 1047.0, 32.3574
62.938537452, 96.390, 991.0, 31.4802
62.964798018, 96.390, 973.0, 31.1929
62.991058583, 96.390, 993.0, 31.5119
63.017319148, 96.390, 1008.0, 31.7490
63.043579714, 96.390, 1051.0, 32.4191
63.069840279, 96.390, 1004.0, 31.6860
63.096100844, 96.390, 926.0, 30.4302
63.122361410, 96.390, 978.0, 31.2730
63.148621975, 96.390, 1009.0, 31.7648
63.174882541, 96.390, 968.0, 31.1127
63.201143106, 96.390, 952.0, 30.8545
63.227403671, 96.390, 977.0, 31.2570
63.253664237, 96.390, 932.0, 30.5287
63.279924802, 96.390, 936.0, 30.5941
63.306185367, 96.390, 960.0, 30.9839
63.332445933, 96.390, 1009.0, 31.7648
63.358706498, 96.390, 967.0, 31.0966
63.384967063, 96.390, 992.0, 31.4960
63.411227629, 96.390, 951.0, 30.8383
63.437488194, 96.390, 878.0, 29.6311
63.463748759, 96.390, 942.0, 30.6920
63.490009325, 96.390, 878.0, 29.6311
63.516269890, 96.390, 886.0, 29.7658
63.542530455, 96.390, 891.0, 29.8496
63.568791021, 96.390, 918.0, 30.2985
63.595051586, 96.390, 873.0, 29.5466
63.621312152, 96.390, 898.0, 29.9666
63.647572717, 96.390, 905.0, 30.0832
63.673833282, 96.390, 925.0, 30.4138
63.700093848, 96.390, 924.0, 30.3974
63.726354413, 96.390, 893.0, 29.8831
63.752614978, 96.390, 862.0, 29.3598
63.778875544, 96.390, 885.0, 29.7489
63.805136109, 96.390, 922.0, 30.3645
63.831396674, 96.390, 910.0, 30.1662
63.857657240, 96.390, 906.0, 30.0998
63.883917805, 96.390, 902.0, 30.0333
63.910178370, 96.390, 894.0, 29.8998
63.936438936, 96.390, 857.0, 29.2746
63.962699501, 96.390, 932.0, 30.5287
63.988960067, 96.390, 911.0, 30.1828
64.015220632, 96.390, 886.0, 29.7658
64.041481197, 96.390, 894.0, 29.8998
64.067741763, 96.390, 952.0, 30.8545
64.094002328, 96.390, 883.0, 29.7153
64.120262893, 96.390, 837.0, 28.9310
64.146523459, 96.390, 839.0, 28.9655
64.172784024, 96.390, 873.0, 29.5466
64.199044589, 96.390, 856.0, 29.2575
64.225305155, 96.390, 867.0, 29.4449
64.251565720, 96.390, 838.0, 28.9482
64.277826285, 96.390, 857.0, 29.2746
64.304086851, 96.390, 814.0, 28.5307
64.330347416, 96.390, 836.0, 28.9137
64.356607981, 96.390, 814.0, 28.5307
64.382868547, 96.390, 820.0, 28.6356
64.409129112, 96.390, 835.0, 28.8964
64.435389678, 96.390, 855.0, 29.2404
64.461650243, 96.390, 828.0, 28.7750
64.487910808, 96.390, 874.0, 29.5635
64.514171374, 96.390, 879.0, 29.6479
64.540431939, 96.390, 781.0, 27.9464
64.566692504, 96.390, 821.0, 28.6531
64.592953070, 96.390, 832.0, 28.8444
64.619213635, 96.390, 847.0, 29.1033
64.645474200, 96.390, 804.0, 28.3549
64.671734766, 96.390, 897.0, 29.9500
64.697995331, 96.390, 829.0, 28.7924
64.724255896, 96.390, 861.0, 29.3428
64.750516462, 96.390, 869.0, 29.4788
64.776777027, 96.390, 847.0, 29.1033
64.803037593, 96.390, 839.0, 28.9655
64.829298158, 96.390, 875.0, 29.5804
64.855558723, 96.390, 825.0, 28.7228
64.881819289, 96.390, 787.0, 28.0535
64.908079854, 96.390, 828.0, 28.7750
64.934340419, 96.390, 860.0, 29.3258
64.960600985, 96.390, 802.0, 28.3196
64.986861550, 96.390, 849.0, 29.1376
