[Measurement conditions]
Sample identification,XRD_Centroid16Mar22_Act21Mar22_B2_0655M_NaOH_LS0157_1
Comment - 1,"Configuration=Stage for Flat Samples/Holders, Owner=User-1, Creation date=7/1/2020 9:53:24 AM"
Comment - 2,"Goniometer=Theta/Theta; Minimum step size 2Theta:0.0001; Minimum step size Omega:0.0001"
Comment - 3,"Sample stage=Stage for flat samples/holders"
Comment - 4,"Diffractometer system=EMPYREAN"
Comment - 5,"Measurement program=C:\Users\ibo5034\OneDrive - The Pennsylvania State University\NEUP\Zerobackground scan.xrdmp, Identifier={98A3B11C-88F9-4AA6-982C-73314A311EF5}"
Anode material,Cu
K-Alpha1 wavelength,1.5405980
K-Alpha2 wavelength,1.5444260
Ratio K-Alpha2/K-Alpha1,0.500
Divergence slit,Fixed,0.25
Monochromator used,NO
Generator voltage, 45
Tube current, 40
File date and time,24/Mar/2022 18:21
Unit cell,
h k l, 0 0 0
Scan axis,Gonio
Scan range,4.994599997,64.999991833
Scan step size,0.0262606
No. of points, 2285
Scan type,CONTINUOUS
Time per step,96.390
[Scan points]
Angle, TimePerStep, Intensity, ESD
5.007730280, 96.390, 4460.0, 66.7832
5.033990845, 96.390, 4494.0, 67.0373
5.060251411, 96.390, 4375.0, 66.1438
5.086511976, 96.390, 4523.0, 67.2533
5.112772541, 96.390, 4316.0, 65.6963
5.139033107, 96.390, 4356.0, 66.0000
5.165293672, 96.390, 4424.0, 66.5132
5.191554237, 96.390, 4376.0, 66.1513
5.217814803, 96.390, 4283.0, 65.4446
5.244075368, 96.390, 4316.0, 65.6963
5.270335934, 96.390, 4397.0, 66.3099
5.296596499, 96.390, 4294.0, 65.5286
5.322857064, 96.390, 4049.0, 63.6318
5.349117630, 96.390, 4290.0, 65.4981
5.375378195, 96.390, 4322.0, 65.7419
5.401638760, 96.390, 4193.0, 64.7534
5.427899326, 96.390, 4247.0, 65.1690
5.454159891, 96.390, 4284.0, 65.4523
5.480420456, 96.390, 4231.0, 65.0461
5.506681022, 96.390, 4162.0, 64.5136
5.532941587, 96.390, 4256.0, 65.2380
5.559202152, 96.390, 4182.0, 64.6684
5.585462718, 96.390, 4066.0, 63.7652
5.611723283, 96.390, 4168.0, 64.5600
5.637983849, 96.390, 4212.0, 64.8999
5.664244414, 96.390, 4108.0, 64.0937
5.690504979, 96.390, 4147.0, 64.3972
5.716765545, 96.390, 4176.0, 64.6220
5.743026110, 96.390, 4078.0, 63.8592
5.769286675, 96.390, 4101.0, 64.0391
5.795547241, 96.390, 4206.0, 64.8537
5.821807806, 96.390, 4140.0, 64.3428
5.848068371, 96.390, 4149.0, 64.4127
5.874328937, 96.390, 4102.0, 64.0469
5.900589502, 96.390, 4099.0, 64.0234
5.926850067, 96.390, 4041.0, 63.5689
5.953110633, 96.390, 4117.0, 64.1639
5.979371198, 96.390, 4110.0, 64.1093
6.005631763, 96.390, 4088.0, 63.9375
6.031892329, 96.390, 4040.0, 63.5610
6.058152894, 96.390, 3975.0, 63.0476
6.084413460, 96.390, 3981.0, 63.0952
6.110674025, 96.390, 4098.0, 64.0156
6.136934590, 96.390, 4069.0, 63.7887
6.163195156, 96.390, 3919.0, 62.6019
6.189455721, 96.390, 4023.0, 63.4271
6.215716286, 96.390, 3904.0, 62.4820
6.241976852, 96.390, 4090.0, 63.9531
6.268237417, 96.390, 3950.0, 62.8490
6.294497982, 96.390, 4020.0, 63.4035
6.320758548, 96.390, 4053.0, 63.6632
6.347019113, 96.390, 4087.0, 63.9296
6.373279678, 96.390, 3945.0, 62.8092
6.399540244, 96.390, 3952.0, 62.8649
6.425800809, 96.390, 4019.0, 63.3956
6.452061375, 96.390, 4045.0, 63.6003
6.478321940, 96.390, 4002.0, 63.2614
6.504582505, 96.390, 3897.0, 62.4260
6.530843071, 96.390, 4041.0, 63.5689
6.557103636, 96.390, 4010.0, 63.3246
6.583364201, 96.390, 3933.0, 62.7136
6.609624767, 96.390, 3937.0, 62.7455
6.635885332, 96.390, 4030.0, 63.4823
6.662145897, 96.390, 3873.0, 62.2334
6.688406463, 96.390, 3978.0, 63.0714
6.714667028, 96.390, 4041.0, 63.5689
6.740927593, 96.390, 3965.0, 62.9682
6.767188159, 96.390, 3917.0, 62.5859
6.793448724, 96.390, 4057.0, 63.6946
6.819709289, 96.390, 4021.0, 63.4114
6.845969855, 96.390, 3869.0, 62.2013
6.872230420, 96.390, 3969.0, 63.0000
6.898490986, 96.390, 3934.0, 62.7216
6.924751551, 96.390, 4026.0, 63.4508
6.951012116, 96.390, 3949.0, 62.8411
6.977272682, 96.390, 3997.0, 63.2218
7.003533247, 96.390, 3943.0, 62.7933
7.029793812, 96.390, 3954.0, 62.8808
7.056054378, 96.390, 3949.0, 62.8411
7.082314943, 96.390, 3897.0, 62.4260
7.108575508, 96.390, 3787.0, 61.5386
7.134836074, 96.390, 3925.0, 62.6498
7.161096639, 96.390, 3874.0, 62.2415
7.187357204, 96.390, 3903.0, 62.4740
7.213617770, 96.390, 3917.0, 62.5859
7.239878335, 96.390, 3892.0, 62.3859
7.266138900, 96.390, 3772.0, 61.4166
7.292399466, 96.390, 3790.0, 61.5630
7.318660031, 96.390, 3971.0, 63.0159
7.344920597, 96.390, 3899.0, 62.4420
7.371181162, 96.390, 3740.0, 61.1555
7.397441727, 96.390, 3805.0, 61.6847
7.423702293, 96.390, 3863.0, 62.1530
7.449962858, 96.390, 3880.0, 62.2896
7.476223423, 96.390, 3961.0, 62.9365
7.502483989, 96.390, 3783.0, 61.5061
7.528744554, 96.390, 3828.0, 61.8708
7.555005119, 96.390, 3799.0, 61.6360
7.581265685, 96.390, 3874.0, 62.2415
7.607526250, 96.390, 3758.0, 61.3025
7.633786815, 96.390, 3844.0, 62.0000
7.660047381, 96.390, 3774.0, 61.4329
7.686307946, 96.390, 3778.0, 61.4654
7.712568512, 96.390, 3908.0, 62.5140
7.738829077, 96.390, 3899.0, 62.4420
7.765089642, 96.390, 4014.0, 63.3561
7.791350208, 96.390, 3795.0, 61.6036
7.817610773, 96.390, 3918.0, 62.5939
7.843871338, 96.390, 3786.0, 61.5305
7.870131904, 96.390, 3807.0, 61.7009
7.896392469, 96.390, 3893.0, 62.3939
7.922653034, 96.390, 3804.0, 61.6766
7.948913600, 96.390, 3817.0, 61.7819
7.975174165, 96.390, 3823.0, 61.8304
8.001434730, 96.390, 3826.0, 61.8547
8.027695296, 96.390, 3794.0, 61.5955
8.053955861, 96.390, 3789.0, 61.5549
8.080216426, 96.390, 3869.0, 62.2013
8.106476992, 96.390, 3850.0, 62.0484
8.132737557, 96.390, 3970.0, 63.0079
8.158998123, 96.390, 3921.0, 62.6179
8.185258688, 96.390, 3876.0, 62.2575
8.211519253, 96.390, 3857.0, 62.1048
8.237779819, 96.390, 3715.0, 60.9508
8.264040384, 96.390, 3759.0, 61.3107
8.290300949, 96.390, 3649.0, 60.4070
8.316561515, 96.390, 3695.0, 60.7865
8.342822080, 96.390, 3781.0, 61.4898
8.369082645, 96.390, 3708.0, 60.8933
8.395343211, 96.390, 3596.0, 59.9667
8.421603776, 96.390, 3678.0, 60.6465
8.447864341, 96.390, 3724.0, 61.0246
8.474124907, 96.390, 3775.0, 61.4410
8.500385472, 96.390, 3606.0, 60.0500
8.526646038, 96.390, 3618.0, 60.1498
8.552906603, 96.390, 3610.0, 60.0833
8.579167168, 96.390, 3660.0, 60.4979
8.605427734, 96.390, 3580.0, 59.8331
8.631688299, 96.390, 3655.0, 60.4566
8.657948864, 96.390, 3660.0, 60.4979
8.684209430, 96.390, 3658.0, 60.4814
8.710469995, 96.390, 3641.0, 60.3407
8.736730560, 96.390, 3650.0, 60.4152
8.762991126, 96.390, 3498.0, 59.1439
8.789251691, 96.390, 3578.0, 59.8164
8.815512256, 96.390, 3723.0, 61.0164
8.841772822, 96.390, 3579.0, 59.8247
8.868033387, 96.390, 3525.0, 59.3717
8.894293952, 96.390, 3556.0, 59.6322
8.920554518, 96.390, 3708.0, 60.8933
8.946815083, 96.390, 3557.0, 59.6406
8.973075649, 96.390, 3576.0, 59.7997
8.999336214, 96.390, 3585.0, 59.8749
9.025596779, 96.390, 3591.0, 59.9250
9.051857345, 96.390, 3507.0, 59.2199
9.078117910, 96.390, 3636.0, 60.2993
9.104378475, 96.390, 3569.0, 59.7411
9.130639041, 96.390, 3581.0, 59.8415
9.156899606, 96.390, 3505.0, 59.2030
9.183160171, 96.390, 3524.0, 59.3633
9.209420737, 96.390, 3559.0, 59.6574
9.235681302, 96.390, 3513.0, 59.2706
9.261941867, 96.390, 3587.0, 59.8916
9.288202433, 96.390, 3475.0, 58.9491
9.314462998, 96.390, 3587.0, 59.8916
9.340723564, 96.390, 3545.0, 59.5399
9.366984129, 96.390, 3548.0, 59.5651
9.393244694, 96.390, 3534.0, 59.4475
9.419505260, 96.390, 3584.0, 59.8665
9.445765825, 96.390, 3514.0, 59.2790
9.472026390, 96.390, 3548.0, 59.5651
9.498286956, 96.390, 3395.0, 58.2666
9.524547521, 96.390, 3562.0, 59.6825
9.550808086, 96.390, 3535.0, 59.4559
9.577068652, 96.390, 3443.0, 58.6771
9.603329217, 96.390, 3567.0, 59.7244
9.629589782, 96.390, 3398.0, 58.2924
9.655850348, 96.390, 3473.0, 58.9322
9.682110913, 96.390, 3622.0, 60.1831
9.708371478, 96.390, 3448.0, 58.7197
9.734632044, 96.390, 3540.0, 59.4979
9.760892609, 96.390, 3376.0, 58.1034
9.787153175, 96.390, 3449.0, 58.7282
9.813413740, 96.390, 3551.0, 59.5903
9.839674305, 96.390, 3459.0, 58.8133
9.865934871, 96.390, 3571.0, 59.7578
9.892195436, 96.390, 3497.0, 59.1354
9.918456001, 96.390, 3450.0, 58.7367
9.944716567, 96.390, 3456.0, 58.7878
9.970977132, 96.390, 3437.0, 58.6259
9.997237697, 96.390, 3388.0, 58.2065
10.023498263, 96.390, 3448.0, 58.7197
10.049758828, 96.390, 3387.0, 58.1979
10.076019393, 96.390, 3460.0, 58.8218
10.102279959, 96.390, 3378.0, 58.1206
10.128540524, 96.390, 3478.0, 58.9746
10.154801090, 96.390, 3503.0, 59.1861
10.181061655, 96.390, 3362.0, 57.9828
10.207322220, 96.390, 3458.0, 58.8048
10.233582786, 96.390, 3360.0, 57.9655
10.259843351, 96.390, 3341.0, 57.8014
10.286103916, 96.390, 3426.0, 58.5320
10.312364482, 96.390, 3348.0, 57.8619
10.338625047, 96.390, 3271.0, 57.1927
10.364885612, 96.390, 3456.0, 58.7878
10.391146178, 96.390, 3382.0, 58.1550
10.417406743, 96.390, 3324.0, 57.6541
10.443667308, 96.390, 3307.0, 57.5065
10.469927874, 96.390, 3369.0, 58.0431
10.496188439, 96.390, 3469.0, 58.8982
10.522449004, 96.390, 3264.0, 57.1314
10.548709570, 96.390, 3326.0, 57.6715
10.574970135, 96.390, 3259.0, 57.0877
10.601230701, 96.390, 3356.0, 57.9310
10.627491266, 96.390, 3343.0, 57.8187
10.653751831, 96.390, 3434.0, 58.6003
10.680012397, 96.390, 3421.0, 58.4893
10.706272962, 96.390, 3325.0, 57.6628
10.732533527, 96.390, 3347.0, 57.8533
10.758794093, 96.390, 3299.0, 57.4369
10.785054658, 96.390, 3412.0, 58.4123
10.811315223, 96.390, 3425.0, 58.5235
10.837575789, 96.390, 3338.0, 57.7754
10.863836354, 96.390, 3262.0, 57.1139
10.890096919, 96.390, 3355.0, 57.9224
10.916357485, 96.390, 3312.0, 57.5500
10.942618050, 96.390, 3177.0, 56.3649
10.968878616, 96.390, 3254.0, 57.0438
10.995139181, 96.390, 3441.0, 58.6600
11.021399746, 96.390, 3219.0, 56.7362
11.047660312, 96.390, 3315.0, 57.5760
11.073920877, 96.390, 3240.0, 56.9210
11.100181442, 96.390, 3248.0, 56.9912
11.126442008, 96.390, 3238.0, 56.9034
11.152702573, 96.390, 3184.0, 56.4269
11.178963138, 96.390, 3291.0, 57.3672
11.205223704, 96.390, 3274.0, 57.2189
11.231484269, 96.390, 3185.0, 56.4358
11.257744834, 96.390, 3092.0, 55.6058
11.284005400, 96.390, 3206.0, 56.6216
11.310265965, 96.390, 3199.0, 56.5597
11.336526530, 96.390, 3135.0, 55.9911
11.362787096, 96.390, 3197.0, 56.5420
11.389047661, 96.390, 3229.0, 56.8243
11.415308227, 96.390, 3118.0, 55.8391
11.441568792, 96.390, 3103.0, 55.7046
11.467829357, 96.390, 3190.0, 56.4801
11.494089923, 96.390, 3211.0, 56.6657
11.520350488, 96.390, 3161.0, 56.2228
11.546611053, 96.390, 3158.0, 56.1961
11.572871619, 96.390, 3065.0, 55.3624
11.599132184, 96.390, 3209.0, 56.6480
11.625392749, 96.390, 3072.0, 55.4256
11.651653315, 96.390, 3068.0, 55.3895
11.677913880, 96.390, 3063.0, 55.3444
11.704174445, 96.390, 3089.0, 55.5788
11.730435011, 96.390, 3033.0, 55.0727
11.756695576, 96.390, 3092.0, 55.6058
11.782956141, 96.390, 2957.0, 54.3783
11.809216707, 96.390, 3094.0, 55.6237
11.835477272, 96.390, 3146.0, 56.0892
11.861737838, 96.390, 3015.0, 54.9090
11.887998403, 96.390, 3029.0, 55.0364
11.914258968, 96.390, 2974.0, 54.5344
11.940519534, 96.390, 3001.0, 54.7814
11.966780099, 96.390, 2979.0, 54.5802
11.993040664, 96.390, 3043.0, 55.1634
12.019301230, 96.390, 3019.0, 54.9454
12.045561795, 96.390, 2881.0, 53.6749
12.071822360, 96.390, 2927.0, 54.1018
12.098082926, 96.390, 3006.0, 54.8270
12.124343491, 96.390, 2889.0, 53.7494
12.150604056, 96.390, 2835.0, 53.2447
12.176864622, 96.390, 2987.0, 54.6535
12.203125187, 96.390, 2895.0, 53.8052
12.229385753, 96.390, 2874.0, 53.6097
12.255646318, 96.390, 2873.0, 53.6004
12.281906883, 96.390, 2920.0, 54.0370
12.308167449, 96.390, 2863.0, 53.5070
12.334428014, 96.390, 2852.0, 53.4041
12.360688579, 96.390, 2836.0, 53.2541
12.386949145, 96.390, 2869.0, 53.5630
12.413209710, 96.390, 2862.0, 53.4977
12.439470275, 96.390, 2855.0, 53.4322
12.465730841, 96.390, 2857.0, 53.4509
12.491991406, 96.390, 2924.0, 54.0740
12.518251971, 96.390, 2832.0, 53.2165
12.544512537, 96.390, 2890.0, 53.7587
12.570773102, 96.390, 2755.0, 52.4881
12.597033667, 96.390, 2836.0, 53.2541
12.623294233, 96.390, 2777.0, 52.6972
12.649554798, 96.390, 2698.0, 51.9423
12.675815364, 96.390, 2882.0, 53.6843
12.702075929, 96.390, 2876.0, 53.6284
12.728336494, 96.390, 2764.0, 52.5738
12.754597060, 96.390, 2748.0, 52.4214
12.780857625, 96.390, 2689.0, 51.8556
12.807118190, 96.390, 2728.0, 52.2303
12.833378756, 96.390, 2688.0, 51.8459
12.859639321, 96.390, 2732.0, 52.2685
12.885899886, 96.390, 2708.0, 52.0384
12.912160452, 96.390, 2580.0, 50.7937
12.938421017, 96.390, 2687.0, 51.8363
12.964681582, 96.390, 2701.0, 51.9711
12.990942148, 96.390, 2677.0, 51.7397
13.017202713, 96.390, 2674.0, 51.7107
13.043463279, 96.390, 2750.0, 52.4404
13.069723844, 96.390, 2654.0, 51.5170
13.095984409, 96.390, 2607.0, 51.0588
13.122244975, 96.390, 2682.0, 51.7880
13.148505540, 96.390, 2600.0, 50.9902
13.174766105, 96.390, 2674.0, 51.7107
13.201026671, 96.390, 2671.0, 51.6817
13.227287236, 96.390, 2647.0, 51.4490
13.253547801, 96.390, 2699.0, 51.9519
13.279808367, 96.390, 2549.0, 50.4876
13.306068932, 96.390, 2551.0, 50.5074
13.332329497, 96.390, 2572.0, 50.7149
13.358590063, 96.390, 2611.0, 51.0979
13.384850628, 96.390, 2558.0, 50.5767
13.411111193, 96.390, 2649.0, 51.4684
13.437371759, 96.390, 2625.0, 51.2348
13.463632324, 96.390, 2650.0, 51.4782
13.489892890, 96.390, 2709.0, 52.0481
13.516153455, 96.390, 2755.0, 52.4881
13.542414020, 96.390, 2498.0, 49.9800
13.568674586, 96.390, 2543.0, 50.4282
13.594935151, 96.390, 2525.0, 50.2494
13.621195716, 96.390, 2652.0, 51.4976
13.647456282, 96.390, 2625.0, 51.2348
13.673716847, 96.390, 2565.0, 50.6458
13.699977412, 96.390, 2478.0, 49.7795
13.726237978, 96.390, 2651.0, 51.4879
13.752498543, 96.390, 2492.0, 49.9199
13.778759108, 96.390, 2440.0, 49.3964
13.805019674, 96.390, 2605.0, 51.0392
13.831280239, 96.390, 2566.0, 50.6557
13.857540805, 96.390, 2586.0, 50.8527
13.883801370, 96.390, 2539.0, 50.3885
13.910061935, 96.390, 2597.0, 50.9608
13.936322501, 96.390, 2559.0, 50.5866
13.962583066, 96.390, 2496.0, 49.9600
13.988843631, 96.390, 2524.0, 50.2394
14.015104197, 96.390, 2537.0, 50.3686
14.041364762, 96.390, 2443.0, 49.4267
14.067625327, 96.390, 2466.0, 49.6588
14.093885893, 96.390, 2450.0, 49.4975
14.120146458, 96.390, 2523.0, 50.2295
14.146407023, 96.390, 2465.0, 49.6488
14.172667589, 96.390, 2502.0, 50.0200
14.198928154, 96.390, 2493.0, 49.9300
14.225188719, 96.390, 2571.0, 50.7050
14.251449285, 96.390, 2606.0, 51.0490
14.277709850, 96.390, 2708.0, 52.0384
14.303970416, 96.390, 2628.0, 51.2640
14.330230981, 96.390, 2541.0, 50.4083
14.356491546, 96.390, 2509.0, 50.0899
14.382752112, 96.390, 2563.0, 50.6261
14.409012677, 96.390, 2496.0, 49.9600
14.435273242, 96.390, 2624.0, 51.2250
14.461533808, 96.390, 2626.0, 51.2445
14.487794373, 96.390, 2630.0, 51.2835
14.514054938, 96.390, 2863.0, 53.5070
14.540315504, 96.390, 2883.0, 53.6936
14.566576069, 96.390, 2816.0, 53.0660
14.592836634, 96.390, 2695.0, 51.9134
14.619097200, 96.390, 2533.0, 50.3289
14.645357765, 96.390, 2408.0, 49.0714
14.671618331, 96.390, 2442.0, 49.4166
14.697878896, 96.390, 2334.0, 48.3115
14.724139461, 96.390, 2342.0, 48.3942
14.750400027, 96.390, 2411.0, 49.1019
14.776660592, 96.390, 2358.0, 48.5592
14.802921157, 96.390, 2320.0, 48.1664
14.829181723, 96.390, 2355.0, 48.5283
14.855442288, 96.390, 2425.0, 49.2443
14.881702853, 96.390, 2324.0, 48.2079
14.907963419, 96.390, 2395.0, 48.9387
14.934223984, 96.390, 2344.0, 48.4149
14.960484549, 96.390, 2348.0, 48.4562
14.986745115, 96.390, 2320.0, 48.1664
15.013005680, 96.390, 2378.0, 48.7647
15.039266245, 96.390, 2391.0, 48.8979
15.065526811, 96.390, 2452.0, 49.5177
15.091787376, 96.390, 2411.0, 49.1019
15.118047942, 96.390, 2489.0, 49.8899
15.144308507, 96.390, 2514.0, 50.1398
15.170569072, 96.390, 2582.0, 50.8134
15.196829638, 96.390, 2472.0, 49.7192
15.223090203, 96.390, 2561.0, 50.6063
15.249350768, 96.390, 2571.0, 50.7050
15.275611334, 96.390, 2752.0, 52.4595
15.301871899, 96.390, 2712.0, 52.0769
15.328132464, 96.390, 2530.0, 50.2991
15.354393030, 96.390, 2532.0, 50.3190
15.380653595, 96.390, 2335.0, 48.3218
15.406914160, 96.390, 2337.0, 48.3425
15.433174726, 96.390, 2340.0, 48.3735
15.459435291, 96.390, 2262.0, 47.5605
15.485695857, 96.390, 2309.0, 48.0521
15.511956422, 96.390, 2353.0, 48.5077
15.538216987, 96.390, 2335.0, 48.3218
15.564477553, 96.390, 2294.0, 47.8957
15.590738118, 96.390, 2348.0, 48.4562
15.616998683, 96.390, 2364.0, 48.6210
15.643259249, 96.390, 2240.0, 47.3286
15.669519814, 96.390, 2288.0, 47.8330
15.695780379, 96.390, 2345.0, 48.4252
15.722040945, 96.390, 2339.0, 48.3632
15.748301510, 96.390, 2309.0, 48.0521
15.774562075, 96.390, 2342.0, 48.3942
15.800822641, 96.390, 2284.0, 47.7912
15.827083206, 96.390, 2199.0, 46.8935
15.853343771, 96.390, 2234.0, 47.2652
15.879604337, 96.390, 2199.0, 46.8935
15.905864902, 96.390, 2305.0, 48.0104
15.932125468, 96.390, 2301.0, 47.9687
15.958386033, 96.390, 2353.0, 48.5077
15.984646598, 96.390, 2295.0, 47.9062
16.010907164, 96.390, 2330.0, 48.2701
16.037167729, 96.390, 2296.0, 47.9166
16.063428294, 96.390, 2269.0, 47.6340
16.089688860, 96.390, 2349.0, 48.4665
16.115949425, 96.390, 2316.0, 48.1248
16.142209990, 96.390, 2310.0, 48.0625
16.168470556, 96.390, 2376.0, 48.7442
16.194731121, 96.390, 2373.0, 48.7134
16.220991686, 96.390, 2409.0, 49.0816
16.247252252, 96.390, 2354.0, 48.5180
16.273512817, 96.390, 2465.0, 49.6488
16.299773382, 96.390, 2562.0, 50.6162
16.326033948, 96.390, 2661.0, 51.5849
16.352294513, 96.390, 2786.0, 52.7826
16.378555079, 96.390, 2520.0, 50.1996
16.404815644, 96.390, 2410.0, 49.0918
16.431076209, 96.390, 2316.0, 48.1248
16.457336775, 96.390, 2249.0, 47.4236
16.483597340, 96.390, 2217.0, 47.0850
16.509857905, 96.390, 2340.0, 48.3735
16.536118471, 96.390, 2174.0, 46.6262
16.562379036, 96.390, 2331.0, 48.2804
16.588639601, 96.390, 2271.0, 47.6550
16.614900167, 96.390, 2321.0, 48.1768
16.641160732, 96.390, 2289.0, 47.8435
16.667421297, 96.390, 2236.0, 47.2864
16.693681863, 96.390, 2264.0, 47.5815
16.719942428, 96.390, 2334.0, 48.3115
16.746202994, 96.390, 2347.0, 48.4458
16.772463559, 96.390, 2295.0, 47.9062
16.798724124, 96.390, 2199.0, 46.8935
16.824984690, 96.390, 2356.0, 48.5386
16.851245255, 96.390, 2318.0, 48.1456
16.877505820, 96.390, 2337.0, 48.3425
16.903766386, 96.390, 2324.0, 48.2079
16.930026951, 96.390, 2318.0, 48.1456
16.956287516, 96.390, 2215.0, 47.0638
16.982548082, 96.390, 2341.0, 48.3839
17.008808647, 96.390, 2317.0, 48.1352
17.035069212, 96.390, 2272.0, 47.6655
17.061329778, 96.390, 2303.0, 47.9896
17.087590343, 96.390, 2343.0, 48.4045
17.113850908, 96.390, 2363.0, 48.6107
17.140111474, 96.390, 2231.0, 47.2335
17.166372039, 96.390, 2254.0, 47.4763
17.192632605, 96.390, 2380.0, 48.7852
17.218893170, 96.390, 2301.0, 47.9687
17.245153735, 96.390, 2343.0, 48.4045
17.271414301, 96.390, 2320.0, 48.1664
17.297674866, 96.390, 2444.0, 49.4368
17.323935431, 96.390, 2284.0, 47.7912
17.350195997, 96.390, 2345.0, 48.4252
17.376456562, 96.390, 2380.0, 48.7852
17.402717127, 96.390, 2326.0, 48.2286
17.428977693, 96.390, 2391.0, 48.8979
17.455238258, 96.390, 2344.0, 48.4149
17.481498823, 96.390, 2317.0, 48.1352
17.507759389, 96.390, 2279.0, 47.7389
17.534019954, 96.390, 2308.0, 48.0416
17.560280520, 96.390, 2300.0, 47.9583
17.586541085, 96.390, 2338.0, 48.3529
17.612801650, 96.390, 2306.0, 48.0208
17.639062216, 96.390, 2365.0, 48.6313
17.665322781, 96.390, 2308.0, 48.0416
17.691583346, 96.390, 2432.0, 49.3153
17.717843912, 96.390, 2295.0, 47.9062
17.744104477, 96.390, 2381.0, 48.7955
17.770365042, 96.390, 2424.0, 49.2341
17.796625608, 96.390, 2370.0, 48.6826
17.822886173, 96.390, 2288.0, 47.8330
17.849146738, 96.390, 2359.0, 48.5695
17.875407304, 96.390, 2394.0, 48.9285
17.901667869, 96.390, 2307.0, 48.0312
17.927928434, 96.390, 2421.0, 49.2037
17.954189000, 96.390, 2354.0, 48.5180
17.980449565, 96.390, 2375.0, 48.7340
18.006710131, 96.390, 2313.0, 48.0937
18.032970696, 96.390, 2348.0, 48.4562
18.059231261, 96.390, 2456.0, 49.5580
18.085491827, 96.390, 2405.0, 49.0408
18.111752392, 96.390, 2463.0, 49.6286
18.138012957, 96.390, 2362.0, 48.6004
18.164273523, 96.390, 2395.0, 48.9387
18.190534088, 96.390, 2400.0, 48.9898
18.216794653, 96.390, 2440.0, 49.3964
18.243055219, 96.390, 2430.0, 49.2950
18.269315784, 96.390, 2445.0, 49.4469
18.295576349, 96.390, 2440.0, 49.3964
18.321836915, 96.390, 2406.0, 49.0510
18.348097480, 96.390, 2563.0, 50.6261
18.374358046, 96.390, 2468.0, 49.6790
18.400618611, 96.390, 2496.0, 49.9600
18.426879176, 96.390, 2509.0, 50.0899
18.453139742, 96.390, 2467.0, 49.6689
18.479400307, 96.390, 2582.0, 50.8134
18.505660872, 96.390, 2428.0, 49.2747
18.531921438, 96.390, 2541.0, 50.4083
18.558182003, 96.390, 2434.0, 49.3356
18.584442568, 96.390, 2474.0, 49.7393
18.610703134, 96.390, 2528.0, 50.2792
18.636963699, 96.390, 2414.0, 49.1325
18.663224264, 96.390, 2476.0, 49.7594
18.689484830, 96.390, 2472.0, 49.7192
18.715745395, 96.390, 2491.0, 49.9099
18.742005960, 96.390, 2494.0, 49.9400
18.768266526, 96.390, 2628.0, 51.2640
18.794527091, 96.390, 2549.0, 50.4876
18.820787657, 96.390, 2603.0, 51.0196
18.847048222, 96.390, 2829.0, 53.1883
18.873308787, 96.390, 2852.0, 53.4041
18.899569353, 96.390, 2871.0, 53.5817
18.925829918, 96.390, 2920.0, 54.0370
18.952090483, 96.390, 2971.0, 54.5069
18.978351049, 96.390, 2965.0, 54.4518
19.004611614, 96.390, 2854.0, 53.4228
19.030872179, 96.390, 2740.0, 52.3450
19.057132745, 96.390, 2847.0, 53.3573
19.083393310, 96.390, 2695.0, 51.9134
19.109653875, 96.390, 2661.0, 51.5849
19.135914441, 96.390, 2683.0, 51.7977
19.162175006, 96.390, 2577.0, 50.7642
19.188435572, 96.390, 2571.0, 50.7050
19.214696137, 96.390, 2600.0, 50.9902
19.240956702, 96.390, 2552.0, 50.5173
19.267217268, 96.390, 2643.0, 51.4101
19.293477833, 96.390, 2487.0, 49.8698
19.319738398, 96.390, 2538.0, 50.3786
19.345998964, 96.390, 2704.0, 52.0000
19.372259529, 96.390, 2664.0, 51.6140
19.398520094, 96.390, 2702.0, 51.9808
19.424780660, 96.390, 2615.0, 51.1371
19.451041225, 96.390, 2667.0, 51.6430
19.477301790, 96.390, 2642.0, 51.4004
19.503562356, 96.390, 2688.0, 51.8459
19.529822921, 96.390, 2637.0, 51.3517
19.556083486, 96.390, 2622.0, 51.2055
19.582344052, 96.390, 2485.0, 49.8498
19.608604617, 96.390, 2638.0, 51.3615
19.634865183, 96.390, 2662.0, 51.5946
19.661125748, 96.390, 2620.0, 51.1859
19.687386313, 96.390, 2691.0, 51.8748
19.713646879, 96.390, 2736.0, 52.3068
19.739907444, 96.390, 2668.0, 51.6527
19.766168009, 96.390, 2738.0, 52.3259
19.792428575, 96.390, 2719.0, 52.1440
19.818689140, 96.390, 2792.0, 52.8394
19.844949705, 96.390, 2718.0, 52.1344
19.871210271, 96.390, 2785.0, 52.7731
19.897470836, 96.390, 2745.0, 52.3927
19.923731401, 96.390, 2827.0, 53.1695
19.949991967, 96.390, 2877.0, 53.6377
19.976252532, 96.390, 3027.0, 55.0182
20.002513097, 96.390, 2893.0, 53.7866
20.028773663, 96.390, 2964.0, 54.4426
20.055034228, 96.390, 2749.0, 52.4309
20.081294794, 96.390, 2749.0, 52.4309
20.107555359, 96.390, 2600.0, 50.9902
20.133815924, 96.390, 2718.0, 52.1344
20.160076490, 96.390, 2841.0, 53.3010
20.186337055, 96.390, 2731.0, 52.2590
20.212597620, 96.390, 2690.0, 51.8652
20.238858186, 96.390, 2732.0, 52.2685
20.265118751, 96.390, 2699.0, 51.9519
20.291379316, 96.390, 2662.0, 51.5946
20.317639882, 96.390, 2658.0, 51.5558
20.343900447, 96.390, 2705.0, 52.0096
20.370161012, 96.390, 2785.0, 52.7731
20.396421578, 96.390, 2709.0, 52.0481
20.422682143, 96.390, 2813.0, 53.0377
20.448942709, 96.390, 2812.0, 53.0283
20.475203274, 96.390, 2854.0, 53.4228
20.501463839, 96.390, 2768.0, 52.6118
20.527724405, 96.390, 2831.0, 53.2071
20.553984970, 96.390, 2954.0, 54.3507
20.580245535, 96.390, 2985.0, 54.6352
20.606506101, 96.390, 3115.0, 55.8122
20.632766666, 96.390, 3227.0, 56.8067
20.659027231, 96.390, 3266.0, 57.1489
20.685287797, 96.390, 3629.0, 60.2412
20.711548362, 96.390, 3750.0, 61.2372
20.737808927, 96.390, 3746.0, 61.2046
20.764069493, 96.390, 3529.0, 59.4054
20.790330058, 96.390, 3263.0, 57.1227
20.816590623, 96.390, 2963.0, 54.4334
20.842851189, 96.390, 2871.0, 53.5817
20.869111754, 96.390, 2834.0, 53.2353
20.895372320, 96.390, 2820.0, 53.1037
20.921632885, 96.390, 2740.0, 52.3450
20.947893450, 96.390, 2687.0, 51.8363
20.974154016, 96.390, 2809.0, 53.0000
21.000414581, 96.390, 2786.0, 52.7826
21.026675146, 96.390, 2862.0, 53.4977
21.052935712, 96.390, 2682.0, 51.7880
21.079196277, 96.390, 2792.0, 52.8394
21.105456842, 96.390, 2741.0, 52.3546
21.131717408, 96.390, 2849.0, 53.3760
21.157977973, 96.390, 2674.0, 51.7107
21.184238538, 96.390, 2726.0, 52.2111
21.210499104, 96.390, 2817.0, 53.0754
21.236759669, 96.390, 2887.0, 53.7308
21.263020235, 96.390, 2807.0, 52.9811
21.289280800, 96.390, 2892.0, 53.7773
21.315541365, 96.390, 2941.0, 54.2310
21.341801931, 96.390, 2965.0, 54.4518
21.368062496, 96.390, 2872.0, 53.5910
21.394323061, 96.390, 2873.0, 53.6004
21.420583627, 96.390, 2876.0, 53.6284
21.446844192, 96.390, 2853.0, 53.4135
21.473104757, 96.390, 2764.0, 52.5738
21.499365323, 96.390, 2698.0, 51.9423
21.525625888, 96.390, 2938.0, 54.2033
21.551886453, 96.390, 2819.0, 53.0943
21.578147019, 96.390, 2964.0, 54.4426
21.604407584, 96.390, 3045.0, 55.1815
21.630668149, 96.390, 3112.0, 55.7853
21.656928715, 96.390, 3156.0, 56.1783
21.683189280, 96.390, 2979.0, 54.5802
21.709449846, 96.390, 2946.0, 54.2771
21.735710411, 96.390, 2907.0, 53.9166
21.761970976, 96.390, 2842.0, 53.3104
21.788231542, 96.390, 2767.0, 52.6023
21.814492107, 96.390, 2673.0, 51.7011
21.840752672, 96.390, 2772.0, 52.6498
21.867013238, 96.390, 2762.0, 52.5547
21.893273803, 96.390, 2864.0, 53.5164
21.919534368, 96.390, 2792.0, 52.8394
21.945794934, 96.390, 2772.0, 52.6498
21.972055499, 96.390, 2763.0, 52.5642
21.998316064, 96.390, 2764.0, 52.5738
22.024576630, 96.390, 2776.0, 52.6878
22.050837195, 96.390, 2737.0, 52.3163
22.077097761, 96.390, 2771.0, 52.6403
22.103358326, 96.390, 2710.0, 52.0577
22.129618891, 96.390, 2697.0, 51.9326
22.155879457, 96.390, 2760.0, 52.5357
22.182140022, 96.390, 2810.0, 53.0094
22.208400587, 96.390, 2769.0, 52.6213
22.234661153, 96.390, 2825.0, 53.1507
22.260921718, 96.390, 2801.0, 52.9245
22.287182283, 96.390, 2920.0, 54.0370
22.313442849, 96.390, 2722.0, 52.1728
22.339703414, 96.390, 2785.0, 52.7731
22.365963979, 96.390, 2885.0, 53.7122
22.392224545, 96.390, 2820.0, 53.1037
22.418485110, 96.390, 2765.0, 52.5833
22.444745675, 96.390, 2761.0, 52.5452
22.471006241, 96.390, 2724.0, 52.1920
22.497266806, 96.390, 2836.0, 53.2541
22.523527372, 96.390, 2847.0, 53.3573
22.549787937, 96.390, 2840.0, 53.2917
22.576048502, 96.390, 2804.0, 52.9528
22.602309068, 96.390, 2835.0, 53.2447
22.628569633, 96.390, 2866.0, 53.5350
22.654830198, 96.390, 2904.0, 53.8888
22.681090764, 96.390, 2860.0, 53.4790
22.707351329, 96.390, 2893.0, 53.7866
22.733611894, 96.390, 2898.0, 53.8331
22.759872460, 96.390, 3006.0, 54.8270
22.786133025, 96.390, 2972.0, 54.5161
22.812393590, 96.390, 3112.0, 55.7853
22.838654156, 96.390, 3058.0, 55.2992
22.864914721, 96.390, 2978.0, 54.5711
22.891175287, 96.390, 3080.0, 55.4977
22.917435852, 96.390, 3042.0, 55.1543
22.943696417, 96.390, 3012.0, 54.8817
22.969956983, 96.390, 3003.0, 54.7996
22.996217548, 96.390, 2926.0, 54.0925
23.022478113, 96.390, 2851.0, 53.3948
23.048738679, 96.390, 2918.0, 54.0185
23.074999244, 96.390, 2947.0, 54.2863
23.101259809, 96.390, 2927.0, 54.1018
23.127520375, 96.390, 2870.0, 53.5724
23.153780940, 96.390, 2999.0, 54.7631
23.180041505, 96.390, 3043.0, 55.1634
23.206302071, 96.390, 3072.0, 55.4256
23.232562636, 96.390, 3062.0, 55.3353
23.258823201, 96.390, 2927.0, 54.1018
23.285083767, 96.390, 2835.0, 53.2447
23.311344332, 96.390, 2958.0, 54.3875
23.337604898, 96.390, 2908.0, 53.9259
23.363865463, 96.390, 2946.0, 54.2771
23.390126028, 96.390, 2976.0, 54.5527
23.416386594, 96.390, 2984.0, 54.6260
23.442647159, 96.390, 2865.0, 53.5257
23.468907724, 96.390, 2909.0, 53.9351
23.495168290, 96.390, 2816.0, 53.0660
23.521428855, 96.390, 2807.0, 52.9811
23.547689420, 96.390, 2872.0, 53.5910
23.573949986, 96.390, 2948.0, 54.2955
23.600210551, 96.390, 2965.0, 54.4518
23.626471116, 96.390, 2838.0, 53.2729
23.652731682, 96.390, 2778.0, 52.7067
23.678992247, 96.390, 2710.0, 52.0577
23.705252813, 96.390, 2692.0, 51.8845
23.731513378, 96.390, 2618.0, 51.1664
23.757773943, 96.390, 2599.0, 50.9804
23.784034509, 96.390, 2779.0, 52.7162
23.810295074, 96.390, 2694.0, 51.9038
23.836555639, 96.390, 2532.0, 50.3190
23.862816205, 96.390, 2802.0, 52.9339
23.889076770, 96.390, 2687.0, 51.8363
23.915337335, 96.390, 2621.0, 51.1957
23.941597901, 96.390, 2623.0, 51.2152
23.967858466, 96.390, 2561.0, 50.6063
23.994119031, 96.390, 2426.0, 49.2544
24.020379597, 96.390, 2532.0, 50.3190
24.046640162, 96.390, 2479.0, 49.7896
24.072900727, 96.390, 2585.0, 50.8429
24.099161293, 96.390, 2576.0, 50.7543
24.125421858, 96.390, 2634.0, 51.3225
24.151682424, 96.390, 2514.0, 50.1398
24.177942989, 96.390, 2629.0, 51.2738
24.204203554, 96.390, 2676.0, 51.7301
24.230464120, 96.390, 2648.0, 51.4587
24.256724685, 96.390, 2581.0, 50.8035
24.282985250, 96.390, 2611.0, 51.0979
24.309245816, 96.390, 2573.0, 50.7247
24.335506381, 96.390, 2539.0, 50.3885
24.361766946, 96.390, 2523.0, 50.2295
24.388027512, 96.390, 2545.0, 50.4480
24.414288077, 96.390, 2522.0, 50.2195
24.440548642, 96.390, 2455.0, 49.5480
24.466809208, 96.390, 2392.0, 48.9081
24.493069773, 96.390, 2559.0, 50.5866
24.519330338, 96.390, 2490.0, 49.8999
24.545590904, 96.390, 2424.0, 49.2341
24.571851469, 96.390, 2386.0, 48.8467
24.598112035, 96.390, 2451.0, 49.5076
24.624372600, 96.390, 2506.0, 50.0600
24.650633165, 96.390, 2426.0, 49.2544
24.676893731, 96.390, 2439.0, 49.3862
24.703154296, 96.390, 2476.0, 49.7594
24.729414861, 96.390, 2487.0, 49.8698
24.755675427, 96.390, 2384.0, 48.8262
24.781935992, 96.390, 2446.0, 49.4571
24.808196557, 96.390, 2370.0, 48.6826
24.834457123, 96.390, 2320.0, 48.1664
24.860717688, 96.390, 2405.0, 49.0408
24.886978253, 96.390, 2452.0, 49.5177
24.913238819, 96.390, 2335.0, 48.3218
24.939499384, 96.390, 2361.0, 48.5901
24.965759950, 96.390, 2439.0, 49.3862
24.992020515, 96.390, 2324.0, 48.2079
25.018281080, 96.390, 2303.0, 47.9896
25.044541646, 96.390, 2322.0, 48.1871
25.070802211, 96.390, 2293.0, 47.8853
25.097062776, 96.390, 2305.0, 48.0104
25.123323342, 96.390, 2355.0, 48.5283
25.149583907, 96.390, 2317.0, 48.1352
25.175844472, 96.390, 2269.0, 47.6340
25.202105038, 96.390, 2273.0, 47.6760
25.228365603, 96.390, 2288.0, 47.8330
25.254626168, 96.390, 2306.0, 48.0208
25.280886734, 96.390, 2316.0, 48.1248
25.307147299, 96.390, 2252.0, 47.4552
25.333407864, 96.390, 2222.0, 47.1381
25.359668430, 96.390, 2303.0, 47.9896
25.385928995, 96.390, 2305.0, 48.0104
25.412189561, 96.390, 2351.0, 48.4871
25.438450126, 96.390, 2389.0, 48.8774
25.464710691, 96.390, 2452.0, 49.5177
25.490971257, 96.390, 2409.0, 49.0816
25.517231822, 96.390, 2313.0, 48.0937
25.543492387, 96.390, 2289.0, 47.8435
25.569752953, 96.390, 2272.0, 47.6655
25.596013518, 96.390, 2271.0, 47.6550
25.622274083, 96.390, 2117.0, 46.0109
25.648534649, 96.390, 2289.0, 47.8435
25.674795214, 96.390, 2268.0, 47.6235
25.701055779, 96.390, 2254.0, 47.4763
25.727316345, 96.390, 2183.0, 46.7226
25.753576910, 96.390, 2113.0, 45.9674
25.779837476, 96.390, 2189.0, 46.7868
25.806098041, 96.390, 2107.0, 45.9021
25.832358606, 96.390, 2221.0, 47.1275
25.858619172, 96.390, 2179.0, 46.6798
25.884879737, 96.390, 2206.0, 46.9681
25.911140302, 96.390, 2168.0, 46.5618
25.937400868, 96.390, 2168.0, 46.5618
25.963661433, 96.390, 2134.0, 46.1952
25.989921998, 96.390, 2243.0, 47.3603
26.016182564, 96.390, 2107.0, 45.9021
26.042443129, 96.390, 2140.0, 46.2601
26.068703694, 96.390, 2185.0, 46.7440
26.094964260, 96.390, 2080.0, 45.6070
26.121224825, 96.390, 2103.0, 45.8585
26.147485390, 96.390, 2188.0, 46.7761
26.173745956, 96.390, 2084.0, 45.6508
26.200006521, 96.390, 2040.0, 45.1664
26.226267087, 96.390, 2107.0, 45.9021
26.252527652, 96.390, 2095.0, 45.7712
26.278788217, 96.390, 2155.0, 46.4220
26.305048783, 96.390, 2107.0, 45.9021
26.331309348, 96.390, 2195.0, 46.8508
26.357569913, 96.390, 2229.0, 47.2123
26.383830479, 96.390, 2055.0, 45.3321
26.410091044, 96.390, 2080.0, 45.6070
26.436351609, 96.390, 2114.0, 45.9783
26.462612175, 96.390, 2082.0, 45.6289
26.488872740, 96.390, 2131.0, 46.1628
26.515133305, 96.390, 2067.0, 45.4643
26.541393871, 96.390, 2050.0, 45.2769
26.567654436, 96.390, 2067.0, 45.4643
26.593915002, 96.390, 1998.0, 44.6990
26.620175567, 96.390, 2106.0, 45.8912
26.646436132, 96.390, 2202.0, 46.9255
26.672696698, 96.390, 2217.0, 47.0850
26.698957263, 96.390, 2141.0, 46.2709
26.725217828, 96.390, 2223.0, 47.1487
26.751478394, 96.390, 2270.0, 47.6445
26.777738959, 96.390, 2329.0, 48.2597
26.803999524, 96.390, 2569.0, 50.6853
26.830260090, 96.390, 2409.0, 49.0816
26.856520655, 96.390, 2401.0, 49.0000
26.882781220, 96.390, 2276.0, 47.7074
26.909041786, 96.390, 2379.0, 48.7750
26.935302351, 96.390, 2216.0, 47.0744
26.961562916, 96.390, 2236.0, 47.2864
26.987823482, 96.390, 2361.0, 48.5901
27.014084047, 96.390, 2354.0, 48.5180
27.040344613, 96.390, 2507.0, 50.0700
27.066605178, 96.390, 2441.0, 49.4065
27.092865743, 96.390, 2562.0, 50.6162
27.119126309, 96.390, 2524.0, 50.2394
27.145386874, 96.390, 2695.0, 51.9134
27.171647439, 96.390, 2743.0, 52.3737
27.197908005, 96.390, 2900.0, 53.8516
27.224168570, 96.390, 2847.0, 53.3573
27.250429135, 96.390, 2622.0, 51.2055
27.276689701, 96.390, 2557.0, 50.5668
27.302950266, 96.390, 2363.0, 48.6107
27.329210831, 96.390, 2266.0, 47.6025
27.355471397, 96.390, 2155.0, 46.4220
27.381731962, 96.390, 2158.0, 46.4543
27.407992528, 96.390, 2035.0, 45.1110
27.434253093, 96.390, 2137.0, 46.2277
27.460513658, 96.390, 2141.0, 46.2709
27.486774224, 96.390, 1954.0, 44.2041
27.513034789, 96.390, 2015.0, 44.8888
27.539295354, 96.390, 2076.0, 45.5631
27.565555920, 96.390, 2036.0, 45.1221
27.591816485, 96.390, 2027.0, 45.0222
27.618077050, 96.390, 2017.0, 44.9110
27.644337616, 96.390, 2029.0, 45.0444
27.670598181, 96.390, 2034.0, 45.0999
27.696858746, 96.390, 2021.0, 44.9555
27.723119312, 96.390, 2022.0, 44.9667
27.749379877, 96.390, 2046.0, 45.2327
27.775640442, 96.390, 2043.0, 45.1996
27.801901008, 96.390, 1922.0, 43.8406
27.828161573, 96.390, 2009.0, 44.8219
27.854422139, 96.390, 2086.0, 45.6727
27.880682704, 96.390, 2034.0, 45.0999
27.906943269, 96.390, 2046.0, 45.2327
27.933203835, 96.390, 2125.0, 46.0977
27.959464400, 96.390, 1996.0, 44.6766
27.985724965, 96.390, 2040.0, 45.1664
28.011985531, 96.390, 1995.0, 44.6654
28.038246096, 96.390, 2102.0, 45.8476
28.064506661, 96.390, 2002.0, 44.7437
28.090767227, 96.390, 2116.0, 46.0000
28.117027792, 96.390, 2075.0, 45.5522
28.143288357, 96.390, 2029.0, 45.0444
28.169548923, 96.390, 2040.0, 45.1664
28.195809488, 96.390, 2004.0, 44.7661
28.222070054, 96.390, 2059.0, 45.3762
28.248330619, 96.390, 2067.0, 45.4643
28.274591184, 96.390, 2023.0, 44.9778
28.300851750, 96.390, 2006.0, 44.7884
28.327112315, 96.390, 2039.0, 45.1553
28.353372880, 96.390, 2091.0, 45.7275
28.379633446, 96.390, 2207.0, 46.9787
28.405894011, 96.390, 2126.0, 46.1086
28.432154576, 96.390, 2194.0, 46.8402
28.458415142, 96.390, 2102.0, 45.8476
28.484675707, 96.390, 2108.0, 45.9130
28.510936272, 96.390, 2088.0, 45.6946
28.537196838, 96.390, 2154.0, 46.4112
28.563457403, 96.390, 2091.0, 45.7275
28.589717968, 96.390, 1981.0, 44.5084
28.615978534, 96.390, 2105.0, 45.8803
28.642239099, 96.390, 1981.0, 44.5084
28.668499665, 96.390, 2027.0, 45.0222
28.694760230, 96.390, 1979.0, 44.4860
28.721020795, 96.390, 2045.0, 45.2217
28.747281361, 96.390, 2070.0, 45.4973
28.773541926, 96.390, 2155.0, 46.4220
28.799802491, 96.390, 2108.0, 45.9130
28.826063057, 96.390, 2037.0, 45.1331
28.852323622, 96.390, 2126.0, 46.1086
28.878584187, 96.390, 1977.0, 44.4635
28.904844753, 96.390, 2089.0, 45.7056
28.931105318, 96.390, 2063.0, 45.4203
28.957365883, 96.390, 2000.0, 44.7214
28.983626449, 96.390, 2022.0, 44.9667
29.009887014, 96.390, 2123.0, 46.0760
29.036147579, 96.390, 2096.0, 45.7821
29.062408145, 96.390, 2165.0, 46.5296
29.088668710, 96.390, 2144.0, 46.3033
29.114929276, 96.390, 2230.0, 47.2229
29.141189841, 96.390, 2202.0, 46.9255
29.167450406, 96.390, 2234.0, 47.2652
29.193710972, 96.390, 2299.0, 47.9479
29.219971537, 96.390, 2256.0, 47.4974
29.246232102, 96.390, 2350.0, 48.4768
29.272492668, 96.390, 2368.0, 48.6621
29.298753233, 96.390, 2458.0, 49.5782
29.325013798, 96.390, 2662.0, 51.5946
29.351274364, 96.390, 2512.0, 50.1199
29.377534929, 96.390, 2501.0, 50.0100
29.403795494, 96.390, 2411.0, 49.1019
29.430056060, 96.390, 2349.0, 48.4665
29.456316625, 96.390, 2414.0, 49.1325
29.482577191, 96.390, 2451.0, 49.5076
29.508837756, 96.390, 2386.0, 48.8467
29.535098321, 96.390, 2425.0, 49.2443
29.561358887, 96.390, 2288.0, 47.8330
29.587619452, 96.390, 2217.0, 47.0850
29.613880017, 96.390, 2187.0, 46.7654
29.640140583, 96.390, 2152.0, 46.3897
29.666401148, 96.390, 2121.0, 46.0543
29.692661713, 96.390, 2075.0, 45.5522
29.718922279, 96.390, 2216.0, 47.0744
29.745182844, 96.390, 2123.0, 46.0760
29.771443409, 96.390, 2089.0, 45.7056
29.797703975, 96.390, 2172.0, 46.6047
29.823964540, 96.390, 2037.0, 45.1331
29.850225105, 96.390, 2042.0, 45.1885
29.876485671, 96.390, 2001.0, 44.7325
29.902746236, 96.390, 2008.0, 44.8107
29.929006802, 96.390, 2001.0, 44.7325
29.955267367, 96.390, 2058.0, 45.3652
29.981527932, 96.390, 2104.0, 45.8694
30.007788498, 96.390, 2065.0, 45.4423
30.034049063, 96.390, 2022.0, 44.9667
30.060309628, 96.390, 2014.0, 44.8776
30.086570194, 96.390, 1993.0, 44.6430
30.112830759, 96.390, 2083.0, 45.6399
30.139091324, 96.390, 1970.0, 44.3847
30.165351890, 96.390, 1959.0, 44.2606
30.191612455, 96.390, 2001.0, 44.7325
30.217873020, 96.390, 2012.0, 44.8553
30.244133586, 96.390, 2095.0, 45.7712
30.270394151, 96.390, 1974.0, 44.4297
30.296654717, 96.390, 2058.0, 45.3652
30.322915282, 96.390, 2030.0, 45.0555
30.349175847, 96.390, 2002.0, 44.7437
30.375436413, 96.390, 2093.0, 45.7493
30.401696978, 96.390, 2034.0, 45.0999
30.427957543, 96.390, 2037.0, 45.1331
30.454218109, 96.390, 2013.0, 44.8665
30.480478674, 96.390, 2067.0, 45.4643
30.506739239, 96.390, 2082.0, 45.6289
30.532999805, 96.390, 2113.0, 45.9674
30.559260370, 96.390, 2052.0, 45.2990
30.585520935, 96.390, 2117.0, 46.0109
30.611781501, 96.390, 2114.0, 45.9783
30.638042066, 96.390, 2149.0, 46.3573
30.664302631, 96.390, 2213.0, 47.0425
30.690563197, 96.390, 2285.0, 47.8017
30.716823762, 96.390, 2226.0, 47.1805
30.743084328, 96.390, 2273.0, 47.6760
30.769344893, 96.390, 2235.0, 47.2758
30.795605458, 96.390, 2173.0, 46.6154
30.821866024, 96.390, 2168.0, 46.5618
30.848126589, 96.390, 2215.0, 47.0638
30.874387154, 96.390, 2161.0, 46.4866
30.900647720, 96.390, 2141.0, 46.2709
30.926908285, 96.390, 2067.0, 45.4643
30.953168850, 96.390, 2072.0, 45.5192
30.979429416, 96.390, 2017.0, 44.9110
31.005689981, 96.390, 2023.0, 44.9778
31.031950546, 96.390, 2008.0, 44.8107
31.058211112, 96.390, 1977.0, 44.4635
31.084471677, 96.390, 2042.0, 45.1885
31.110732243, 96.390, 2081.0, 45.6180
31.136992808, 96.390, 2203.0, 46.9361
31.163253373, 96.390, 2237.0, 47.2969
31.189513939, 96.390, 2230.0, 47.2229
31.215774504, 96.390, 2491.0, 49.9099
31.242035069, 96.390, 2504.0, 50.0400
31.268295635, 96.390, 2503.0, 50.0300
31.294556200, 96.390, 2588.0, 50.8724
31.320816765, 96.390, 2505.0, 50.0500
31.347077331, 96.390, 2490.0, 49.8999
31.373337896, 96.390, 2479.0, 49.7896
31.399598461, 96.390, 2413.0, 49.1223
31.425859027, 96.390, 2382.0, 48.8057
31.452119592, 96.390, 2242.0, 47.3498
31.478380157, 96.390, 2272.0, 47.6655
31.504640723, 96.390, 2279.0, 47.7389
31.530901288, 96.390, 2156.0, 46.4327
31.557161854, 96.390, 2186.0, 46.7547
31.583422419, 96.390, 2127.0, 46.1194
31.609682984, 96.390, 2042.0, 45.1885
31.635943550, 96.390, 2155.0, 46.4220
31.662204115, 96.390, 2098.0, 45.8039
31.688464680, 96.390, 2150.0, 46.3681
31.714725246, 96.390, 2172.0, 46.6047
31.740985811, 96.390, 2119.0, 46.0326
31.767246376, 96.390, 2019.0, 44.9333
31.793506942, 96.390, 1999.0, 44.7102
31.819767507, 96.390, 2029.0, 45.0444
31.846028072, 96.390, 2003.0, 44.7549
31.872288638, 96.390, 2065.0, 45.4423
31.898549203, 96.390, 2060.0, 45.3872
31.924809769, 96.390, 2029.0, 45.0444
31.951070334, 96.390, 2086.0, 45.6727
31.977330899, 96.390, 2197.0, 46.8722
32.003591465, 96.390, 2356.0, 48.5386
32.029852030, 96.390, 2532.0, 50.3190
32.056112595, 96.390, 2746.0, 52.4023
32.082373161, 96.390, 2914.0, 53.9815
32.108633726, 96.390, 2840.0, 53.2917
32.134894291, 96.390, 2636.0, 51.3420
32.161154857, 96.390, 2577.0, 50.7642
32.187415422, 96.390, 2442.0, 49.4166
32.213675987, 96.390, 2265.0, 47.5920
32.239936553, 96.390, 2355.0, 48.5283
32.266197118, 96.390, 2314.0, 48.1041
32.292457683, 96.390, 2256.0, 47.4974
32.318718249, 96.390, 2301.0, 47.9687
32.344978814, 96.390, 2197.0, 46.8722
32.371239380, 96.390, 2128.0, 46.1303
32.397499945, 96.390, 2135.0, 46.2061
32.423760510, 96.390, 2033.0, 45.0888
32.450021076, 96.390, 1977.0, 44.4635
32.476281641, 96.390, 1954.0, 44.2041
32.502542206, 96.390, 2002.0, 44.7437
32.528802772, 96.390, 1942.0, 44.0681
32.555063337, 96.390, 1847.0, 42.9767
32.581323902, 96.390, 1965.0, 44.3283
32.607584468, 96.390, 2005.0, 44.7772
32.633845033, 96.390, 2036.0, 45.1221
32.660105598, 96.390, 1945.0, 44.1022
32.686366164, 96.390, 2088.0, 45.6946
32.712626729, 96.390, 2035.0, 45.1110
32.738887295, 96.390, 1984.0, 44.5421
32.765147860, 96.390, 1951.0, 44.1701
32.791408425, 96.390, 2007.0, 44.7996
32.817668991, 96.390, 1994.0, 44.6542
32.843929556, 96.390, 1974.0, 44.4297
32.870190121, 96.390, 1945.0, 44.1022
32.896450687, 96.390, 1937.0, 44.0114
32.922711252, 96.390, 2011.0, 44.8442
32.948971817, 96.390, 1935.0, 43.9886
32.975232383, 96.390, 2034.0, 45.0999
33.001492948, 96.390, 1997.0, 44.6878
33.027753513, 96.390, 1905.0, 43.6463
33.054014079, 96.390, 1979.0, 44.4860
33.080274644, 96.390, 1969.0, 44.3734
33.106535209, 96.390, 1996.0, 44.6766
33.132795775, 96.390, 2044.0, 45.2106
33.159056340, 96.390, 2058.0, 45.3652
33.185316906, 96.390, 2020.0, 44.9444
33.211577471, 96.390, 2053.0, 45.3100
33.237838036, 96.390, 2049.0, 45.2659
33.264098602, 96.390, 2061.0, 45.3982
33.290359167, 96.390, 2088.0, 45.6946
33.316619732, 96.390, 2010.0, 44.8330
33.342880298, 96.390, 2024.0, 44.9889
33.369140863, 96.390, 1959.0, 44.2606
33.395401428, 96.390, 2003.0, 44.7549
33.421661994, 96.390, 2032.0, 45.0777
33.447922559, 96.390, 2049.0, 45.2659
33.474183124, 96.390, 1977.0, 44.4635
33.500443690, 96.390, 1971.0, 44.3959
33.526704255, 96.390, 1973.0, 44.4185
33.552964820, 96.390, 1985.0, 44.5533
33.579225386, 96.390, 1933.0, 43.9659
33.605485951, 96.390, 2036.0, 45.1221
33.631746517, 96.390, 2034.0, 45.0999
33.658007082, 96.390, 1987.0, 44.5758
33.684267647, 96.390, 2009.0, 44.8219
33.710528213, 96.390, 2032.0, 45.0777
33.736788778, 96.390, 2014.0, 44.8776
33.763049343, 96.390, 1996.0, 44.6766
33.789309909, 96.390, 2036.0, 45.1221
33.815570474, 96.390, 1989.0, 44.5982
33.841831039, 96.390, 2055.0, 45.3321
33.868091605, 96.390, 2017.0, 44.9110
33.894352170, 96.390, 2031.0, 45.0666
33.920612735, 96.390, 2202.0, 46.9255
33.946873301, 96.390, 2253.0, 47.4658
33.973133866, 96.390, 2358.0, 48.5592
33.999394432, 96.390, 2230.0, 47.2229
34.025654997, 96.390, 2251.0, 47.4447
34.051915562, 96.390, 2239.0, 47.3181
34.078176128, 96.390, 2224.0, 47.1593
34.104436693, 96.390, 2181.0, 46.7012
34.130697258, 96.390, 2273.0, 47.6760
34.156957824, 96.390, 2046.0, 45.2327
34.183218389, 96.390, 2148.0, 46.3465
34.209478954, 96.390, 2143.0, 46.2925
34.235739520, 96.390, 2103.0, 45.8585
34.262000085, 96.390, 2135.0, 46.2061
34.288260650, 96.390, 2142.0, 46.2817
34.314521216, 96.390, 2262.0, 47.5605
34.340781781, 96.390, 2223.0, 47.1487
34.367042346, 96.390, 2194.0, 46.8402
34.393302912, 96.390, 2191.0, 46.8081
34.419563477, 96.390, 2242.0, 47.3498
34.445824043, 96.390, 2407.0, 49.0612
34.472084608, 96.390, 2477.0, 49.7695
34.498345173, 96.390, 2656.0, 51.5364
34.524605739, 96.390, 2677.0, 51.7397
34.550866304, 96.390, 2694.0, 51.9038
34.577126869, 96.390, 2707.0, 52.0288
34.603387435, 96.390, 2712.0, 52.0769
34.629648000, 96.390, 2709.0, 52.0481
34.655908565, 96.390, 2413.0, 49.1223
34.682169131, 96.390, 2533.0, 50.3289
34.708429696, 96.390, 2543.0, 50.4282
34.734690261, 96.390, 2342.0, 48.3942
34.760950827, 96.390, 2356.0, 48.5386
34.787211392, 96.390, 2355.0, 48.5283
34.813471958, 96.390, 2312.0, 48.0833
34.839732523, 96.390, 2354.0, 48.5180
34.865993088, 96.390, 2338.0, 48.3529
34.892253654, 96.390, 2400.0, 48.9898
34.918514219, 96.390, 2583.0, 50.8232
34.944774784, 96.390, 2526.0, 50.2593
34.971035350, 96.390, 2644.0, 51.4198
34.997295915, 96.390, 2505.0, 50.0500
35.023556480, 96.390, 2439.0, 49.3862
35.049817046, 96.390, 2408.0, 49.0714
35.076077611, 96.390, 2431.0, 49.3052
35.102338176, 96.390, 2331.0, 48.2804
35.128598742, 96.390, 2369.0, 48.6724
35.154859307, 96.390, 2355.0, 48.5283
35.181119872, 96.390, 2435.0, 49.3457
35.207380438, 96.390, 2466.0, 49.6588
35.233641003, 96.390, 2347.0, 48.4458
35.259901569, 96.390, 2251.0, 47.4447
35.286162134, 96.390, 2354.0, 48.5180
35.312422699, 96.390, 2297.0, 47.9270
35.338683265, 96.390, 2277.0, 47.7179
35.364943830, 96.390, 2291.0, 47.8644
35.391204395, 96.390, 2157.0, 46.4435
35.417464961, 96.390, 2126.0, 46.1086
35.443725526, 96.390, 2228.0, 47.2017
35.469986091, 96.390, 2182.0, 46.7119
35.496246657, 96.390, 2111.0, 45.9456
35.522507222, 96.390, 2138.0, 46.2385
35.548767787, 96.390, 2087.0, 45.6837
35.575028353, 96.390, 2125.0, 46.0977
35.601288918, 96.390, 2169.0, 46.5725
35.627549484, 96.390, 2097.0, 45.7930
35.653810049, 96.390, 2129.0, 46.1411
35.680070614, 96.390, 2176.0, 46.6476
35.706331180, 96.390, 2129.0, 46.1411
35.732591745, 96.390, 2111.0, 45.9456
35.758852310, 96.390, 2151.0, 46.3789
35.785112876, 96.390, 2088.0, 45.6946
35.811373441, 96.390, 2197.0, 46.8722
35.837634006, 96.390, 2159.0, 46.4650
35.863894572, 96.390, 2181.0, 46.7012
35.890155137, 96.390, 2236.0, 47.2864
35.916415702, 96.390, 2268.0, 47.6235
35.942676268, 96.390, 2420.0, 49.1935
35.968936833, 96.390, 2377.0, 48.7545
35.995197398, 96.390, 2159.0, 46.4650
36.021457964, 96.390, 2196.0, 46.8615
36.047718529, 96.390, 2222.0, 47.1381
36.073979095, 96.390, 2257.0, 47.5079
36.100239660, 96.390, 2149.0, 46.3573
36.126500225, 96.390, 2224.0, 47.1593
36.152760791, 96.390, 2340.0, 48.3735
36.179021356, 96.390, 2427.0, 49.2646
36.205281921, 96.390, 2452.0, 49.5177
36.231542487, 96.390, 2421.0, 49.2037
36.257803052, 96.390, 2344.0, 48.4149
36.284063617, 96.390, 2211.0, 47.0213
36.310324183, 96.390, 2292.0, 47.8748
36.336584748, 96.390, 2154.0, 46.4112
36.362845313, 96.390, 2002.0, 44.7437
36.389105879, 96.390, 1939.0, 44.0341
36.415366444, 96.390, 1930.0, 43.9318
36.441627010, 96.390, 1908.0, 43.6807
36.467887575, 96.390, 1875.0, 43.3013
36.494148140, 96.390, 1898.0, 43.5660
36.520408706, 96.390, 1954.0, 44.2041
36.546669271, 96.390, 1900.0, 43.5890
36.572929836, 96.390, 1855.0, 43.0697
36.599190402, 96.390, 1928.0, 43.9090
36.625450967, 96.390, 1791.0, 42.3202
36.651711532, 96.390, 1796.0, 42.3792
36.677972098, 96.390, 1899.0, 43.5775
36.704232663, 96.390, 1828.0, 42.7551
36.730493228, 96.390, 1827.0, 42.7434
36.756753794, 96.390, 1858.0, 43.1045
36.783014359, 96.390, 1793.0, 42.3438
36.809274924, 96.390, 1769.0, 42.0595
36.835535490, 96.390, 1888.0, 43.4511
36.861796055, 96.390, 1737.0, 41.6773
36.888056621, 96.390, 1757.0, 41.9166
36.914317186, 96.390, 1811.0, 42.5558
36.940577751, 96.390, 1785.0, 42.2493
36.966838317, 96.390, 1783.0, 42.2256
36.993098882, 96.390, 1824.0, 42.7083
37.019359447, 96.390, 1807.0, 42.5088
37.045620013, 96.390, 1780.0, 42.1900
37.071880578, 96.390, 1736.0, 41.6653
37.098141143, 96.390, 1825.0, 42.7200
37.124401709, 96.390, 1723.0, 41.5090
37.150662274, 96.390, 1764.0, 42.0000
37.176922839, 96.390, 1770.0, 42.0714
37.203183405, 96.390, 1751.0, 41.8450
37.229443970, 96.390, 1897.0, 43.5546
37.255704535, 96.390, 1824.0, 42.7083
37.281965101, 96.390, 1846.0, 42.9651
37.308225666, 96.390, 1779.0, 42.1782
37.334486232, 96.390, 1829.0, 42.7668
37.360746797, 96.390, 1716.0, 41.4246
37.387007362, 96.390, 1789.0, 42.2966
37.413267928, 96.390, 1791.0, 42.3202
37.439528493, 96.390, 1878.0, 43.3359
37.465789058, 96.390, 1816.0, 42.6146
37.492049624, 96.390, 1881.0, 43.3705
37.518310189, 96.390, 1875.0, 43.3013
37.544570754, 96.390, 1886.0, 43.4281
37.570831320, 96.390, 1874.0, 43.2897
37.597091885, 96.390, 1793.0, 42.3438
37.623352450, 96.390, 1808.0, 42.5206
37.649613016, 96.390, 1837.0, 42.8602
37.675873581, 96.390, 1714.0, 41.4005
37.702134147, 96.390, 1788.0, 42.2847
37.728394712, 96.390, 1927.0, 43.8976
37.754655277, 96.390, 1910.0, 43.7035
37.780915843, 96.390, 1878.0, 43.3359
37.807176408, 96.390, 1936.0, 44.0000
37.833436973, 96.390, 1846.0, 42.9651
37.859697539, 96.390, 1922.0, 43.8406
37.885958104, 96.390, 1858.0, 43.1045
37.912218669, 96.390, 1797.0, 42.3910
37.938479235, 96.390, 1812.0, 42.5676
37.964739800, 96.390, 1904.0, 43.6348
37.991000365, 96.390, 1834.0, 42.8252
38.017260931, 96.390, 1853.0, 43.0465
38.043521496, 96.390, 1749.0, 41.8210
38.069782061, 96.390, 1785.0, 42.2493
38.096042627, 96.390, 1721.0, 41.4849
38.122303192, 96.390, 1730.0, 41.5933
38.148563758, 96.390, 1774.0, 42.1189
38.174824323, 96.390, 1802.0, 42.4500
38.201084888, 96.390, 1760.0, 41.9524
38.227345454, 96.390, 1782.0, 42.2137
38.253606019, 96.390, 1719.0, 41.4608
38.279866584, 96.390, 1743.0, 41.7493
38.306127150, 96.390, 1670.0, 40.8656
38.332387715, 96.390, 1670.0, 40.8656
38.358648280, 96.390, 1603.0, 40.0375
38.384908846, 96.390, 1720.0, 41.4729
38.411169411, 96.390, 1620.0, 40.2492
38.437429976, 96.390, 1586.0, 39.8246
38.463690542, 96.390, 1615.0, 40.1871
38.489951107, 96.390, 1689.0, 41.0974
38.516211673, 96.390, 1606.0, 40.0749
38.542472238, 96.390, 1569.0, 39.6106
38.568732803, 96.390, 1652.0, 40.6448
38.594993369, 96.390, 1682.0, 41.0122
38.621253934, 96.390, 1615.0, 40.1871
38.647514499, 96.390, 1671.0, 40.8779
38.673775065, 96.390, 1569.0, 39.6106
38.700035630, 96.390, 1562.0, 39.5221
38.726296195, 96.390, 1608.0, 40.0999
38.752556761, 96.390, 1605.0, 40.0625
38.778817326, 96.390, 1707.0, 41.3159
38.805077891, 96.390, 1609.0, 40.1123
38.831338457, 96.390, 1607.0, 40.0874
38.857599022, 96.390, 1600.0, 40.0000
38.883859587, 96.390, 1623.0, 40.2865
38.910120153, 96.390, 1533.0, 39.1535
38.936380718, 96.390, 1520.0, 38.9872
38.962641284, 96.390, 1529.0, 39.1024
38.988901849, 96.390, 1493.0, 38.6394
39.015162414, 96.390, 1552.0, 39.3954
39.041422980, 96.390, 1554.0, 39.4208
39.067683545, 96.390, 1553.0, 39.4081
39.093944110, 96.390, 1542.0, 39.2683
39.120204676, 96.390, 1536.0, 39.1918
39.146465241, 96.390, 1483.0, 38.5097
39.172725806, 96.390, 1527.0, 39.0768
39.198986372, 96.390, 1566.0, 39.5727
39.225246937, 96.390, 1641.0, 40.5093
39.251507502, 96.390, 1568.0, 39.5980
39.277768068, 96.390, 1580.0, 39.7492
39.304028633, 96.390, 1530.0, 39.1152
39.330289199, 96.390, 1624.0, 40.2989
39.356549764, 96.390, 1573.0, 39.6611
39.382810329, 96.390, 1570.0, 39.6232
39.409070895, 96.390, 1609.0, 40.1123
39.435331460, 96.390, 1616.0, 40.1995
39.461592025, 96.390, 1620.0, 40.2492
39.487852591, 96.390, 1580.0, 39.7492
39.514113156, 96.390, 1559.0, 39.4842
39.540373721, 96.390, 1536.0, 39.1918
39.566634287, 96.390, 1564.0, 39.5474
39.592894852, 96.390, 1564.0, 39.5474
39.619155417, 96.390, 1499.0, 38.7169
39.645415983, 96.390, 1483.0, 38.5097
39.671676548, 96.390, 1447.0, 38.0395
39.697937113, 96.390, 1458.0, 38.1838
39.724197679, 96.390, 1497.0, 38.6911
39.750458244, 96.390, 1429.0, 37.8021
39.776718810, 96.390, 1496.0, 38.6782
39.802979375, 96.390, 1448.0, 38.0526
39.829239940, 96.390, 1553.0, 39.4081
39.855500506, 96.390, 1482.0, 38.4968
39.881761071, 96.390, 1461.0, 38.2230
39.908021636, 96.390, 1492.0, 38.6264
39.934282202, 96.390, 1520.0, 38.9872
39.960542767, 96.390, 1396.0, 37.3631
39.986803332, 96.390, 1481.0, 38.4838
40.013063898, 96.390, 1505.0, 38.7943
40.039324463, 96.390, 1560.0, 39.4968
40.065585028, 96.390, 1473.0, 38.3797
40.091845594, 96.390, 1477.0, 38.4318
40.118106159, 96.390, 1534.0, 39.1663
40.144366725, 96.390, 1523.0, 39.0256
40.170627290, 96.390, 1424.0, 37.7359
40.196887855, 96.390, 1504.0, 38.7814
40.223148421, 96.390, 1354.0, 36.7967
40.249408986, 96.390, 1402.0, 37.4433
40.275669551, 96.390, 1393.0, 37.3229
40.301930117, 96.390, 1368.0, 36.9865
40.328190682, 96.390, 1382.0, 37.1753
40.354451247, 96.390, 1290.0, 35.9166
40.380711813, 96.390, 1323.0, 36.3731
40.406972378, 96.390, 1410.0, 37.5500
40.433232943, 96.390, 1395.0, 37.3497
40.459493509, 96.390, 1407.0, 37.5100
40.485754074, 96.390, 1381.0, 37.1618
40.512014639, 96.390, 1495.0, 38.6652
40.538275205, 96.390, 1393.0, 37.3229
40.564535770, 96.390, 1400.0, 37.4166
40.590796336, 96.390, 1488.0, 38.5746
40.617056901, 96.390, 1479.0, 38.4578
40.643317466, 96.390, 1450.0, 38.0789
40.669578032, 96.390, 1427.0, 37.7757
40.695838597, 96.390, 1446.0, 38.0263
40.722099162, 96.390, 1387.0, 37.2424
40.748359728, 96.390, 1459.0, 38.1969
40.774620293, 96.390, 1325.0, 36.4005
40.800880858, 96.390, 1342.0, 36.6333
40.827141424, 96.390, 1380.0, 37.1484
40.853401989, 96.390, 1364.0, 36.9324
40.879662554, 96.390, 1351.0, 36.7560
40.905923120, 96.390, 1357.0, 36.8375
40.932183685, 96.390, 1367.0, 36.9730
40.958444251, 96.390, 1322.0, 36.3593
40.984704816, 96.390, 1260.0, 35.4965
41.010965381, 96.390, 1314.0, 36.2491
41.037225947, 96.390, 1380.0, 37.1484
41.063486512, 96.390, 1341.0, 36.6197
41.089747077, 96.390, 1307.0, 36.1525
41.116007643, 96.390, 1356.0, 36.8239
41.142268208, 96.390, 1320.0, 36.3318
41.168528773, 96.390, 1307.0, 36.1525
41.194789339, 96.390, 1313.0, 36.2353
41.221049904, 96.390, 1301.0, 36.0694
41.247310469, 96.390, 1337.0, 36.5650
41.273571035, 96.390, 1334.0, 36.5240
41.299831600, 96.390, 1317.0, 36.2905
41.326092165, 96.390, 1344.0, 36.6606
41.352352731, 96.390, 1409.0, 37.5366
41.378613296, 96.390, 1407.0, 37.5100
41.404873862, 96.390, 1432.0, 37.8418
41.431134427, 96.390, 1432.0, 37.8418
41.457394992, 96.390, 1329.0, 36.4555
41.483655558, 96.390, 1348.0, 36.7151
41.509916123, 96.390, 1396.0, 37.3631
41.536176688, 96.390, 1332.0, 36.4966
41.562437254, 96.390, 1337.0, 36.5650
41.588697819, 96.390, 1320.0, 36.3318
41.614958384, 96.390, 1388.0, 37.2559
41.641218950, 96.390, 1358.0, 36.8511
41.667479515, 96.390, 1234.0, 35.1283
41.693740080, 96.390, 1285.0, 35.8469
41.720000646, 96.390, 1325.0, 36.4005
41.746261211, 96.390, 1373.0, 37.0540
41.772521776, 96.390, 1322.0, 36.3593
41.798782342, 96.390, 1307.0, 36.1525
41.825042907, 96.390, 1304.0, 36.1109
41.851303473, 96.390, 1312.0, 36.2215
41.877564038, 96.390, 1291.0, 35.9305
41.903824603, 96.390, 1295.0, 35.9861
41.930085169, 96.390, 1278.0, 35.7491
41.956345734, 96.390, 1280.0, 35.7771
41.982606299, 96.390, 1327.0, 36.4280
42.008866865, 96.390, 1237.0, 35.1710
42.035127430, 96.390, 1337.0, 36.5650
42.061387995, 96.390, 1294.0, 35.9722
42.087648561, 96.390, 1387.0, 37.2424
42.113909126, 96.390, 1567.0, 39.5854
42.140169691, 96.390, 1495.0, 38.6652
42.166430257, 96.390, 1491.0, 38.6135
42.192690822, 96.390, 1510.0, 38.8587
42.218951388, 96.390, 1475.0, 38.4057
42.245211953, 96.390, 1407.0, 37.5100
42.271472518, 96.390, 1436.0, 37.8946
42.297733084, 96.390, 1375.0, 37.0810
42.323993649, 96.390, 1369.0, 37.0000
42.350254214, 96.390, 1268.0, 35.6090
42.376514780, 96.390, 1325.0, 36.4005
42.402775345, 96.390, 1361.0, 36.8917
42.429035910, 96.390, 1305.0, 36.1248
42.455296476, 96.390, 1308.0, 36.1663
42.481557041, 96.390, 1272.0, 35.6651
42.507817606, 96.390, 1340.0, 36.6060
42.534078172, 96.390, 1246.0, 35.2987
42.560338737, 96.390, 1253.0, 35.3977
42.586599302, 96.390, 1279.0, 35.7631
42.612859868, 96.390, 1266.0, 35.5809
42.639120433, 96.390, 1316.0, 36.2767
42.665380999, 96.390, 1306.0, 36.1386
42.691641564, 96.390, 1377.0, 37.1080
42.717902129, 96.390, 1338.0, 36.5787
42.744162695, 96.390, 1356.0, 36.8239
42.770423260, 96.390, 1306.0, 36.1386
42.796683825, 96.390, 1315.0, 36.2629
42.822944391, 96.390, 1284.0, 35.8329
42.849204956, 96.390, 1249.0, 35.3412
42.875465521, 96.390, 1307.0, 36.1525
42.901726087, 96.390, 1218.0, 34.8999
42.927986652, 96.390, 1283.0, 35.8190
42.954247217, 96.390, 1248.0, 35.3270
42.980507783, 96.390, 1214.0, 34.8425
43.006768348, 96.390, 1237.0, 35.1710
43.033028914, 96.390, 1229.0, 35.0571
43.059289479, 96.390, 1297.0, 36.0139
43.085550044, 96.390, 1227.0, 35.0286
43.111810610, 96.390, 1238.0, 35.1852
43.138071175, 96.390, 1293.0, 35.9583
43.164331740, 96.390, 1283.0, 35.8190
43.190592306, 96.390, 1262.0, 35.5246
43.216852871, 96.390, 1282.0, 35.8050
43.243113436, 96.390, 1263.0, 35.5387
43.269374002, 96.390, 1254.0, 35.4119
43.295634567, 96.390, 1237.0, 35.1710
43.321895132, 96.390, 1234.0, 35.1283
43.348155698, 96.390, 1343.0, 36.6470
43.374416263, 96.390, 1205.0, 34.7131
43.400676828, 96.390, 1172.0, 34.2345
43.426937394, 96.390, 1218.0, 34.8999
43.453197959, 96.390, 1240.0, 35.2136
43.479458525, 96.390, 1209.0, 34.7707
43.505719090, 96.390, 1210.0, 34.7851
43.531979655, 96.390, 1236.0, 35.1568
43.558240221, 96.390, 1182.0, 34.3802
43.584500786, 96.390, 1253.0, 35.3977
43.610761351, 96.390, 1251.0, 35.3695
43.637021917, 96.390, 1217.0, 34.8855
43.663282482, 96.390, 1240.0, 35.2136
43.689543047, 96.390, 1267.0, 35.5949
43.715803613, 96.390, 1289.0, 35.9026
43.742064178, 96.390, 1323.0, 36.3731
43.768324743, 96.390, 1325.0, 36.4005
43.794585309, 96.390, 1371.0, 37.0270
43.820845874, 96.390, 1350.0, 36.7423
43.847106440, 96.390, 1319.0, 36.3180
43.873367005, 96.390, 1320.0, 36.3318
43.899627570, 96.390, 1397.0, 37.3765
43.925888136, 96.390, 1351.0, 36.7560
43.952148701, 96.390, 1286.0, 35.8608
43.978409266, 96.390, 1290.0, 35.9166
44.004669832, 96.390, 1291.0, 35.9305
44.030930397, 96.390, 1284.0, 35.8329
44.057190962, 96.390, 1242.0, 35.2420
44.083451528, 96.390, 1275.0, 35.7071
44.109712093, 96.390, 1302.0, 36.0832
44.135972658, 96.390, 1256.0, 35.4401
44.162233224, 96.390, 1267.0, 35.5949
44.188493789, 96.390, 1280.0, 35.7771
44.214754354, 96.390, 1305.0, 36.1248
44.241014920, 96.390, 1264.0, 35.5528
44.267275485, 96.390, 1257.0, 35.4542
44.293536051, 96.390, 1361.0, 36.8917
44.319796616, 96.390, 1281.0, 35.7911
44.346057181, 96.390, 1406.0, 37.4967
44.372317747, 96.390, 1395.0, 37.3497
44.398578312, 96.390, 1296.0, 36.0000
44.424838877, 96.390, 1336.0, 36.5513
44.451099443, 96.390, 1346.0, 36.6879
44.477360008, 96.390, 1264.0, 35.5528
44.503620573, 96.390, 1385.0, 37.2156
44.529881139, 96.390, 1267.0, 35.5949
44.556141704, 96.390, 1317.0, 36.2905
44.582402269, 96.390, 1361.0, 36.8917
44.608662835, 96.390, 1334.0, 36.5240
44.634923400, 96.390, 1299.0, 36.0416
44.661183966, 96.390, 1281.0, 35.7911
44.687444531, 96.390, 1298.0, 36.0278
44.713705096, 96.390, 1285.0, 35.8469
44.739965662, 96.390, 1311.0, 36.2077
44.766226227, 96.390, 1308.0, 36.1663
44.792486792, 96.390, 1348.0, 36.7151
44.818747358, 96.390, 1377.0, 37.1080
44.845007923, 96.390, 1350.0, 36.7423
44.871268488, 96.390, 1325.0, 36.4005
44.897529054, 96.390, 1376.0, 37.0945
44.923789619, 96.390, 1281.0, 35.7911
44.950050184, 96.390, 1282.0, 35.8050
44.976310750, 96.390, 1300.0, 36.0555
45.002571315, 96.390, 1320.0, 36.3318
45.028831880, 96.390, 1309.0, 36.1801
45.055092446, 96.390, 1176.0, 34.2929
45.081353011, 96.390, 1325.0, 36.4005
45.107613577, 96.390, 1374.0, 37.0675
45.133874142, 96.390, 1387.0, 37.2424
45.160134707, 96.390, 1402.0, 37.4433
45.186395273, 96.390, 1373.0, 37.0540
45.212655838, 96.390, 1394.0, 37.3363
45.238916403, 96.390, 1374.0, 37.0675
45.265176969, 96.390, 1338.0, 36.5787
45.291437534, 96.390, 1339.0, 36.5923
45.317698099, 96.390, 1406.0, 37.4967
45.343958665, 96.390, 1362.0, 36.9053
45.370219230, 96.390, 1383.0, 37.1887
45.396479795, 96.390, 1284.0, 35.8329
45.422740361, 96.390, 1369.0, 37.0000
45.449000926, 96.390, 1339.0, 36.5923
45.475261492, 96.390, 1376.0, 37.0945
45.501522057, 96.390, 1326.0, 36.4143
45.527782622, 96.390, 1387.0, 37.2424
45.554043188, 96.390, 1364.0, 36.9324
45.580303753, 96.390, 1308.0, 36.1663
45.606564318, 96.390, 1270.0, 35.6371
45.632824884, 96.390, 1307.0, 36.1525
45.659085449, 96.390, 1213.0, 34.8281
45.685346014, 96.390, 1279.0, 35.7631
45.711606580, 96.390, 1371.0, 37.0270
45.737867145, 96.390, 1295.0, 35.9861
45.764127710, 96.390, 1334.0, 36.5240
45.790388276, 96.390, 1311.0, 36.2077
45.816648841, 96.390, 1258.0, 35.4683
45.842909406, 96.390, 1288.0, 35.8887
45.869169972, 96.390, 1353.0, 36.7831
45.895430537, 96.390, 1257.0, 35.4542
45.921691103, 96.390, 1304.0, 36.1109
45.947951668, 96.390, 1292.0, 35.9444
45.974212233, 96.390, 1351.0, 36.7560
46.000472799, 96.390, 1314.0, 36.2491
46.026733364, 96.390, 1306.0, 36.1386
46.052993929, 96.390, 1262.0, 35.5246
46.079254495, 96.390, 1323.0, 36.3731
46.105515060, 96.390, 1343.0, 36.6470
46.131775625, 96.390, 1329.0, 36.4555
46.158036191, 96.390, 1356.0, 36.8239
46.184296756, 96.390, 1416.0, 37.6298
46.210557321, 96.390, 1412.0, 37.5766
46.236817887, 96.390, 1443.0, 37.9868
46.263078452, 96.390, 1449.0, 38.0657
46.289339017, 96.390, 1445.0, 38.0132
46.315599583, 96.390, 1474.0, 38.3927
46.341860148, 96.390, 1446.0, 38.0263
46.368120714, 96.390, 1417.0, 37.6431
46.394381279, 96.390, 1334.0, 36.5240
46.420641844, 96.390, 1328.0, 36.4417
46.446902410, 96.390, 1331.0, 36.4829
46.473162975, 96.390, 1303.0, 36.0971
46.499423540, 96.390, 1306.0, 36.1386
46.525684106, 96.390, 1270.0, 35.6371
46.551944671, 96.390, 1288.0, 35.8887
46.578205236, 96.390, 1348.0, 36.7151
46.604465802, 96.390, 1330.0, 36.4692
46.630726367, 96.390, 1308.0, 36.1663
46.656986932, 96.390, 1294.0, 35.9722
46.683247498, 96.390, 1378.0, 37.1214
46.709508063, 96.390, 1306.0, 36.1386
46.735768629, 96.390, 1293.0, 35.9583
46.762029194, 96.390, 1328.0, 36.4417
46.788289759, 96.390, 1330.0, 36.4692
46.814550325, 96.390, 1308.0, 36.1663
46.840810890, 96.390, 1295.0, 35.9861
46.867071455, 96.390, 1292.0, 35.9444
46.893332021, 96.390, 1242.0, 35.2420
46.919592586, 96.390, 1241.0, 35.2278
46.945853151, 96.390, 1318.0, 36.3043
46.972113717, 96.390, 1312.0, 36.2215
46.998374282, 96.390, 1292.0, 35.9444
47.024634847, 96.390, 1293.0, 35.9583
47.050895413, 96.390, 1217.0, 34.8855
47.077155978, 96.390, 1319.0, 36.3180
47.103416543, 96.390, 1238.0, 35.1852
47.129677109, 96.390, 1254.0, 35.4119
47.155937674, 96.390, 1297.0, 36.0139
47.182198240, 96.390, 1311.0, 36.2077
47.208458805, 96.390, 1216.0, 34.8712
47.234719370, 96.390, 1209.0, 34.7707
47.260979936, 96.390, 1151.0, 33.9264
47.287240501, 96.390, 1208.0, 34.7563
47.313501066, 96.390, 1186.0, 34.4384
47.339761632, 96.390, 1258.0, 35.4683
47.366022197, 96.390, 1223.0, 34.9714
47.392282762, 96.390, 1214.0, 34.8425
47.418543328, 96.390, 1277.0, 35.7351
47.444803893, 96.390, 1177.0, 34.3074
47.471064458, 96.390, 1277.0, 35.7351
47.497325024, 96.390, 1330.0, 36.4692
47.523585589, 96.390, 1269.0, 35.6230
47.549846155, 96.390, 1210.0, 34.7851
47.576106720, 96.390, 1212.0, 34.8138
47.602367285, 96.390, 1300.0, 36.0555
47.628627851, 96.390, 1293.0, 35.9583
47.654888416, 96.390, 1293.0, 35.9583
47.681148981, 96.390, 1274.0, 35.6931
47.707409547, 96.390, 1221.0, 34.9428
47.733670112, 96.390, 1287.0, 35.8748
47.759930677, 96.390, 1243.0, 35.2562
47.786191243, 96.390, 1268.0, 35.6090
47.812451808, 96.390, 1265.0, 35.5668
47.838712373, 96.390, 1277.0, 35.7351
47.864972939, 96.390, 1284.0, 35.8329
47.891233504, 96.390, 1240.0, 35.2136
47.917494069, 96.390, 1205.0, 34.7131
47.943754635, 96.390, 1191.0, 34.5109
47.970015200, 96.390, 1255.0, 35.4260
47.996275766, 96.390, 1243.0, 35.2562
48.022536331, 96.390, 1193.0, 34.5398
48.048796896, 96.390, 1189.0, 34.4819
48.075057462, 96.390, 1275.0, 35.7071
48.101318027, 96.390, 1264.0, 35.5528
48.127578592, 96.390, 1153.0, 33.9559
48.153839158, 96.390, 1176.0, 34.2929
48.180099723, 96.390, 1184.0, 34.4093
48.206360288, 96.390, 1260.0, 35.4965
48.232620854, 96.390, 1308.0, 36.1663
48.258881419, 96.390, 1205.0, 34.7131
48.285141984, 96.390, 1134.0, 33.6749
48.311402550, 96.390, 1265.0, 35.5668
48.337663115, 96.390, 1239.0, 35.1994
48.363923681, 96.390, 1197.0, 34.5977
48.390184246, 96.390, 1222.0, 34.9571
48.416444811, 96.390, 1274.0, 35.6931
48.442705377, 96.390, 1341.0, 36.6197
48.468965942, 96.390, 1300.0, 36.0555
48.495226507, 96.390, 1354.0, 36.7967
48.521487073, 96.390, 1299.0, 36.0416
48.547747638, 96.390, 1273.0, 35.6791
48.574008203, 96.390, 1289.0, 35.9026
48.600268769, 96.390, 1196.0, 34.5832
48.626529334, 96.390, 1207.0, 34.7419
48.652789899, 96.390, 1260.0, 35.4965
48.679050465, 96.390, 1141.0, 33.7787
48.705311030, 96.390, 1196.0, 34.5832
48.731571595, 96.390, 1151.0, 33.9264
48.757832161, 96.390, 1151.0, 33.9264
48.784092726, 96.390, 1108.0, 33.2866
48.810353292, 96.390, 1104.0, 33.2265
48.836613857, 96.390, 1078.0, 32.8329
48.862874422, 96.390, 1156.0, 34.0000
48.889134988, 96.390, 1099.0, 33.1512
48.915395553, 96.390, 1127.0, 33.5708
48.941656118, 96.390, 1196.0, 34.5832
48.967916684, 96.390, 1099.0, 33.1512
48.994177249, 96.390, 1137.0, 33.7194
49.020437814, 96.390, 1155.0, 33.9853
49.046698380, 96.390, 1131.0, 33.6303
49.072958945, 96.390, 1102.0, 33.1964
49.099219510, 96.390, 1174.0, 34.2637
49.125480076, 96.390, 1154.0, 33.9706
49.151740641, 96.390, 1196.0, 34.5832
49.178001207, 96.390, 1216.0, 34.8712
49.204261772, 96.390, 1208.0, 34.7563
49.230522337, 96.390, 1059.0, 32.5423
49.256782903, 96.390, 1107.0, 33.2716
49.283043468, 96.390, 1169.0, 34.1906
49.309304033, 96.390, 1196.0, 34.5832
49.335564599, 96.390, 1217.0, 34.8855
49.361825164, 96.390, 1134.0, 33.6749
49.388085729, 96.390, 1128.0, 33.5857
49.414346295, 96.390, 1072.0, 32.7414
49.440606860, 96.390, 1066.0, 32.6497
49.466867425, 96.390, 1140.0, 33.7639
49.493127991, 96.390, 1063.0, 32.6037
49.519388556, 96.390, 1109.0, 33.3017
49.545649121, 96.390, 1072.0, 32.7414
49.571909687, 96.390, 1120.0, 33.4664
49.598170252, 96.390, 1142.0, 33.7935
49.624430818, 96.390, 1119.0, 33.4515
49.650691383, 96.390, 1072.0, 32.7414
49.676951948, 96.390, 1137.0, 33.7194
49.703212514, 96.390, 1095.0, 33.0908
49.729473079, 96.390, 1080.0, 32.8634
49.755733644, 96.390, 1092.0, 33.0454
49.781994210, 96.390, 1123.0, 33.5112
49.808254775, 96.390, 1106.0, 33.2566
49.834515340, 96.390, 1042.0, 32.2800
49.860775906, 96.390, 1082.0, 32.8938
49.887036471, 96.390, 1120.0, 33.4664
49.913297036, 96.390, 1097.0, 33.1210
49.939557602, 96.390, 1066.0, 32.6497
49.965818167, 96.390, 1068.0, 32.6803
49.992078732, 96.390, 1125.0, 33.5410
50.018339298, 96.390, 1067.0, 32.6650
50.044599863, 96.390, 1063.0, 32.6037
50.070860429, 96.390, 1029.0, 32.0780
50.097120994, 96.390, 1069.0, 32.6956
50.123381559, 96.390, 1088.0, 32.9848
50.149642125, 96.390, 1084.0, 32.9242
50.175902690, 96.390, 1095.0, 33.0908
50.202163255, 96.390, 1055.0, 32.4808
50.228423821, 96.390, 1105.0, 33.2415
50.254684386, 96.390, 1063.0, 32.6037
50.280944951, 96.390, 1115.0, 33.3916
50.307205517, 96.390, 1060.0, 32.5576
50.333466082, 96.390, 1087.0, 32.9697
50.359726647, 96.390, 1070.0, 32.7109
50.385987213, 96.390, 1173.0, 34.2491
50.412247778, 96.390, 1160.0, 34.0588
50.438508344, 96.390, 1110.0, 33.3167
50.464768909, 96.390, 1080.0, 32.8634
50.491029474, 96.390, 1142.0, 33.7935
50.517290040, 96.390, 1147.0, 33.8674
50.543550605, 96.390, 1109.0, 33.3017
50.569811170, 96.390, 1088.0, 32.9848
50.596071736, 96.390, 1128.0, 33.5857
50.622332301, 96.390, 1120.0, 33.4664
50.648592866, 96.390, 1108.0, 33.2866
50.674853432, 96.390, 1075.0, 32.7872
50.701113997, 96.390, 1017.0, 31.8904
50.727374562, 96.390, 1117.0, 33.4215
50.753635128, 96.390, 1026.0, 32.0312
50.779895693, 96.390, 1081.0, 32.8786
50.806156258, 96.390, 1009.0, 31.7648
50.832416824, 96.390, 1096.0, 33.1059
50.858677389, 96.390, 988.0, 31.4325
50.884937955, 96.390, 1026.0, 32.0312
50.911198520, 96.390, 989.0, 31.4484
50.937459085, 96.390, 1065.0, 32.6343
50.963719651, 96.390, 1014.0, 31.8434
50.989980216, 96.390, 1075.0, 32.7872
51.016240781, 96.390, 1113.0, 33.3617
51.042501347, 96.390, 1073.0, 32.7567
51.068761912, 96.390, 1123.0, 33.5112
51.095022477, 96.390, 1153.0, 33.9559
51.121283043, 96.390, 1099.0, 33.1512
51.147543608, 96.390, 991.0, 31.4802
51.173804173, 96.390, 1028.0, 32.0624
51.200064739, 96.390, 1074.0, 32.7719
51.226325304, 96.390, 1020.0, 31.9374
51.252585870, 96.390, 1072.0, 32.7414
51.278846435, 96.390, 987.0, 31.4166
51.305107000, 96.390, 1079.0, 32.8481
51.331367566, 96.390, 1004.0, 31.6860
51.357628131, 96.390, 1038.0, 32.2180
51.383888696, 96.390, 1025.0, 32.0156
51.410149262, 96.390, 942.0, 30.6920
51.436409827, 96.390, 981.0, 31.3209
51.462670392, 96.390, 987.0, 31.4166
51.488930958, 96.390, 945.0, 30.7409
51.515191523, 96.390, 891.0, 29.8496
51.541452088, 96.390, 993.0, 31.5119
51.567712654, 96.390, 992.0, 31.4960
51.593973219, 96.390, 993.0, 31.5119
51.620233784, 96.390, 997.0, 31.5753
51.646494350, 96.390, 1024.0, 32.0000
51.672754915, 96.390, 986.0, 31.4006
51.699015481, 96.390, 967.0, 31.0966
51.725276046, 96.390, 934.0, 30.5614
51.751536611, 96.390, 985.0, 31.3847
51.777797177, 96.390, 951.0, 30.8383
51.804057742, 96.390, 993.0, 31.5119
51.830318307, 96.390, 986.0, 31.4006
51.856578873, 96.390, 1007.0, 31.7333
51.882839438, 96.390, 1045.0, 32.3265
51.909100003, 96.390, 1049.0, 32.3883
51.935360569, 96.390, 1017.0, 31.8904
51.961621134, 96.390, 1007.0, 31.7333
51.987881699, 96.390, 986.0, 31.4006
52.014142265, 96.390, 995.0, 31.5436
52.040402830, 96.390, 1007.0, 31.7333
52.066663396, 96.390, 986.0, 31.4006
52.092923961, 96.390, 913.0, 30.2159
52.119184526, 96.390, 1012.0, 31.8119
52.145445092, 96.390, 952.0, 30.8545
52.171705657, 96.390, 970.0, 31.1448
52.197966222, 96.390, 1009.0, 31.7648
52.224226788, 96.390, 915.0, 30.2490
52.250487353, 96.390, 1006.0, 31.7175
52.276747918, 96.390, 986.0, 31.4006
52.303008484, 96.390, 996.0, 31.5595
52.329269049, 96.390, 1017.0, 31.8904
52.355529614, 96.390, 960.0, 30.9839
52.381790180, 96.390, 969.0, 31.1288
52.408050745, 96.390, 907.0, 30.1164
52.434311310, 96.390, 983.0, 31.3528
52.460571876, 96.390, 980.0, 31.3050
52.486832441, 96.390, 949.0, 30.8058
52.513093007, 96.390, 964.0, 31.0483
52.539353572, 96.390, 924.0, 30.3974
52.565614137, 96.390, 938.0, 30.6268
52.591874703, 96.390, 968.0, 31.1127
52.618135268, 96.390, 943.0, 30.7083
52.644395833, 96.390, 980.0, 31.3050
52.670656399, 96.390, 947.0, 30.7734
52.696916964, 96.390, 948.0, 30.7896
52.723177529, 96.390, 973.0, 31.1929
52.749438095, 96.390, 940.0, 30.6594
52.775698660, 96.390, 944.0, 30.7246
52.801959225, 96.390, 929.0, 30.4795
52.828219791, 96.390, 991.0, 31.4802
52.854480356, 96.390, 974.0, 31.2090
52.880740922, 96.390, 993.0, 31.5119
52.907001487, 96.390, 951.0, 30.8383
52.933262052, 96.390, 919.0, 30.3150
52.959522618, 96.390, 901.0, 30.0167
52.985783183, 96.390, 910.0, 30.1662
53.012043748, 96.390, 895.0, 29.9166
53.038304314, 96.390, 908.0, 30.1330
53.064564879, 96.390, 975.0, 31.2250
53.090825444, 96.390, 925.0, 30.4138
53.117086010, 96.390, 902.0, 30.0333
53.143346575, 96.390, 906.0, 30.0998
53.169607140, 96.390, 990.0, 31.4643
53.195867706, 96.390, 931.0, 30.5123
53.222128271, 96.390, 914.0, 30.2324
53.248388836, 96.390, 947.0, 30.7734
53.274649402, 96.390, 982.0, 31.3369
53.300909967, 96.390, 966.0, 31.0805
53.327170533, 96.390, 943.0, 30.7083
53.353431098, 96.390, 955.0, 30.9031
53.379691663, 96.390, 966.0, 31.0805
53.405952229, 96.390, 923.0, 30.3809
53.432212794, 96.390, 927.0, 30.4467
53.458473359, 96.390, 958.0, 30.9516
53.484733925, 96.390, 914.0, 30.2324
53.510994490, 96.390, 953.0, 30.8707
53.537255055, 96.390, 934.0, 30.5614
53.563515621, 96.390, 889.0, 29.8161
53.589776186, 96.390, 947.0, 30.7734
53.616036751, 96.390, 886.0, 29.7658
53.642297317, 96.390, 947.0, 30.7734
53.668557882, 96.390, 943.0, 30.7083
53.694818448, 96.390, 895.0, 29.9166
53.721079013, 96.390, 958.0, 30.9516
53.747339578, 96.390, 901.0, 30.0167
53.773600144, 96.390, 925.0, 30.4138
53.799860709, 96.390, 897.0, 29.9500
53.826121274, 96.390, 929.0, 30.4795
53.852381840, 96.390, 911.0, 30.1828
53.878642405, 96.390, 965.0, 31.0644
53.904902970, 96.390, 1001.0, 31.6386
53.931163536, 96.390, 984.0, 31.3688
53.957424101, 96.390, 956.0, 30.9192
53.983684666, 96.390, 974.0, 31.2090
54.009945232, 96.390, 1024.0, 32.0000
54.036205797, 96.390, 943.0, 30.7083
54.062466362, 96.390, 999.0, 31.6070
54.088726928, 96.390, 1012.0, 31.8119
54.114987493, 96.390, 942.0, 30.6920
54.141248059, 96.390, 959.0, 30.9677
54.167508624, 96.390, 958.0, 30.9516
54.193769189, 96.390, 943.0, 30.7083
54.220029755, 96.390, 977.0, 31.2570
54.246290320, 96.390, 1004.0, 31.6860
54.272550885, 96.390, 872.0, 29.5296
54.298811451, 96.390, 983.0, 31.3528
54.325072016, 96.390, 999.0, 31.6070
54.351332581, 96.390, 927.0, 30.4467
54.377593147, 96.390, 927.0, 30.4467
54.403853712, 96.390, 939.0, 30.6431
54.430114277, 96.390, 940.0, 30.6594
54.456374843, 96.390, 892.0, 29.8664
54.482635408, 96.390, 938.0, 30.6268
54.508895973, 96.390, 924.0, 30.3974
54.535156539, 96.390, 947.0, 30.7734
54.561417104, 96.390, 880.0, 29.6648
54.587677670, 96.390, 864.0, 29.3939
54.613938235, 96.390, 911.0, 30.1828
54.640198800, 96.390, 891.0, 29.8496
54.666459366, 96.390, 862.0, 29.3598
54.692719931, 96.390, 893.0, 29.8831
54.718980496, 96.390, 877.0, 29.6142
54.745241062, 96.390, 854.0, 29.2233
54.771501627, 96.390, 884.0, 29.7321
54.797762192, 96.390, 842.0, 29.0172
54.824022758, 96.390, 794.0, 28.1780
54.850283323, 96.390, 867.0, 29.4449
54.876543888, 96.390, 843.0, 29.0345
54.902804454, 96.390, 899.0, 29.9833
54.929065019, 96.390, 874.0, 29.5635
54.955325585, 96.390, 861.0, 29.3428
54.981586150, 96.390, 846.0, 29.0861
55.007846715, 96.390, 844.0, 29.0517
55.034107281, 96.390, 859.0, 29.3087
55.060367846, 96.390, 898.0, 29.9666
55.086628411, 96.390, 841.0, 29.0000
55.112888977, 96.390, 830.0, 28.8097
55.139149542, 96.390, 866.0, 29.4279
55.165410107, 96.390, 844.0, 29.0517
55.191670673, 96.390, 820.0, 28.6356
55.217931238, 96.390, 826.0, 28.7402
55.244191803, 96.390, 892.0, 29.8664
55.270452369, 96.390, 849.0, 29.1376
55.296712934, 96.390, 862.0, 29.3598
55.322973499, 96.390, 867.0, 29.4449
55.349234065, 96.390, 879.0, 29.6479
55.375494630, 96.390, 900.0, 30.0000
55.401755196, 96.390, 909.0, 30.1496
55.428015761, 96.390, 858.0, 29.2916
55.454276326, 96.390, 878.0, 29.6311
55.480536892, 96.390, 846.0, 29.0861
55.506797457, 96.390, 862.0, 29.3598
55.533058022, 96.390, 886.0, 29.7658
55.559318588, 96.390, 863.0, 29.3769
55.585579153, 96.390, 872.0, 29.5296
55.611839718, 96.390, 880.0, 29.6648
55.638100284, 96.390, 864.0, 29.3939
55.664360849, 96.390, 868.0, 29.4618
55.690621414, 96.390, 814.0, 28.5307
55.716881980, 96.390, 861.0, 29.3428
55.743142545, 96.390, 844.0, 29.0517
55.769403111, 96.390, 884.0, 29.7321
55.795663676, 96.390, 868.0, 29.4618
55.821924241, 96.390, 858.0, 29.2916
55.848184807, 96.390, 853.0, 29.2062
55.874445372, 96.390, 852.0, 29.1890
55.900705937, 96.390, 852.0, 29.1890
55.926966503, 96.390, 883.0, 29.7153
55.953227068, 96.390, 833.0, 28.8617
55.979487633, 96.390, 853.0, 29.2062
56.005748199, 96.390, 858.0, 29.2916
56.032008764, 96.390, 858.0, 29.2916
56.058269329, 96.390, 851.0, 29.1719
56.084529895, 96.390, 908.0, 30.1330
56.110790460, 96.390, 918.0, 30.2985
56.137051025, 96.390, 877.0, 29.6142
56.163311591, 96.390, 873.0, 29.5466
56.189572156, 96.390, 881.0, 29.6816
56.215832722, 96.390, 911.0, 30.1828
56.242093287, 96.390, 884.0, 29.7321
56.268353852, 96.390, 856.0, 29.2575
56.294614418, 96.390, 888.0, 29.7993
56.320874983, 96.390, 929.0, 30.4795
56.347135548, 96.390, 874.0, 29.5635
56.373396114, 96.390, 887.0, 29.7825
56.399656679, 96.390, 854.0, 29.2233
56.425917244, 96.390, 875.0, 29.5804
56.452177810, 96.390, 840.0, 28.9828
56.478438375, 96.390, 873.0, 29.5466
56.504698940, 96.390, 816.0, 28.5657
56.530959506, 96.390, 840.0, 28.9828
56.557220071, 96.390, 834.0, 28.8791
56.583480637, 96.390, 877.0, 29.6142
56.609741202, 96.390, 846.0, 29.0861
56.636001767, 96.390, 823.0, 28.6880
56.662262333, 96.390, 852.0, 29.1890
56.688522898, 96.390, 796.0, 28.2135
56.714783463, 96.390, 744.0, 27.2764
56.741044029, 96.390, 858.0, 29.2916
56.767304594, 96.390, 775.0, 27.8388
56.793565159, 96.390, 845.0, 29.0689
56.819825725, 96.390, 827.0, 28.7576
56.846086290, 96.390, 780.0, 27.9285
56.872346855, 96.390, 825.0, 28.7228
56.898607421, 96.390, 798.0, 28.2489
56.924867986, 96.390, 834.0, 28.8791
56.951128551, 96.390, 768.0, 27.7128
56.977389117, 96.390, 805.0, 28.3725
57.003649682, 96.390, 784.0, 28.0000
57.029910248, 96.390, 851.0, 29.1719
57.056170813, 96.390, 774.0, 27.8209
57.082431378, 96.390, 820.0, 28.6356
57.108691944, 96.390, 870.0, 29.4958
57.134952509, 96.390, 836.0, 28.9137
57.161213074, 96.390, 852.0, 29.1890
57.187473640, 96.390, 819.0, 28.6182
57.213734205, 96.390, 891.0, 29.8496
57.239994770, 96.390, 847.0, 29.1033
57.266255336, 96.390, 822.0, 28.6705
57.292515901, 96.390, 868.0, 29.4618
57.318776466, 96.390, 886.0, 29.7658
57.345037032, 96.390, 850.0, 29.1548
57.371297597, 96.390, 897.0, 29.9500
57.397558163, 96.390, 855.0, 29.2404
57.423818728, 96.390, 813.0, 28.5132
57.450079293, 96.390, 842.0, 29.0172
57.476339859, 96.390, 814.0, 28.5307
57.502600424, 96.390, 885.0, 29.7489
57.528860989, 96.390, 816.0, 28.5657
57.555121555, 96.390, 804.0, 28.3549
57.581382120, 96.390, 869.0, 29.4788
57.607642685, 96.390, 829.0, 28.7924
57.633903251, 96.390, 869.0, 29.4788
57.660163816, 96.390, 815.0, 28.5482
57.686424381, 96.390, 819.0, 28.6182
57.712684947, 96.390, 823.0, 28.6880
57.738945512, 96.390, 824.0, 28.7054
57.765206077, 96.390, 820.0, 28.6356
57.791466643, 96.390, 825.0, 28.7228
57.817727208, 96.390, 843.0, 29.0345
57.843987774, 96.390, 803.0, 28.3373
57.870248339, 96.390, 861.0, 29.3428
57.896508904, 96.390, 849.0, 29.1376
57.922769470, 96.390, 786.0, 28.0357
57.949030035, 96.390, 889.0, 29.8161
57.975290600, 96.390, 815.0, 28.5482
58.001551166, 96.390, 865.0, 29.4109
58.027811731, 96.390, 895.0, 29.9166
58.054072296, 96.390, 886.0, 29.7658
58.080332862, 96.390, 923.0, 30.3809
58.106593427, 96.390, 867.0, 29.4449
58.132853992, 96.390, 808.0, 28.4253
58.159114558, 96.390, 820.0, 28.6356
58.185375123, 96.390, 827.0, 28.7576
58.211635689, 96.390, 815.0, 28.5482
58.237896254, 96.390, 886.0, 29.7658
58.264156819, 96.390, 818.0, 28.6007
58.290417385, 96.390, 775.0, 27.8388
58.316677950, 96.390, 881.0, 29.6816
58.342938515, 96.390, 806.0, 28.3901
58.369199081, 96.390, 802.0, 28.3196
58.395459646, 96.390, 823.0, 28.6880
58.421720211, 96.390, 847.0, 29.1033
58.447980777, 96.390, 849.0, 29.1376
58.474241342, 96.390, 834.0, 28.8791
58.500501907, 96.390, 817.0, 28.5832
58.526762473, 96.390, 759.0, 27.5500
58.553023038, 96.390, 750.0, 27.3861
58.579283603, 96.390, 802.0, 28.3196
58.605544169, 96.390, 827.0, 28.7576
58.631804734, 96.390, 881.0, 29.6816
58.658065300, 96.390, 796.0, 28.2135
58.684325865, 96.390, 792.0, 28.1425
58.710586430, 96.390, 826.0, 28.7402
58.736846996, 96.390, 861.0, 29.3428
58.763107561, 96.390, 801.0, 28.3019
58.789368126, 96.390, 791.0, 28.1247
58.815628692, 96.390, 863.0, 29.3769
58.841889257, 96.390, 790.0, 28.1069
58.868149822, 96.390, 824.0, 28.7054
58.894410388, 96.390, 821.0, 28.6531
58.920670953, 96.390, 813.0, 28.5132
58.946931518, 96.390, 811.0, 28.4781
58.973192084, 96.390, 798.0, 28.2489
58.999452649, 96.390, 827.0, 28.7576
59.025713214, 96.390, 778.0, 27.8927
59.051973780, 96.390, 849.0, 29.1376
59.078234345, 96.390, 796.0, 28.2135
59.104494911, 96.390, 790.0, 28.1069
59.130755476, 96.390, 784.0, 28.0000
59.157016041, 96.390, 819.0, 28.6182
59.183276607, 96.390, 856.0, 29.2575
59.209537172, 96.390, 796.0, 28.2135
59.235797737, 96.390, 798.0, 28.2489
59.262058303, 96.390, 808.0, 28.4253
59.288318868, 96.390, 835.0, 28.8964
59.314579433, 96.390, 862.0, 29.3598
59.340839999, 96.390, 817.0, 28.5832
59.367100564, 96.390, 798.0, 28.2489
59.393361129, 96.390, 797.0, 28.2312
59.419621695, 96.390, 913.0, 30.2159
59.445882260, 96.390, 834.0, 28.8791
59.472142826, 96.390, 852.0, 29.1890
59.498403391, 96.390, 830.0, 28.8097
59.524663956, 96.390, 862.0, 29.3598
59.550924522, 96.390, 863.0, 29.3769
59.577185087, 96.390, 840.0, 28.9828
59.603445652, 96.390, 869.0, 29.4788
59.629706218, 96.390, 817.0, 28.5832
59.655966783, 96.390, 853.0, 29.2062
59.682227348, 96.390, 800.0, 28.2843
59.708487914, 96.390, 827.0, 28.7576
59.734748479, 96.390, 845.0, 29.0689
59.761009044, 96.390, 872.0, 29.5296
59.787269610, 96.390, 868.0, 29.4618
59.813530175, 96.390, 873.0, 29.5466
59.839790740, 96.390, 861.0, 29.3428
59.866051306, 96.390, 887.0, 29.7825
59.892311871, 96.390, 912.0, 30.1993
59.918572437, 96.390, 866.0, 29.4279
59.944833002, 96.390, 863.0, 29.3769
59.971093567, 96.390, 886.0, 29.7658
59.997354133, 96.390, 915.0, 30.2490
60.023614698, 96.390, 910.0, 30.1662
60.049875263, 96.390, 887.0, 29.7825
60.076135829, 96.390, 894.0, 29.8998
60.102396394, 96.390, 956.0, 30.9192
60.128656959, 96.390, 924.0, 30.3974
60.154917525, 96.390, 879.0, 29.6479
60.181178090, 96.390, 918.0, 30.2985
60.207438655, 96.390, 966.0, 31.0805
60.233699221, 96.390, 975.0, 31.2250
60.259959786, 96.390, 901.0, 30.0167
60.286220352, 96.390, 923.0, 30.3809
60.312480917, 96.390, 957.0, 30.9354
60.338741482, 96.390, 1020.0, 31.9374
60.365002048, 96.390, 970.0, 31.1448
60.391262613, 96.390, 999.0, 31.6070
60.417523178, 96.390, 976.0, 31.2410
60.443783744, 96.390, 984.0, 31.3688
60.470044309, 96.390, 992.0, 31.4960
60.496304874, 96.390, 1027.0, 32.0468
60.522565440, 96.390, 1029.0, 32.0780
60.548826005, 96.390, 1085.0, 32.9393
60.575086570, 96.390, 1067.0, 32.6650
60.601347136, 96.390, 1061.0, 32.5730
60.627607701, 96.390, 1060.0, 32.5576
60.653868266, 96.390, 1039.0, 32.2335
60.680128832, 96.390, 1068.0, 32.6803
60.706389397, 96.390, 1076.0, 32.8024
60.732649963, 96.390, 1098.0, 33.1361
60.758910528, 96.390, 1146.0, 33.8526
60.785171093, 96.390, 1166.0, 34.1467
60.811431659, 96.390, 1181.0, 34.3657
60.837692224, 96.390, 1121.0, 33.4813
60.863952789, 96.390, 1209.0, 34.7707
60.890213355, 96.390, 1172.0, 34.2345
60.916473920, 96.390, 1122.0, 33.4963
60.942734485, 96.390, 1187.0, 34.4529
60.968995051, 96.390, 1125.0, 33.5410
60.995255616, 96.390, 1151.0, 33.9264
61.021516181, 96.390, 1173.0, 34.2491
61.047776747, 96.390, 1171.0, 34.2199
61.074037312, 96.390, 1181.0, 34.3657
61.100297878, 96.390, 1165.0, 34.1321
61.126558443, 96.390, 1153.0, 33.9559
61.152819008, 96.390, 1225.0, 35.0000
61.179079574, 96.390, 1239.0, 35.1994
61.205340139, 96.390, 1115.0, 33.3916
61.231600704, 96.390, 1176.0, 34.2929
61.257861270, 96.390, 1148.0, 33.8821
61.284121835, 96.390, 1171.0, 34.2199
61.310382400, 96.390, 1181.0, 34.3657
61.336642966, 96.390, 1176.0, 34.2929
61.362903531, 96.390, 1146.0, 33.8526
61.389164096, 96.390, 1169.0, 34.1906
61.415424662, 96.390, 1107.0, 33.2716
61.441685227, 96.390, 1191.0, 34.5109
61.467945792, 96.390, 1202.0, 34.6699
61.494206358, 96.390, 1221.0, 34.9428
61.520466923, 96.390, 1176.0, 34.2929
61.546727489, 96.390, 1103.0, 33.2114
61.572988054, 96.390, 1171.0, 34.2199
61.599248619, 96.390, 1240.0, 35.2136
61.625509185, 96.390, 1122.0, 33.4963
61.651769750, 96.390, 1184.0, 34.4093
61.678030315, 96.390, 1232.0, 35.0999
61.704290881, 96.390, 1122.0, 33.4963
61.730551446, 96.390, 1091.0, 33.0303
61.756812011, 96.390, 1137.0, 33.7194
61.783072577, 96.390, 1199.0, 34.6266
61.809333142, 96.390, 1137.0, 33.7194
61.835593707, 96.390, 1084.0, 32.9242
61.861854273, 96.390, 1206.0, 34.7275
61.888114838, 96.390, 1150.0, 33.9116
61.914375404, 96.390, 1117.0, 33.4215
61.940635969, 96.390, 1123.0, 33.5112
61.966896534, 96.390, 1114.0, 33.3766
61.993157100, 96.390, 1022.0, 31.9687
62.019417665, 96.390, 1126.0, 33.5559
62.045678230, 96.390, 1131.0, 33.6303
62.071938796, 96.390, 1094.0, 33.0757
62.098199361, 96.390, 1114.0, 33.3766
62.124459926, 96.390, 1058.0, 32.5269
62.150720492, 96.390, 1085.0, 32.9393
62.176981057, 96.390, 1058.0, 32.5269
62.203241622, 96.390, 1073.0, 32.7567
62.229502188, 96.390, 1086.0, 32.9545
62.255762753, 96.390, 1073.0, 32.7567
62.282023318, 96.390, 1012.0, 31.8119
62.308283884, 96.390, 1009.0, 31.7648
62.334544449, 96.390, 1085.0, 32.9393
62.360805015, 96.390, 1100.0, 33.1662
62.387065580, 96.390, 1066.0, 32.6497
62.413326145, 96.390, 1001.0, 31.6386
62.439586711, 96.390, 1083.0, 32.9090
62.465847276, 96.390, 1020.0, 31.9374
62.492107841, 96.390, 982.0, 31.3369
62.518368407, 96.390, 970.0, 31.1448
62.544628972, 96.390, 961.0, 31.0000
62.570889537, 96.390, 999.0, 31.6070
62.597150103, 96.390, 972.0, 31.1769
62.623410668, 96.390, 1000.0, 31.6228
62.649671233, 96.390, 964.0, 31.0483
62.675931799, 96.390, 946.0, 30.7571
62.702192364, 96.390, 994.0, 31.5278
62.728452930, 96.390, 947.0, 30.7734
62.754713495, 96.390, 934.0, 30.5614
62.780974060, 96.390, 972.0, 31.1769
62.807234626, 96.390, 961.0, 31.0000
62.833495191, 96.390, 920.0, 30.3315
62.859755756, 96.390, 939.0, 30.6431
62.886016322, 96.390, 913.0, 30.2159
62.912276887, 96.390, 896.0, 29.9333
62.938537452, 96.390, 911.0, 30.1828
62.964798018, 96.390, 848.0, 29.1204
62.991058583, 96.390, 875.0, 29.5804
63.017319148, 96.390, 854.0, 29.2233
63.043579714, 96.390, 836.0, 28.9137
63.069840279, 96.390, 857.0, 29.2746
63.096100844, 96.390, 840.0, 28.9828
63.122361410, 96.390, 874.0, 29.5635
63.148621975, 96.390, 809.0, 28.4429
63.174882541, 96.390, 883.0, 29.7153
63.201143106, 96.390, 857.0, 29.2746
63.227403671, 96.390, 803.0, 28.3373
63.253664237, 96.390, 837.0, 28.9310
63.279924802, 96.390, 915.0, 30.2490
63.306185367, 96.390, 815.0, 28.5482
63.332445933, 96.390, 857.0, 29.2746
63.358706498, 96.390, 836.0, 28.9137
63.384967063, 96.390, 795.0, 28.1957
63.411227629, 96.390, 810.0, 28.4605
63.437488194, 96.390, 788.0, 28.0713
63.463748759, 96.390, 838.0, 28.9482
63.490009325, 96.390, 817.0, 28.5832
63.516269890, 96.390, 826.0, 28.7402
63.542530455, 96.390, 809.0, 28.4429
63.568791021, 96.390, 777.0, 27.8747
63.595051586, 96.390, 831.0, 28.8271
63.621312152, 96.390, 846.0, 29.0861
63.647572717, 96.390, 792.0, 28.1425
63.673833282, 96.390, 815.0, 28.5482
63.700093848, 96.390, 783.0, 27.9821
63.726354413, 96.390, 766.0, 27.6767
63.752614978, 96.390, 817.0, 28.5832
63.778875544, 96.390, 826.0, 28.7402
63.805136109, 96.390, 767.0, 27.6948
63.831396674, 96.390, 811.0, 28.4781
63.857657240, 96.390, 786.0, 28.0357
63.883917805, 96.390, 824.0, 28.7054
63.910178370, 96.390, 745.0, 27.2947
63.936438936, 96.390, 761.0, 27.5862
63.962699501, 96.390, 777.0, 27.8747
63.988960067, 96.390, 797.0, 28.2312
64.015220632, 96.390, 762.0, 27.6043
64.041481197, 96.390, 779.0, 27.9106
64.067741763, 96.390, 742.0, 27.2397
64.094002328, 96.390, 769.0, 27.7308
64.120262893, 96.390, 805.0, 28.3725
64.146523459, 96.390, 806.0, 28.3901
64.172784024, 96.390, 746.0, 27.3130
64.199044589, 96.390, 791.0, 28.1247
64.225305155, 96.390, 773.0, 27.8029
64.251565720, 96.390, 809.0, 28.4429
64.277826285, 96.390, 752.0, 27.4226
64.304086851, 96.390, 825.0, 28.7228
64.330347416, 96.390, 769.0, 27.7308
64.356607981, 96.390, 751.0, 27.4044
64.382868547, 96.390, 730.0, 27.0185
64.409129112, 96.390, 762.0, 27.6043
64.435389678, 96.390, 726.0, 26.9444
64.461650243, 96.390, 742.0, 27.2397
64.487910808, 96.390, 723.0, 26.8887
64.514171374, 96.390, 753.0, 27.4408
64.540431939, 96.390, 711.0, 26.6646
64.566692504, 96.390, 706.0, 26.5707
64.592953070, 96.390, 731.0, 27.0370
64.619213635, 96.390, 689.0, 26.2488
64.645474200, 96.390, 746.0, 27.3130
64.671734766, 96.390, 703.0, 26.5141
64.697995331, 96.390, 735.0, 27.1109
64.724255896, 96.390, 745.0, 27.2947
64.750516462, 96.390, 734.0, 27.0924
64.776777027, 96.390, 734.0, 27.0924
64.803037593, 96.390, 713.0, 26.7021
64.829298158, 96.390, 730.0, 27.0185
64.855558723, 96.390, 712.0, 26.6833
64.881819289, 96.390, 725.0, 26.9258
64.908079854, 96.390, 695.0, 26.3629
64.934340419, 96.390, 767.0, 27.6948
64.960600985, 96.390, 743.0, 27.2580
64.986861550, 96.390, 701.0, 26.4764
