[Measurement conditions]
Sample identification,XRD_Centroid16Mar22_Act21Mar22_B4_0893M_NaOH_LS0168_1
Comment - 1,"Configuration=Stage for Flat Samples/Holders, Owner=User-1, Creation date=7/1/2020 9:53:24 AM"
Comment - 2,"Goniometer=Theta/Theta; Minimum step size 2Theta:0.0001; Minimum step size Omega:0.0001"
Comment - 3,"Sample stage=Stage for flat samples/holders"
Comment - 4,"Diffractometer system=EMPYREAN"
Comment - 5,"Measurement program=C:\Users\ibo5034\OneDrive - The Pennsylvania State University\NEUP\Zerobackground scan.xrdmp, Identifier={98A3B11C-88F9-4AA6-982C-73314A311EF5}"
Anode material,Cu
K-Alpha1 wavelength,1.5405980
K-Alpha2 wavelength,1.5444260
Ratio K-Alpha2/K-Alpha1,0.500
Divergence slit,Fixed,0.25
Monochromator used,NO
Generator voltage, 45
Tube current, 40
File date and time,24/Mar/2022 19:03
Unit cell,
h k l, 0 0 0
Scan axis,Gonio
Scan range,4.994599997,64.999991833
Scan step size,0.0262606
No. of points, 2285
Scan type,CONTINUOUS
Time per step,96.390
[Scan points]
Angle, TimePerStep, Intensity, ESD
5.007730280, 96.390, 3720.0, 60.9918
5.033990845, 96.390, 3839.0, 61.9597
5.060251411, 96.390, 3804.0, 61.6766
5.086511976, 96.390, 3767.0, 61.3759
5.112772541, 96.390, 3762.0, 61.3351
5.139033107, 96.390, 3759.0, 61.3107
5.165293672, 96.390, 3686.0, 60.7124
5.191554237, 96.390, 3575.0, 59.7913
5.217814803, 96.390, 3696.0, 60.7947
5.244075368, 96.390, 3527.0, 59.3886
5.270335934, 96.390, 3685.0, 60.7042
5.296596499, 96.390, 3587.0, 59.8916
5.322857064, 96.390, 3615.0, 60.1249
5.349117630, 96.390, 3611.0, 60.0916
5.375378195, 96.390, 3557.0, 59.6406
5.401638760, 96.390, 3576.0, 59.7997
5.427899326, 96.390, 3408.0, 58.3781
5.454159891, 96.390, 3477.0, 58.9661
5.480420456, 96.390, 3540.0, 59.4979
5.506681022, 96.390, 3429.0, 58.5577
5.532941587, 96.390, 3513.0, 59.2706
5.559202152, 96.390, 3541.0, 59.5063
5.585462718, 96.390, 3443.0, 58.6771
5.611723283, 96.390, 3413.0, 58.4209
5.637983849, 96.390, 3450.0, 58.7367
5.664244414, 96.390, 3448.0, 58.7197
5.690504979, 96.390, 3334.0, 57.7408
5.716765545, 96.390, 3523.0, 59.3549
5.743026110, 96.390, 3398.0, 58.2924
5.769286675, 96.390, 3436.0, 58.6174
5.795547241, 96.390, 3382.0, 58.1550
5.821807806, 96.390, 3408.0, 58.3781
5.848068371, 96.390, 3402.0, 58.3267
5.874328937, 96.390, 3376.0, 58.1034
5.900589502, 96.390, 3373.0, 58.0775
5.926850067, 96.390, 3416.0, 58.4466
5.953110633, 96.390, 3269.0, 57.1752
5.979371198, 96.390, 3314.0, 57.5674
6.005631763, 96.390, 3355.0, 57.9224
6.031892329, 96.390, 3305.0, 57.4891
6.058152894, 96.390, 3283.0, 57.2975
6.084413460, 96.390, 3307.0, 57.5065
6.110674025, 96.390, 3243.0, 56.9473
6.136934590, 96.390, 3327.0, 57.6802
6.163195156, 96.390, 3337.0, 57.7668
6.189455721, 96.390, 3343.0, 57.8187
6.215716286, 96.390, 3244.0, 56.9561
6.241976852, 96.390, 3370.0, 58.0517
6.268237417, 96.390, 3269.0, 57.1752
6.294497982, 96.390, 3238.0, 56.9034
6.320758548, 96.390, 3246.0, 56.9737
6.347019113, 96.390, 3244.0, 56.9561
6.373279678, 96.390, 3308.0, 57.5152
6.399540244, 96.390, 3157.0, 56.1872
6.425800809, 96.390, 3151.0, 56.1338
6.452061375, 96.390, 3154.0, 56.1605
6.478321940, 96.390, 3194.0, 56.5155
6.504582505, 96.390, 3231.0, 56.8419
6.530843071, 96.390, 3225.0, 56.7891
6.557103636, 96.390, 3205.0, 56.6127
6.583364201, 96.390, 3328.0, 57.6888
6.609624767, 96.390, 3325.0, 57.6628
6.635885332, 96.390, 3243.0, 56.9473
6.662145897, 96.390, 3107.0, 55.7405
6.688406463, 96.390, 3257.0, 57.0701
6.714667028, 96.390, 3233.0, 56.8595
6.740927593, 96.390, 3166.0, 56.2672
6.767188159, 96.390, 3194.0, 56.5155
6.793448724, 96.390, 3116.0, 55.8211
6.819709289, 96.390, 3272.0, 57.2014
6.845969855, 96.390, 3193.0, 56.5066
6.872230420, 96.390, 3190.0, 56.4801
6.898490986, 96.390, 3217.0, 56.7186
6.924751551, 96.390, 3239.0, 56.9122
6.951012116, 96.390, 3168.0, 56.2850
6.977272682, 96.390, 3161.0, 56.2228
7.003533247, 96.390, 3174.0, 56.3383
7.029793812, 96.390, 3057.0, 55.2901
7.056054378, 96.390, 3201.0, 56.5774
7.082314943, 96.390, 3100.0, 55.6776
7.108575508, 96.390, 3052.0, 55.2449
7.134836074, 96.390, 3149.0, 56.1160
7.161096639, 96.390, 3164.0, 56.2494
7.187357204, 96.390, 3159.0, 56.2050
7.213617770, 96.390, 3128.0, 55.9285
7.239878335, 96.390, 3054.0, 55.2630
7.266138900, 96.390, 3016.0, 54.9181
7.292399466, 96.390, 3134.0, 55.9821
7.318660031, 96.390, 3135.0, 55.9911
7.344920597, 96.390, 3119.0, 55.8480
7.371181162, 96.390, 3196.0, 56.5332
7.397441727, 96.390, 3236.0, 56.8859
7.423702293, 96.390, 3129.0, 55.9375
7.449962858, 96.390, 3194.0, 56.5155
7.476223423, 96.390, 3042.0, 55.1543
7.502483989, 96.390, 3246.0, 56.9737
7.528744554, 96.390, 3061.0, 55.3263
7.555005119, 96.390, 3101.0, 55.6866
7.581265685, 96.390, 3097.0, 55.6507
7.607526250, 96.390, 3201.0, 56.5774
7.633786815, 96.390, 3167.0, 56.2761
7.660047381, 96.390, 3208.0, 56.6392
7.686307946, 96.390, 3147.0, 56.0981
7.712568512, 96.390, 3147.0, 56.0981
7.738829077, 96.390, 3141.0, 56.0446
7.765089642, 96.390, 3040.0, 55.1362
7.791350208, 96.390, 3175.0, 56.3471
7.817610773, 96.390, 3152.0, 56.1427
7.843871338, 96.390, 3130.0, 55.9464
7.870131904, 96.390, 3231.0, 56.8419
7.896392469, 96.390, 3208.0, 56.6392
7.922653034, 96.390, 3305.0, 57.4891
7.948913600, 96.390, 3246.0, 56.9737
7.975174165, 96.390, 3252.0, 57.0263
8.001434730, 96.390, 3319.0, 57.6108
8.027695296, 96.390, 3312.0, 57.5500
8.053955861, 96.390, 3293.0, 57.3847
8.080216426, 96.390, 3384.0, 58.1722
8.106476992, 96.390, 3505.0, 59.2030
8.132737557, 96.390, 3642.0, 60.3490
8.158998123, 96.390, 3473.0, 58.9322
8.185258688, 96.390, 3229.0, 56.8243
8.211519253, 96.390, 3152.0, 56.1427
8.237779819, 96.390, 3155.0, 56.1694
8.264040384, 96.390, 3035.0, 55.0908
8.290300949, 96.390, 3096.0, 55.6417
8.316561515, 96.390, 3132.0, 55.9643
8.342822080, 96.390, 3185.0, 56.4358
8.369082645, 96.390, 3185.0, 56.4358
8.395343211, 96.390, 3164.0, 56.2494
8.421603776, 96.390, 3217.0, 56.7186
8.447864341, 96.390, 3126.0, 55.9106
8.474124907, 96.390, 3214.0, 56.6922
8.500385472, 96.390, 3335.0, 57.7495
8.526646038, 96.390, 3541.0, 59.5063
8.552906603, 96.390, 3428.0, 58.5491
8.579167168, 96.390, 3475.0, 58.9491
8.605427734, 96.390, 3382.0, 58.1550
8.631688299, 96.390, 3287.0, 57.3324
8.657948864, 96.390, 3128.0, 55.9285
8.684209430, 96.390, 3160.0, 56.2139
8.710469995, 96.390, 3104.0, 55.7136
8.736730560, 96.390, 3202.0, 56.5862
8.762991126, 96.390, 2987.0, 54.6535
8.789251691, 96.390, 3193.0, 56.5066
8.815512256, 96.390, 3149.0, 56.1160
8.841772822, 96.390, 3149.0, 56.1160
8.868033387, 96.390, 3189.0, 56.4712
8.894293952, 96.390, 3056.0, 55.2811
8.920554518, 96.390, 3146.0, 56.0892
8.946815083, 96.390, 3179.0, 56.3826
8.973075649, 96.390, 3043.0, 55.1634
8.999336214, 96.390, 3117.0, 55.8301
9.025596779, 96.390, 3088.0, 55.5698
9.051857345, 96.390, 3109.0, 55.7584
9.078117910, 96.390, 3090.0, 55.5878
9.104378475, 96.390, 3188.0, 56.4624
9.130639041, 96.390, 3218.0, 56.7274
9.156899606, 96.390, 3048.0, 55.2087
9.183160171, 96.390, 3138.0, 56.0179
9.209420737, 96.390, 3079.0, 55.4887
9.235681302, 96.390, 3021.0, 54.9636
9.261941867, 96.390, 3002.0, 54.7905
9.288202433, 96.390, 3148.0, 56.1070
9.314462998, 96.390, 2997.0, 54.7449
9.340723564, 96.390, 3110.0, 55.7674
9.366984129, 96.390, 3216.0, 56.7098
9.393244694, 96.390, 3083.0, 55.5248
9.419505260, 96.390, 3164.0, 56.2494
9.445765825, 96.390, 3193.0, 56.5066
9.472026390, 96.390, 3202.0, 56.5862
9.498286956, 96.390, 3137.0, 56.0089
9.524547521, 96.390, 3133.0, 55.9732
9.550808086, 96.390, 3109.0, 55.7584
9.577068652, 96.390, 3160.0, 56.2139
9.603329217, 96.390, 3216.0, 56.7098
9.629589782, 96.390, 3215.0, 56.7010
9.655850348, 96.390, 3162.0, 56.2317
9.682110913, 96.390, 3113.0, 55.7943
9.708371478, 96.390, 3068.0, 55.3895
9.734632044, 96.390, 3140.0, 56.0357
9.760892609, 96.390, 3137.0, 56.0089
9.787153175, 96.390, 3103.0, 55.7046
9.813413740, 96.390, 3153.0, 56.1516
9.839674305, 96.390, 3141.0, 56.0446
9.865934871, 96.390, 3149.0, 56.1160
9.892195436, 96.390, 3122.0, 55.8749
9.918456001, 96.390, 3167.0, 56.2761
9.944716567, 96.390, 3155.0, 56.1694
9.970977132, 96.390, 3210.0, 56.6569
9.997237697, 96.390, 3173.0, 56.3294
10.023498263, 96.390, 3147.0, 56.0981
10.049758828, 96.390, 3166.0, 56.2672
10.076019393, 96.390, 3161.0, 56.2228
10.102279959, 96.390, 3168.0, 56.2850
10.128540524, 96.390, 3171.0, 56.3116
10.154801090, 96.390, 3143.0, 56.0625
10.181061655, 96.390, 3197.0, 56.5420
10.207322220, 96.390, 3095.0, 55.6327
10.233582786, 96.390, 3300.0, 57.4456
10.259843351, 96.390, 3210.0, 56.6569
10.286103916, 96.390, 3182.0, 56.4092
10.312364482, 96.390, 3264.0, 57.1314
10.338625047, 96.390, 3231.0, 56.8419
10.364885612, 96.390, 3336.0, 57.7581
10.391146178, 96.390, 3392.0, 58.2409
10.417406743, 96.390, 3188.0, 56.4624
10.443667308, 96.390, 3217.0, 56.7186
10.469927874, 96.390, 3260.0, 57.0964
10.496188439, 96.390, 3258.0, 57.0789
10.522449004, 96.390, 3262.0, 57.1139
10.548709570, 96.390, 3230.0, 56.8331
10.574970135, 96.390, 3239.0, 56.9122
10.601230701, 96.390, 3284.0, 57.3062
10.627491266, 96.390, 3305.0, 57.4891
10.653751831, 96.390, 3313.0, 57.5587
10.680012397, 96.390, 3273.0, 57.2101
10.706272962, 96.390, 3216.0, 56.7098
10.732533527, 96.390, 3289.0, 57.3498
10.758794093, 96.390, 3270.0, 57.1839
10.785054658, 96.390, 3271.0, 57.1927
10.811315223, 96.390, 3218.0, 56.7274
10.837575789, 96.390, 3283.0, 57.2975
10.863836354, 96.390, 3264.0, 57.1314
10.890096919, 96.390, 3256.0, 57.0614
10.916357485, 96.390, 3346.0, 57.8446
10.942618050, 96.390, 3241.0, 56.9298
10.968878616, 96.390, 3293.0, 57.3847
10.995139181, 96.390, 3339.0, 57.7841
11.021399746, 96.390, 3355.0, 57.9224
11.047660312, 96.390, 3357.0, 57.9396
11.073920877, 96.390, 3145.0, 56.0803
11.100181442, 96.390, 3309.0, 57.5239
11.126442008, 96.390, 3140.0, 56.0357
11.152702573, 96.390, 3250.0, 57.0088
11.178963138, 96.390, 3163.0, 56.2406
11.205223704, 96.390, 3187.0, 56.4535
11.231484269, 96.390, 3163.0, 56.2406
11.257744834, 96.390, 3161.0, 56.2228
11.284005400, 96.390, 3186.0, 56.4447
11.310265965, 96.390, 3219.0, 56.7362
11.336526530, 96.390, 3251.0, 57.0175
11.362787096, 96.390, 3174.0, 56.3383
11.389047661, 96.390, 3168.0, 56.2850
11.415308227, 96.390, 3238.0, 56.9034
11.441568792, 96.390, 3219.0, 56.7362
11.467829357, 96.390, 3029.0, 55.0364
11.494089923, 96.390, 3170.0, 56.3028
11.520350488, 96.390, 3127.0, 55.9196
11.546611053, 96.390, 3157.0, 56.1872
11.572871619, 96.390, 3038.0, 55.1181
11.599132184, 96.390, 3103.0, 55.7046
11.625392749, 96.390, 2964.0, 54.4426
11.651653315, 96.390, 3034.0, 55.0818
11.677913880, 96.390, 3079.0, 55.4887
11.704174445, 96.390, 2999.0, 54.7631
11.730435011, 96.390, 3016.0, 54.9181
11.756695576, 96.390, 2918.0, 54.0185
11.782956141, 96.390, 3012.0, 54.8817
11.809216707, 96.390, 3000.0, 54.7723
11.835477272, 96.390, 2958.0, 54.3875
11.861737838, 96.390, 3057.0, 55.2901
11.887998403, 96.390, 2988.0, 54.6626
11.914258968, 96.390, 3007.0, 54.8361
11.940519534, 96.390, 2951.0, 54.3231
11.966780099, 96.390, 3047.0, 55.1996
11.993040664, 96.390, 2901.0, 53.8609
12.019301230, 96.390, 2873.0, 53.6004
12.045561795, 96.390, 2999.0, 54.7631
12.071822360, 96.390, 2908.0, 53.9259
12.098082926, 96.390, 2925.0, 54.0833
12.124343491, 96.390, 2956.0, 54.3691
12.150604056, 96.390, 2846.0, 53.3479
12.176864622, 96.390, 2849.0, 53.3760
12.203125187, 96.390, 2755.0, 52.4881
12.229385753, 96.390, 2802.0, 52.9339
12.255646318, 96.390, 2802.0, 52.9339
12.281906883, 96.390, 2814.0, 53.0471
12.308167449, 96.390, 2723.0, 52.1824
12.334428014, 96.390, 2762.0, 52.5547
12.360688579, 96.390, 2692.0, 51.8845
12.386949145, 96.390, 2738.0, 52.3259
12.413209710, 96.390, 2740.0, 52.3450
12.439470275, 96.390, 2651.0, 51.4879
12.465730841, 96.390, 2796.0, 52.8772
12.491991406, 96.390, 2747.0, 52.4118
12.518251971, 96.390, 2621.0, 51.1957
12.544512537, 96.390, 2707.0, 52.0288
12.570773102, 96.390, 2675.0, 51.7204
12.597033667, 96.390, 2721.0, 52.1632
12.623294233, 96.390, 2709.0, 52.0481
12.649554798, 96.390, 2747.0, 52.4118
12.675815364, 96.390, 2811.0, 53.0189
12.702075929, 96.390, 2763.0, 52.5642
12.728336494, 96.390, 2796.0, 52.8772
12.754597060, 96.390, 2670.0, 51.6720
12.780857625, 96.390, 2685.0, 51.8170
12.807118190, 96.390, 2539.0, 50.3885
12.833378756, 96.390, 2563.0, 50.6261
12.859639321, 96.390, 2537.0, 50.3686
12.885899886, 96.390, 2619.0, 51.1762
12.912160452, 96.390, 2539.0, 50.3885
12.938421017, 96.390, 2505.0, 50.0500
12.964681582, 96.390, 2476.0, 49.7594
12.990942148, 96.390, 2635.0, 51.3323
13.017202713, 96.390, 2541.0, 50.4083
13.043463279, 96.390, 2504.0, 50.0400
13.069723844, 96.390, 2522.0, 50.2195
13.095984409, 96.390, 2499.0, 49.9900
13.122244975, 96.390, 2457.0, 49.5681
13.148505540, 96.390, 2500.0, 50.0000
13.174766105, 96.390, 2497.0, 49.9700
13.201026671, 96.390, 2547.0, 50.4678
13.227287236, 96.390, 2462.0, 49.6185
13.253547801, 96.390, 2571.0, 50.7050
13.279808367, 96.390, 2505.0, 50.0500
13.306068932, 96.390, 2467.0, 49.6689
13.332329497, 96.390, 2484.0, 49.8397
13.358590063, 96.390, 2521.0, 50.2096
13.384850628, 96.390, 2532.0, 50.3190
13.411111193, 96.390, 2535.0, 50.3488
13.437371759, 96.390, 2652.0, 51.4976
13.463632324, 96.390, 2692.0, 51.8845
13.489892890, 96.390, 2828.0, 53.1789
13.516153455, 96.390, 2837.0, 53.2635
13.542414020, 96.390, 2606.0, 51.0490
13.568674586, 96.390, 2446.0, 49.4571
13.594935151, 96.390, 2423.0, 49.2240
13.621195716, 96.390, 2403.0, 49.0204
13.647456282, 96.390, 2376.0, 48.7442
13.673716847, 96.390, 2292.0, 47.8748
13.699977412, 96.390, 2485.0, 49.8498
13.726237978, 96.390, 2454.0, 49.5379
13.752498543, 96.390, 2480.0, 49.7996
13.778759108, 96.390, 2610.0, 51.0882
13.805019674, 96.390, 2685.0, 51.8170
13.831280239, 96.390, 2682.0, 51.7880
13.857540805, 96.390, 2673.0, 51.7011
13.883801370, 96.390, 2580.0, 50.7937
13.910061935, 96.390, 2475.0, 49.7494
13.936322501, 96.390, 2546.0, 50.4579
13.962583066, 96.390, 2395.0, 48.9387
13.988843631, 96.390, 2418.0, 49.1732
14.015104197, 96.390, 2417.0, 49.1630
14.041364762, 96.390, 2388.0, 48.8672
14.067625327, 96.390, 2367.0, 48.6518
14.093885893, 96.390, 2461.0, 49.6085
14.120146458, 96.390, 2513.0, 50.1298
14.146407023, 96.390, 2471.0, 49.7092
14.172667589, 96.390, 2669.0, 51.6624
14.198928154, 96.390, 2753.0, 52.4690
14.225188719, 96.390, 2960.0, 54.4059
14.251449285, 96.390, 3186.0, 56.4447
14.277709850, 96.390, 3267.0, 57.1577
14.303970416, 96.390, 3042.0, 55.1543
14.330230981, 96.390, 2766.0, 52.5928
14.356491546, 96.390, 2446.0, 49.4571
14.382752112, 96.390, 2505.0, 50.0500
14.409012677, 96.390, 2603.0, 51.0196
14.435273242, 96.390, 2653.0, 51.5073
14.461533808, 96.390, 2848.0, 53.3667
14.487794373, 96.390, 3163.0, 56.2406
14.514054938, 96.390, 3524.0, 59.3633
14.540315504, 96.390, 3779.0, 61.4736
14.566576069, 96.390, 3238.0, 56.9034
14.592836634, 96.390, 2702.0, 51.9808
14.619097200, 96.390, 2292.0, 47.8748
14.645357765, 96.390, 2258.0, 47.5184
14.671618331, 96.390, 2194.0, 46.8402
14.697878896, 96.390, 2201.0, 46.9148
14.724139461, 96.390, 2170.0, 46.5833
14.750400027, 96.390, 2192.0, 46.8188
14.776660592, 96.390, 2232.0, 47.2440
14.802921157, 96.390, 2281.0, 47.7598
14.829181723, 96.390, 2138.0, 46.2385
14.855442288, 96.390, 2147.0, 46.3357
14.881702853, 96.390, 2290.0, 47.8539
14.907963419, 96.390, 2239.0, 47.3181
14.934223984, 96.390, 2237.0, 47.2969
14.960484549, 96.390, 2209.0, 47.0000
14.986745115, 96.390, 2325.0, 48.2183
15.013005680, 96.390, 2290.0, 47.8539
15.039266245, 96.390, 2325.0, 48.2183
15.065526811, 96.390, 2343.0, 48.4045
15.091787376, 96.390, 2457.0, 49.5681
15.118047942, 96.390, 2525.0, 50.2494
15.144308507, 96.390, 2740.0, 52.3450
15.170569072, 96.390, 3019.0, 54.9454
15.196829638, 96.390, 3304.0, 57.4804
15.223090203, 96.390, 3408.0, 58.3781
15.249350768, 96.390, 3445.0, 58.6941
15.275611334, 96.390, 3536.0, 59.4643
15.301871899, 96.390, 3382.0, 58.1550
15.328132464, 96.390, 2796.0, 52.8772
15.354393030, 96.390, 2484.0, 49.8397
15.380653595, 96.390, 2373.0, 48.7134
15.406914160, 96.390, 2274.0, 47.6865
15.433174726, 96.390, 2244.0, 47.3709
15.459435291, 96.390, 2207.0, 46.9787
15.485695857, 96.390, 2123.0, 46.0760
15.511956422, 96.390, 2160.0, 46.4758
15.538216987, 96.390, 2136.0, 46.2169
15.564477553, 96.390, 2021.0, 44.9555
15.590738118, 96.390, 2181.0, 46.7012
15.616998683, 96.390, 2135.0, 46.2061
15.643259249, 96.390, 2062.0, 45.4093
15.669519814, 96.390, 2231.0, 47.2335
15.695780379, 96.390, 2368.0, 48.6621
15.722040945, 96.390, 2329.0, 48.2597
15.748301510, 96.390, 2195.0, 46.8508
15.774562075, 96.390, 2102.0, 45.8476
15.800822641, 96.390, 2191.0, 46.8081
15.827083206, 96.390, 2107.0, 45.9021
15.853343771, 96.390, 2099.0, 45.8148
15.879604337, 96.390, 2025.0, 45.0000
15.905864902, 96.390, 2021.0, 44.9555
15.932125468, 96.390, 2036.0, 45.1221
15.958386033, 96.390, 2019.0, 44.9333
15.984646598, 96.390, 2034.0, 45.0999
16.010907164, 96.390, 2060.0, 45.3872
16.037167729, 96.390, 2117.0, 46.0109
16.063428294, 96.390, 2019.0, 44.9333
16.089688860, 96.390, 2147.0, 46.3357
16.115949425, 96.390, 2072.0, 45.5192
16.142209990, 96.390, 2137.0, 46.2277
16.168470556, 96.390, 2205.0, 46.9574
16.194731121, 96.390, 2211.0, 47.0213
16.220991686, 96.390, 2318.0, 48.1456
16.247252252, 96.390, 2412.0, 49.1121
16.273512817, 96.390, 2734.0, 52.2877
16.299773382, 96.390, 2915.0, 53.9907
16.326033948, 96.390, 3158.0, 56.1961
16.352294513, 96.390, 3138.0, 56.0179
16.378555079, 96.390, 2726.0, 52.2111
16.404815644, 96.390, 2335.0, 48.3218
16.431076209, 96.390, 2175.0, 46.6369
16.457336775, 96.390, 2128.0, 46.1303
16.483597340, 96.390, 2098.0, 45.8039
16.509857905, 96.390, 2158.0, 46.4543
16.536118471, 96.390, 2102.0, 45.8476
16.562379036, 96.390, 2011.0, 44.8442
16.588639601, 96.390, 2007.0, 44.7996
16.614900167, 96.390, 2066.0, 45.4533
16.641160732, 96.390, 2027.0, 45.0222
16.667421297, 96.390, 2030.0, 45.0555
16.693681863, 96.390, 2048.0, 45.2548
16.719942428, 96.390, 2013.0, 44.8665
16.746202994, 96.390, 2077.0, 45.5741
16.772463559, 96.390, 2039.0, 45.1553
16.798724124, 96.390, 1938.0, 44.0227
16.824984690, 96.390, 2004.0, 44.7661
16.851245255, 96.390, 2067.0, 45.4643
16.877505820, 96.390, 2048.0, 45.2548
16.903766386, 96.390, 2098.0, 45.8039
16.930026951, 96.390, 2061.0, 45.3982
16.956287516, 96.390, 2139.0, 46.2493
16.982548082, 96.390, 2083.0, 45.6399
17.008808647, 96.390, 2078.0, 45.5851
17.035069212, 96.390, 1970.0, 44.3847
17.061329778, 96.390, 1957.0, 44.2380
17.087590343, 96.390, 2030.0, 45.0555
17.113850908, 96.390, 1967.0, 44.3509
17.140111474, 96.390, 1947.0, 44.1248
17.166372039, 96.390, 1927.0, 43.8976
17.192632605, 96.390, 2020.0, 44.9444
17.218893170, 96.390, 2031.0, 45.0666
17.245153735, 96.390, 2049.0, 45.2659
17.271414301, 96.390, 2072.0, 45.5192
17.297674866, 96.390, 2101.0, 45.8367
17.323935431, 96.390, 2121.0, 46.0543
17.350195997, 96.390, 2178.0, 46.6690
17.376456562, 96.390, 2293.0, 47.8853
17.402717127, 96.390, 2367.0, 48.6518
17.428977693, 96.390, 2191.0, 46.8081
17.455238258, 96.390, 2164.0, 46.5188
17.481498823, 96.390, 2024.0, 44.9889
17.507759389, 96.390, 2010.0, 44.8330
17.534019954, 96.390, 2025.0, 45.0000
17.560280520, 96.390, 2043.0, 45.1996
17.586541085, 96.390, 2031.0, 45.0666
17.612801650, 96.390, 1900.0, 43.5890
17.639062216, 96.390, 1970.0, 44.3847
17.665322781, 96.390, 2042.0, 45.1885
17.691583346, 96.390, 2076.0, 45.5631
17.717843912, 96.390, 2042.0, 45.1885
17.744104477, 96.390, 1977.0, 44.4635
17.770365042, 96.390, 1949.0, 44.1475
17.796625608, 96.390, 2093.0, 45.7493
17.822886173, 96.390, 2032.0, 45.0777
17.849146738, 96.390, 2037.0, 45.1331
17.875407304, 96.390, 2000.0, 44.7214
17.901667869, 96.390, 1982.0, 44.5197
17.927928434, 96.390, 1997.0, 44.6878
17.954189000, 96.390, 1975.0, 44.4410
17.980449565, 96.390, 2053.0, 45.3100
18.006710131, 96.390, 2036.0, 45.1221
18.032970696, 96.390, 2028.0, 45.0333
18.059231261, 96.390, 1979.0, 44.4860
18.085491827, 96.390, 2132.0, 46.1736
18.111752392, 96.390, 2122.0, 46.0652
18.138012957, 96.390, 2111.0, 45.9456
18.164273523, 96.390, 2071.0, 45.5082
18.190534088, 96.390, 2109.0, 45.9239
18.216794653, 96.390, 2185.0, 46.7440
18.243055219, 96.390, 2243.0, 47.3603
18.269315784, 96.390, 2400.0, 48.9898
18.295576349, 96.390, 2481.0, 49.8096
18.321836915, 96.390, 2492.0, 49.9199
18.348097480, 96.390, 2466.0, 49.6588
18.374358046, 96.390, 2355.0, 48.5283
18.400618611, 96.390, 2362.0, 48.6004
18.426879176, 96.390, 2238.0, 47.3075
18.453139742, 96.390, 2362.0, 48.6004
18.479400307, 96.390, 2301.0, 47.9687
18.505660872, 96.390, 2191.0, 46.8081
18.531921438, 96.390, 2170.0, 46.5833
18.558182003, 96.390, 2152.0, 46.3897
18.584442568, 96.390, 2260.0, 47.5395
18.610703134, 96.390, 2085.0, 45.6618
18.636963699, 96.390, 2303.0, 47.9896
18.663224264, 96.390, 2217.0, 47.0850
18.689484830, 96.390, 2210.0, 47.0106
18.715745395, 96.390, 2377.0, 48.7545
18.742005960, 96.390, 2416.0, 49.1528
18.768266526, 96.390, 2578.0, 50.7740
18.794527091, 96.390, 2537.0, 50.3686
18.820787657, 96.390, 2820.0, 53.1037
18.847048222, 96.390, 3034.0, 55.0818
18.873308787, 96.390, 3272.0, 57.2014
18.899569353, 96.390, 3397.0, 58.2838
18.925829918, 96.390, 3177.0, 56.3649
18.952090483, 96.390, 3333.0, 57.7321
18.978351049, 96.390, 3411.0, 58.4038
19.004611614, 96.390, 3049.0, 55.2178
19.030872179, 96.390, 2836.0, 53.2541
19.057132745, 96.390, 2634.0, 51.3225
19.083393310, 96.390, 2574.0, 50.7346
19.109653875, 96.390, 2638.0, 51.3615
19.135914441, 96.390, 2475.0, 49.7494
19.162175006, 96.390, 2415.0, 49.1426
19.188435572, 96.390, 2323.0, 48.1975
19.214696137, 96.390, 2242.0, 47.3498
19.240956702, 96.390, 2203.0, 46.9361
19.267217268, 96.390, 2319.0, 48.1560
19.293477833, 96.390, 2356.0, 48.5386
19.319738398, 96.390, 2452.0, 49.5177
19.345998964, 96.390, 2530.0, 50.2991
19.372259529, 96.390, 2663.0, 51.6043
19.398520094, 96.390, 2647.0, 51.4490
19.424780660, 96.390, 2866.0, 53.5350
19.451041225, 96.390, 2761.0, 52.5452
19.477301790, 96.390, 2688.0, 51.8459
19.503562356, 96.390, 2683.0, 51.7977
19.529822921, 96.390, 2532.0, 50.3190
19.556083486, 96.390, 2417.0, 49.1630
19.582344052, 96.390, 2428.0, 49.2747
19.608604617, 96.390, 2467.0, 49.6689
19.634865183, 96.390, 2334.0, 48.3115
19.661125748, 96.390, 2413.0, 49.1223
19.687386313, 96.390, 2586.0, 50.8527
19.713646879, 96.390, 2600.0, 50.9902
19.739907444, 96.390, 2761.0, 52.5452
19.766168009, 96.390, 2978.0, 54.5711
19.792428575, 96.390, 3298.0, 57.4282
19.818689140, 96.390, 3154.0, 56.1605
19.844949705, 96.390, 3071.0, 55.4166
19.871210271, 96.390, 2881.0, 53.6749
19.897470836, 96.390, 3023.0, 54.9818
19.923731401, 96.390, 3280.0, 57.2713
19.949991967, 96.390, 3669.0, 60.5723
19.976252532, 96.390, 3989.0, 63.1585
20.002513097, 96.390, 3561.0, 59.6741
20.028773663, 96.390, 3165.0, 56.2583
20.055034228, 96.390, 2627.0, 51.2543
20.081294794, 96.390, 2442.0, 49.4166
20.107555359, 96.390, 2324.0, 48.2079
20.133815924, 96.390, 2376.0, 48.7442
20.160076490, 96.390, 2324.0, 48.2079
20.186337055, 96.390, 2363.0, 48.6107
20.212597620, 96.390, 2262.0, 47.5605
20.238858186, 96.390, 2366.0, 48.6415
20.265118751, 96.390, 2510.0, 50.0999
20.291379316, 96.390, 2471.0, 49.7092
20.317639882, 96.390, 2659.0, 51.5655
20.343900447, 96.390, 2759.0, 52.5262
20.370161012, 96.390, 2902.0, 53.8702
20.396421578, 96.390, 3331.0, 57.7148
20.422682143, 96.390, 3686.0, 60.7124
20.448942709, 96.390, 3745.0, 61.1964
20.475203274, 96.390, 3365.0, 58.0086
20.501463839, 96.390, 3210.0, 56.6569
20.527724405, 96.390, 3153.0, 56.1516
20.553984970, 96.390, 3225.0, 56.7891
20.580245535, 96.390, 3523.0, 59.3549
20.606506101, 96.390, 3925.0, 62.6498
20.632766666, 96.390, 4434.0, 66.5883
20.659027231, 96.390, 5116.0, 71.5262
20.685287797, 96.390, 6178.0, 78.6003
20.711548362, 96.390, 6927.0, 83.2286
20.737808927, 96.390, 6075.0, 77.9423
20.764069493, 96.390, 4627.0, 68.0221
20.790330058, 96.390, 3746.0, 61.2046
20.816590623, 96.390, 2786.0, 52.7826
20.842851189, 96.390, 2562.0, 50.6162
20.869111754, 96.390, 2470.0, 49.6991
20.895372320, 96.390, 2318.0, 48.1456
20.921632885, 96.390, 2369.0, 48.6724
20.947893450, 96.390, 2436.0, 49.3559
20.974154016, 96.390, 2356.0, 48.5386
21.000414581, 96.390, 2460.0, 49.5984
21.026675146, 96.390, 2368.0, 48.6621
21.052935712, 96.390, 2311.0, 48.0729
21.079196277, 96.390, 2430.0, 49.2950
21.105456842, 96.390, 2469.0, 49.6890
21.131717408, 96.390, 2363.0, 48.6107
21.157977973, 96.390, 2430.0, 49.2950
21.184238538, 96.390, 2392.0, 48.9081
21.210499104, 96.390, 2453.0, 49.5278
21.236759669, 96.390, 2590.0, 50.8920
21.263020235, 96.390, 2757.0, 52.5071
21.289280800, 96.390, 2731.0, 52.2590
21.315541365, 96.390, 3040.0, 55.1362
21.341801931, 96.390, 2841.0, 53.3010
21.368062496, 96.390, 2739.0, 52.3355
21.394323061, 96.390, 2581.0, 50.8035
21.420583627, 96.390, 2522.0, 50.2195
21.446844192, 96.390, 2462.0, 49.6185
21.473104757, 96.390, 2462.0, 49.6185
21.499365323, 96.390, 2481.0, 49.8096
21.525625888, 96.390, 2600.0, 50.9902
21.551886453, 96.390, 2781.0, 52.7352
21.578147019, 96.390, 2960.0, 54.4059
21.604407584, 96.390, 3177.0, 56.3649
21.630668149, 96.390, 3310.0, 57.5326
21.656928715, 96.390, 3275.0, 57.2276
21.683189280, 96.390, 2982.0, 54.6077
21.709449846, 96.390, 2710.0, 52.0577
21.735710411, 96.390, 2676.0, 51.7301
21.761970976, 96.390, 2551.0, 50.5074
21.788231542, 96.390, 2448.0, 49.4773
21.814492107, 96.390, 2451.0, 49.5076
21.840752672, 96.390, 2389.0, 48.8774
21.867013238, 96.390, 2354.0, 48.5180
21.893273803, 96.390, 2436.0, 49.3559
21.919534368, 96.390, 2389.0, 48.8774
21.945794934, 96.390, 2475.0, 49.7494
21.972055499, 96.390, 2416.0, 49.1528
21.998316064, 96.390, 2526.0, 50.2593
22.024576630, 96.390, 2445.0, 49.4469
22.050837195, 96.390, 2569.0, 50.6853
22.077097761, 96.390, 2513.0, 50.1298
22.103358326, 96.390, 2650.0, 51.4782
22.129618891, 96.390, 2603.0, 51.0196
22.155879457, 96.390, 2628.0, 51.2640
22.182140022, 96.390, 2591.0, 50.9019
22.208400587, 96.390, 2575.0, 50.7445
22.234661153, 96.390, 2569.0, 50.6853
22.260921718, 96.390, 2574.0, 50.7346
22.287182283, 96.390, 2518.0, 50.1797
22.313442849, 96.390, 2531.0, 50.3090
22.339703414, 96.390, 2430.0, 49.2950
22.365963979, 96.390, 2520.0, 50.1996
22.392224545, 96.390, 2505.0, 50.0500
22.418485110, 96.390, 2488.0, 49.8799
22.444745675, 96.390, 2527.0, 50.2693
22.471006241, 96.390, 2442.0, 49.4166
22.497266806, 96.390, 2691.0, 51.8748
22.523527372, 96.390, 2543.0, 50.4282
22.549787937, 96.390, 2675.0, 51.7204
22.576048502, 96.390, 2874.0, 53.6097
22.602309068, 96.390, 2824.0, 53.1413
22.628569633, 96.390, 2817.0, 53.0754
22.654830198, 96.390, 2788.0, 52.8015
22.681090764, 96.390, 2813.0, 53.0377
22.707351329, 96.390, 2644.0, 51.4198
22.733611894, 96.390, 2779.0, 52.7162
22.759872460, 96.390, 2905.0, 53.8981
22.786133025, 96.390, 3041.0, 55.1453
22.812393590, 96.390, 3298.0, 57.4282
22.838654156, 96.390, 3324.0, 57.6541
22.864914721, 96.390, 3479.0, 58.9830
22.891175287, 96.390, 3532.0, 59.4306
22.917435852, 96.390, 3217.0, 56.7186
22.943696417, 96.390, 3133.0, 55.9732
22.969956983, 96.390, 3149.0, 56.1160
22.996217548, 96.390, 3135.0, 55.9911
23.022478113, 96.390, 3017.0, 54.9272
23.048738679, 96.390, 2988.0, 54.6626
23.074999244, 96.390, 2953.0, 54.3415
23.101259809, 96.390, 3008.0, 54.8452
23.127520375, 96.390, 3238.0, 56.9034
23.153780940, 96.390, 3400.0, 58.3095
23.180041505, 96.390, 3672.0, 60.5970
23.206302071, 96.390, 3578.0, 59.8164
23.232562636, 96.390, 3460.0, 58.8218
23.258823201, 96.390, 3310.0, 57.5326
23.285083767, 96.390, 3193.0, 56.5066
23.311344332, 96.390, 2961.0, 54.4151
23.337604898, 96.390, 3058.0, 55.2992
23.363865463, 96.390, 3266.0, 57.1489
23.390126028, 96.390, 3198.0, 56.5509
23.416386594, 96.390, 3101.0, 55.6866
23.442647159, 96.390, 3018.0, 54.9363
23.468907724, 96.390, 2969.0, 54.4885
23.495168290, 96.390, 2960.0, 54.4059
23.521428855, 96.390, 2954.0, 54.3507
23.547689420, 96.390, 2860.0, 53.4790
23.573949986, 96.390, 3011.0, 54.8726
23.600210551, 96.390, 2855.0, 53.4322
23.626471116, 96.390, 2770.0, 52.6308
23.652731682, 96.390, 2663.0, 51.6043
23.678992247, 96.390, 2555.0, 50.5470
23.705252813, 96.390, 2448.0, 49.4773
23.731513378, 96.390, 2466.0, 49.6588
23.757773943, 96.390, 2395.0, 48.9387
23.784034509, 96.390, 2504.0, 50.0400
23.810295074, 96.390, 2441.0, 49.4065
23.836555639, 96.390, 2320.0, 48.1664
23.862816205, 96.390, 2481.0, 49.8096
23.889076770, 96.390, 2367.0, 48.6518
23.915337335, 96.390, 2453.0, 49.5278
23.941597901, 96.390, 2454.0, 49.5379
23.967858466, 96.390, 2375.0, 48.7340
23.994119031, 96.390, 2424.0, 49.2341
24.020379597, 96.390, 2399.0, 48.9796
24.046640162, 96.390, 2382.0, 48.8057
24.072900727, 96.390, 2508.0, 50.0799
24.099161293, 96.390, 2495.0, 49.9500
24.125421858, 96.390, 2645.0, 51.4296
24.151682424, 96.390, 2690.0, 51.8652
24.177942989, 96.390, 2877.0, 53.6377
24.204203554, 96.390, 2979.0, 54.5802
24.230464120, 96.390, 2780.0, 52.7257
24.256724685, 96.390, 2811.0, 53.0189
24.282985250, 96.390, 2623.0, 51.2152
24.309245816, 96.390, 2487.0, 49.8698
24.335506381, 96.390, 2506.0, 50.0600
24.361766946, 96.390, 2465.0, 49.6488
24.388027512, 96.390, 2278.0, 47.7284
24.414288077, 96.390, 2299.0, 47.9479
24.440548642, 96.390, 2268.0, 47.6235
24.466809208, 96.390, 2156.0, 46.4327
24.493069773, 96.390, 2313.0, 48.0937
24.519330338, 96.390, 2250.0, 47.4342
24.545590904, 96.390, 2288.0, 47.8330
24.571851469, 96.390, 2397.0, 48.9592
24.598112035, 96.390, 2359.0, 48.5695
24.624372600, 96.390, 2314.0, 48.1041
24.650633165, 96.390, 2317.0, 48.1352
24.676893731, 96.390, 2186.0, 46.7547
24.703154296, 96.390, 2144.0, 46.3033
24.729414861, 96.390, 2297.0, 47.9270
24.755675427, 96.390, 2221.0, 47.1275
24.781935992, 96.390, 2332.0, 48.2908
24.808196557, 96.390, 2262.0, 47.5605
24.834457123, 96.390, 2180.0, 46.6905
24.860717688, 96.390, 2222.0, 47.1381
24.886978253, 96.390, 2134.0, 46.1952
24.913238819, 96.390, 2178.0, 46.6690
24.939499384, 96.390, 2111.0, 45.9456
24.965759950, 96.390, 2115.0, 45.9891
24.992020515, 96.390, 2120.0, 46.0435
25.018281080, 96.390, 2134.0, 46.1952
25.044541646, 96.390, 2140.0, 46.2601
25.070802211, 96.390, 2017.0, 44.9110
25.097062776, 96.390, 1981.0, 44.5084
25.123323342, 96.390, 2054.0, 45.3211
25.149583907, 96.390, 1942.0, 44.0681
25.175844472, 96.390, 2094.0, 45.7602
25.202105038, 96.390, 1995.0, 44.6654
25.228365603, 96.390, 2023.0, 44.9778
25.254626168, 96.390, 2039.0, 45.1553
25.280886734, 96.390, 2070.0, 45.4973
25.307147299, 96.390, 2138.0, 46.2385
25.333407864, 96.390, 2229.0, 47.2123
25.359668430, 96.390, 2426.0, 49.2544
25.385928995, 96.390, 2596.0, 50.9510
25.412189561, 96.390, 2835.0, 53.2447
25.438450126, 96.390, 2906.0, 53.9073
25.464710691, 96.390, 2848.0, 53.3667
25.490971257, 96.390, 2596.0, 50.9510
25.517231822, 96.390, 2453.0, 49.5278
25.543492387, 96.390, 2209.0, 47.0000
25.569752953, 96.390, 2152.0, 46.3897
25.596013518, 96.390, 1924.0, 43.8634
25.622274083, 96.390, 2023.0, 44.9778
25.648534649, 96.390, 2023.0, 44.9778
25.674795214, 96.390, 1921.0, 43.8292
25.701055779, 96.390, 1909.0, 43.6921
25.727316345, 96.390, 1901.0, 43.6005
25.753576910, 96.390, 1996.0, 44.6766
25.779837476, 96.390, 1867.0, 43.2088
25.806098041, 96.390, 1988.0, 44.5870
25.832358606, 96.390, 2080.0, 45.6070
25.858619172, 96.390, 2194.0, 46.8402
25.884879737, 96.390, 2078.0, 45.5851
25.911140302, 96.390, 2202.0, 46.9255
25.937400868, 96.390, 2165.0, 46.5296
25.963661433, 96.390, 2118.0, 46.0217
25.989921998, 96.390, 2037.0, 45.1331
26.016182564, 96.390, 2033.0, 45.0888
26.042443129, 96.390, 1941.0, 44.0568
26.068703694, 96.390, 1937.0, 44.0114
26.094964260, 96.390, 1774.0, 42.1189
26.121224825, 96.390, 1778.0, 42.1663
26.147485390, 96.390, 1866.0, 43.1972
26.173745956, 96.390, 1810.0, 42.5441
26.200006521, 96.390, 1811.0, 42.5558
26.226267087, 96.390, 1854.0, 43.0581
26.252527652, 96.390, 1901.0, 43.6005
26.278788217, 96.390, 1877.0, 43.3244
26.305048783, 96.390, 1858.0, 43.1045
26.331309348, 96.390, 1922.0, 43.8406
26.357569913, 96.390, 1905.0, 43.6463
26.383830479, 96.390, 1910.0, 43.7035
26.410091044, 96.390, 1910.0, 43.7035
26.436351609, 96.390, 2025.0, 45.0000
26.462612175, 96.390, 1933.0, 43.9659
26.488872740, 96.390, 1903.0, 43.6234
26.515133305, 96.390, 1912.0, 43.7264
26.541393871, 96.390, 1859.0, 43.1161
26.567654436, 96.390, 1927.0, 43.8976
26.593915002, 96.390, 1873.0, 43.2782
26.620175567, 96.390, 1901.0, 43.6005
26.646436132, 96.390, 1912.0, 43.7264
26.672696698, 96.390, 2021.0, 44.9555
26.698957263, 96.390, 2229.0, 47.2123
26.725217828, 96.390, 2332.0, 48.2908
26.751478394, 96.390, 2599.0, 50.9804
26.777738959, 96.390, 2904.0, 53.8888
26.803999524, 96.390, 3151.0, 56.1338
26.830260090, 96.390, 3071.0, 55.4166
26.856520655, 96.390, 2937.0, 54.1941
26.882781220, 96.390, 2675.0, 51.7204
26.909041786, 96.390, 2527.0, 50.2693
26.935302351, 96.390, 2539.0, 50.3885
26.961562916, 96.390, 2493.0, 49.9300
26.987823482, 96.390, 2751.0, 52.4500
27.014084047, 96.390, 3014.0, 54.8999
27.040344613, 96.390, 3177.0, 56.3649
27.066605178, 96.390, 3293.0, 57.3847
27.092865743, 96.390, 3208.0, 56.6392
27.119126309, 96.390, 3359.0, 57.9569
27.145386874, 96.390, 3953.0, 62.8729
27.171647439, 96.390, 4327.0, 65.7799
27.197908005, 96.390, 4703.0, 68.5784
27.224168570, 96.390, 4017.0, 63.3798
27.250429135, 96.390, 3466.0, 58.8727
27.276689701, 96.390, 3078.0, 55.4797
27.302950266, 96.390, 2503.0, 50.0300
27.329210831, 96.390, 2241.0, 47.3392
27.355471397, 96.390, 2224.0, 47.1593
27.381731962, 96.390, 2096.0, 45.7821
27.407992528, 96.390, 2131.0, 46.1628
27.434253093, 96.390, 2007.0, 44.7996
27.460513658, 96.390, 1940.0, 44.0454
27.486774224, 96.390, 1874.0, 43.2897
27.513034789, 96.390, 1901.0, 43.6005
27.539295354, 96.390, 1754.0, 41.8808
27.565555920, 96.390, 1780.0, 42.1900
27.591816485, 96.390, 1915.0, 43.7607
27.618077050, 96.390, 1945.0, 44.1022
27.644337616, 96.390, 2002.0, 44.7437
27.670598181, 96.390, 2088.0, 45.6946
27.696858746, 96.390, 1905.0, 43.6463
27.723119312, 96.390, 1971.0, 44.3959
27.749379877, 96.390, 1931.0, 43.9431
27.775640442, 96.390, 1890.0, 43.4741
27.801901008, 96.390, 1944.0, 44.0908
27.828161573, 96.390, 1895.0, 43.5316
27.854422139, 96.390, 1877.0, 43.3244
27.880682704, 96.390, 1844.0, 42.9418
27.906943269, 96.390, 1792.0, 42.3320
27.933203835, 96.390, 1829.0, 42.7668
27.959464400, 96.390, 1945.0, 44.1022
27.985724965, 96.390, 1934.0, 43.9773
28.011985531, 96.390, 1966.0, 44.3396
28.038246096, 96.390, 2038.0, 45.1442
28.064506661, 96.390, 1933.0, 43.9659
28.090767227, 96.390, 1899.0, 43.5775
28.117027792, 96.390, 1973.0, 44.4185
28.143288357, 96.390, 1973.0, 44.4185
28.169548923, 96.390, 1911.0, 43.7150
28.195809488, 96.390, 1977.0, 44.4635
28.222070054, 96.390, 1934.0, 43.9773
28.248330619, 96.390, 1956.0, 44.2267
28.274591184, 96.390, 2038.0, 45.1442
28.300851750, 96.390, 2020.0, 44.9444
28.327112315, 96.390, 2066.0, 45.4533
28.353372880, 96.390, 1992.0, 44.6318
28.379633446, 96.390, 1992.0, 44.6318
28.405894011, 96.390, 2057.0, 45.3542
28.432154576, 96.390, 1952.0, 44.1814
28.458415142, 96.390, 2031.0, 45.0666
28.484675707, 96.390, 1942.0, 44.0681
28.510936272, 96.390, 1933.0, 43.9659
28.537196838, 96.390, 2008.0, 44.8107
28.563457403, 96.390, 1918.0, 43.7950
28.589717968, 96.390, 1923.0, 43.8520
28.615978534, 96.390, 1948.0, 44.1362
28.642239099, 96.390, 1901.0, 43.6005
28.668499665, 96.390, 1942.0, 44.0681
28.694760230, 96.390, 1962.0, 44.2945
28.721020795, 96.390, 2031.0, 45.0666
28.747281361, 96.390, 2162.0, 46.4973
28.773541926, 96.390, 2083.0, 45.6399
28.799802491, 96.390, 2041.0, 45.1774
28.826063057, 96.390, 2016.0, 44.8999
28.852323622, 96.390, 2099.0, 45.8148
28.878584187, 96.390, 2008.0, 44.8107
28.904844753, 96.390, 1980.0, 44.4972
28.931105318, 96.390, 1983.0, 44.5309
28.957365883, 96.390, 1954.0, 44.2041
28.983626449, 96.390, 1966.0, 44.3396
29.009887014, 96.390, 2068.0, 45.4753
29.036147579, 96.390, 2088.0, 45.6946
29.062408145, 96.390, 2284.0, 47.7912
29.088668710, 96.390, 2444.0, 49.4368
29.114929276, 96.390, 2668.0, 51.6527
29.141189841, 96.390, 2656.0, 51.5364
29.167450406, 96.390, 2797.0, 52.8867
29.193710972, 96.390, 2766.0, 52.5928
29.219971537, 96.390, 2694.0, 51.9038
29.246232102, 96.390, 2901.0, 53.8609
29.272492668, 96.390, 3105.0, 55.7225
29.298753233, 96.390, 3473.0, 58.9322
29.325013798, 96.390, 3427.0, 58.5406
29.351274364, 96.390, 2987.0, 54.6535
29.377534929, 96.390, 2977.0, 54.5619
29.403795494, 96.390, 2920.0, 54.0370
29.430056060, 96.390, 2820.0, 53.1037
29.456316625, 96.390, 2779.0, 52.7162
29.482577191, 96.390, 3069.0, 55.3986
29.508837756, 96.390, 3050.0, 55.2268
29.535098321, 96.390, 2684.0, 51.8073
29.561358887, 96.390, 2679.0, 51.7591
29.587619452, 96.390, 2518.0, 50.1797
29.613880017, 96.390, 2270.0, 47.6445
29.640140583, 96.390, 2278.0, 47.7284
29.666401148, 96.390, 2160.0, 46.4758
29.692661713, 96.390, 2152.0, 46.3897
29.718922279, 96.390, 2184.0, 46.7333
29.745182844, 96.390, 2153.0, 46.4004
29.771443409, 96.390, 2044.0, 45.2106
29.797703975, 96.390, 2037.0, 45.1331
29.823964540, 96.390, 2038.0, 45.1442
29.850225105, 96.390, 1908.0, 43.6807
29.876485671, 96.390, 1938.0, 44.0227
29.902746236, 96.390, 1956.0, 44.2267
29.929006802, 96.390, 1927.0, 43.8976
29.955267367, 96.390, 2010.0, 44.8330
29.981527932, 96.390, 1940.0, 44.0454
30.007788498, 96.390, 1992.0, 44.6318
30.034049063, 96.390, 1929.0, 43.9204
30.060309628, 96.390, 1967.0, 44.3509
30.086570194, 96.390, 1904.0, 43.6348
30.112830759, 96.390, 1870.0, 43.2435
30.139091324, 96.390, 1843.0, 42.9302
30.165351890, 96.390, 1805.0, 42.4853
30.191612455, 96.390, 1791.0, 42.3202
30.217873020, 96.390, 1882.0, 43.3820
30.244133586, 96.390, 1771.0, 42.0833
30.270394151, 96.390, 1838.0, 42.8719
30.296654717, 96.390, 1889.0, 43.4626
30.322915282, 96.390, 1921.0, 43.8292
30.349175847, 96.390, 1982.0, 44.5197
30.375436413, 96.390, 2021.0, 44.9555
30.401696978, 96.390, 2079.0, 45.5961
30.427957543, 96.390, 2139.0, 46.2493
30.454218109, 96.390, 2234.0, 47.2652
30.480478674, 96.390, 2258.0, 47.5184
30.506739239, 96.390, 2287.0, 47.8226
30.532999805, 96.390, 2145.0, 46.3141
30.559260370, 96.390, 2215.0, 47.0638
30.585520935, 96.390, 2330.0, 48.2701
30.611781501, 96.390, 2502.0, 50.0200
30.638042066, 96.390, 2674.0, 51.7107
30.664302631, 96.390, 2787.0, 52.7920
30.690563197, 96.390, 2729.0, 52.2398
30.716823762, 96.390, 2957.0, 54.3783
30.743084328, 96.390, 3324.0, 57.6541
30.769344893, 96.390, 2986.0, 54.6443
30.795605458, 96.390, 2883.0, 53.6936
30.821866024, 96.390, 2959.0, 54.3967
30.848126589, 96.390, 2931.0, 54.1387
30.874387154, 96.390, 2531.0, 50.3090
30.900647720, 96.390, 2407.0, 49.0612
30.926908285, 96.390, 2409.0, 49.0816
30.953168850, 96.390, 2258.0, 47.5184
30.979429416, 96.390, 2185.0, 46.7440
31.005689981, 96.390, 2219.0, 47.1063
31.031950546, 96.390, 2115.0, 45.9891
31.058211112, 96.390, 2108.0, 45.9130
31.084471677, 96.390, 2220.0, 47.1169
31.110732243, 96.390, 2332.0, 48.2908
31.136992808, 96.390, 2534.0, 50.3389
31.163253373, 96.390, 2849.0, 53.3760
31.189513939, 96.390, 3400.0, 58.3095
31.215774504, 96.390, 3876.0, 62.2575
31.242035069, 96.390, 3820.0, 61.8061
31.268295635, 96.390, 3842.0, 61.9839
31.294556200, 96.390, 4056.0, 63.6867
31.320816765, 96.390, 3796.0, 61.6117
31.347077331, 96.390, 3310.0, 57.5326
31.373337896, 96.390, 3381.0, 58.1464
31.399598461, 96.390, 3325.0, 57.6628
31.425859027, 96.390, 2956.0, 54.3691
31.452119592, 96.390, 2809.0, 53.0000
31.478380157, 96.390, 2742.0, 52.3641
31.504640723, 96.390, 2826.0, 53.1601
31.530901288, 96.390, 2674.0, 51.7107
31.557161854, 96.390, 2582.0, 50.8134
31.583422419, 96.390, 2433.0, 49.3254
31.609682984, 96.390, 2442.0, 49.4166
31.635943550, 96.390, 2388.0, 48.8672
31.662204115, 96.390, 2467.0, 49.6689
31.688464680, 96.390, 2472.0, 49.7192
31.714725246, 96.390, 2489.0, 49.8899
31.740985811, 96.390, 2429.0, 49.2849
31.767246376, 96.390, 2318.0, 48.1456
31.793506942, 96.390, 2206.0, 46.9681
31.819767507, 96.390, 2081.0, 45.6180
31.846028072, 96.390, 2085.0, 45.6618
31.872288638, 96.390, 2200.0, 46.9042
31.898549203, 96.390, 2295.0, 47.9062
31.924809769, 96.390, 2542.0, 50.4183
31.951070334, 96.390, 2841.0, 53.3010
31.977330899, 96.390, 3435.0, 58.6089
32.003591465, 96.390, 3990.0, 63.1664
32.029852030, 96.390, 4940.0, 70.2851
32.056112595, 96.390, 5764.0, 75.9210
32.082373161, 96.390, 5816.0, 76.2627
32.108633726, 96.390, 4932.0, 70.2282
32.134894291, 96.390, 4199.0, 64.7997
32.161154857, 96.390, 3951.0, 62.8570
32.187415422, 96.390, 3302.0, 57.4630
32.213675987, 96.390, 2839.0, 53.2823
32.239936553, 96.390, 2760.0, 52.5357
32.266197118, 96.390, 3097.0, 55.6507
32.292457683, 96.390, 3068.0, 55.3895
32.318718249, 96.390, 2794.0, 52.8583
32.344978814, 96.390, 2471.0, 49.7092
32.371239380, 96.390, 2468.0, 49.6790
32.397499945, 96.390, 2225.0, 47.1699
32.423760510, 96.390, 2051.0, 45.2880
32.450021076, 96.390, 1879.0, 43.3474
32.476281641, 96.390, 1907.0, 43.6692
32.502542206, 96.390, 1873.0, 43.2782
32.528802772, 96.390, 1867.0, 43.2088
32.555063337, 96.390, 1945.0, 44.1022
32.581323902, 96.390, 1877.0, 43.3244
32.607584468, 96.390, 1979.0, 44.4860
32.633845033, 96.390, 2116.0, 46.0000
32.660105598, 96.390, 2235.0, 47.2758
32.686366164, 96.390, 2172.0, 46.6047
32.712626729, 96.390, 2218.0, 47.0956
32.738887295, 96.390, 2098.0, 45.8039
32.765147860, 96.390, 1981.0, 44.5084
32.791408425, 96.390, 1827.0, 42.7434
32.817668991, 96.390, 1886.0, 43.4281
32.843929556, 96.390, 1844.0, 42.9418
32.870190121, 96.390, 1863.0, 43.1625
32.896450687, 96.390, 1932.0, 43.9545
32.922711252, 96.390, 2050.0, 45.2769
32.948971817, 96.390, 2133.0, 46.1844
32.975232383, 96.390, 2308.0, 48.0416
33.001492948, 96.390, 2297.0, 47.9270
33.027753513, 96.390, 2373.0, 48.7134
33.054014079, 96.390, 2367.0, 48.6518
33.080274644, 96.390, 2507.0, 50.0700
33.106535209, 96.390, 2529.0, 50.2892
33.132795775, 96.390, 2476.0, 49.7594
33.159056340, 96.390, 2478.0, 49.7795
33.185316906, 96.390, 2582.0, 50.8134
33.211577471, 96.390, 2490.0, 49.8999
33.237838036, 96.390, 2489.0, 49.8899
33.264098602, 96.390, 2376.0, 48.7442
33.290359167, 96.390, 2290.0, 47.8539
33.316619732, 96.390, 2303.0, 47.9896
33.342880298, 96.390, 2306.0, 48.0208
33.369140863, 96.390, 2300.0, 47.9583
33.395401428, 96.390, 2388.0, 48.8672
33.421661994, 96.390, 2479.0, 49.7896
33.447922559, 96.390, 2564.0, 50.6360
33.474183124, 96.390, 2444.0, 49.4368
33.500443690, 96.390, 2227.0, 47.1911
33.526704255, 96.390, 2136.0, 46.2169
33.552964820, 96.390, 2131.0, 46.1628
33.579225386, 96.390, 2004.0, 44.7661
33.605485951, 96.390, 1889.0, 43.4626
33.631746517, 96.390, 1985.0, 44.5533
33.658007082, 96.390, 1901.0, 43.6005
33.684267647, 96.390, 1882.0, 43.3820
33.710528213, 96.390, 1948.0, 44.1362
33.736788778, 96.390, 1950.0, 44.1588
33.763049343, 96.390, 1902.0, 43.6119
33.789309909, 96.390, 1914.0, 43.7493
33.815570474, 96.390, 1943.0, 44.0795
33.841831039, 96.390, 2062.0, 45.4093
33.868091605, 96.390, 2201.0, 46.9148
33.894352170, 96.390, 2560.0, 50.5964
33.920612735, 96.390, 2698.0, 51.9423
33.946873301, 96.390, 3123.0, 55.8838
33.973133866, 96.390, 3118.0, 55.8391
33.999394432, 96.390, 2858.0, 53.4603
34.025654997, 96.390, 2594.0, 50.9313
34.051915562, 96.390, 2465.0, 49.6488
34.078176128, 96.390, 2387.0, 48.8569
34.104436693, 96.390, 2043.0, 45.1996
34.130697258, 96.390, 2025.0, 45.0000
34.156957824, 96.390, 2133.0, 46.1844
34.183218389, 96.390, 2079.0, 45.5961
34.209478954, 96.390, 2076.0, 45.5631
34.235739520, 96.390, 2102.0, 45.8476
34.262000085, 96.390, 2234.0, 47.2652
34.288260650, 96.390, 2253.0, 47.4658
34.314521216, 96.390, 2367.0, 48.6518
34.340781781, 96.390, 2382.0, 48.8057
34.367042346, 96.390, 2515.0, 50.1498
34.393302912, 96.390, 2648.0, 51.4587
34.419563477, 96.390, 2810.0, 53.0094
34.445824043, 96.390, 3075.0, 55.4527
34.472084608, 96.390, 3351.0, 57.8878
34.498345173, 96.390, 3562.0, 59.6825
34.524605739, 96.390, 3645.0, 60.3738
34.550866304, 96.390, 3719.0, 60.9836
34.577126869, 96.390, 3836.0, 61.9355
34.603387435, 96.390, 3817.0, 61.7819
34.629648000, 96.390, 3364.0, 58.0000
34.655908565, 96.390, 3174.0, 56.3383
34.682169131, 96.390, 2964.0, 54.4426
34.708429696, 96.390, 2989.0, 54.6717
34.734690261, 96.390, 2773.0, 52.6593
34.760950827, 96.390, 2697.0, 51.9326
34.787211392, 96.390, 2719.0, 52.1440
34.813471958, 96.390, 2835.0, 53.2447
34.839732523, 96.390, 2923.0, 54.0648
34.865993088, 96.390, 3121.0, 55.8659
34.892253654, 96.390, 3506.0, 59.2115
34.918514219, 96.390, 3504.0, 59.1946
34.944774784, 96.390, 3690.0, 60.7454
34.971035350, 96.390, 3577.0, 59.8080
34.997295915, 96.390, 3561.0, 59.6741
35.023556480, 96.390, 3376.0, 58.1034
35.049817046, 96.390, 3290.0, 57.3585
35.076077611, 96.390, 3017.0, 54.9272
35.102338176, 96.390, 2955.0, 54.3599
35.128598742, 96.390, 2792.0, 52.8394
35.154859307, 96.390, 2826.0, 53.1601
35.181119872, 96.390, 2931.0, 54.1387
35.207380438, 96.390, 2937.0, 54.1941
35.233641003, 96.390, 2803.0, 52.9434
35.259901569, 96.390, 2662.0, 51.5946
35.286162134, 96.390, 2484.0, 49.8397
35.312422699, 96.390, 2338.0, 48.3529
35.338683265, 96.390, 2277.0, 47.7179
35.364943830, 96.390, 2111.0, 45.9456
35.391204395, 96.390, 2116.0, 46.0000
35.417464961, 96.390, 2080.0, 45.6070
35.443725526, 96.390, 2022.0, 44.9667
35.469986091, 96.390, 2054.0, 45.3211
35.496246657, 96.390, 2008.0, 44.8107
35.522507222, 96.390, 2001.0, 44.7325
35.548767787, 96.390, 2057.0, 45.3542
35.575028353, 96.390, 2196.0, 46.8615
35.601288918, 96.390, 2155.0, 46.4220
35.627549484, 96.390, 2151.0, 46.3789
35.653810049, 96.390, 2212.0, 47.0319
35.680070614, 96.390, 2243.0, 47.3603
35.706331180, 96.390, 2221.0, 47.1275
35.732591745, 96.390, 2267.0, 47.6130
35.758852310, 96.390, 2245.0, 47.3814
35.785112876, 96.390, 2211.0, 47.0213
35.811373441, 96.390, 2255.0, 47.4868
35.837634006, 96.390, 2359.0, 48.5695
35.863894572, 96.390, 2377.0, 48.7545
35.890155137, 96.390, 2696.0, 51.9230
35.916415702, 96.390, 2832.0, 53.2165
35.942676268, 96.390, 3097.0, 55.6507
35.968936833, 96.390, 2994.0, 54.7175
35.995197398, 96.390, 2763.0, 52.5642
36.021457964, 96.390, 2771.0, 52.6403
36.047718529, 96.390, 2773.0, 52.6593
36.073979095, 96.390, 2737.0, 52.3163
36.100239660, 96.390, 2690.0, 51.8652
36.126500225, 96.390, 2708.0, 52.0384
36.152760791, 96.390, 3039.0, 55.1271
36.179021356, 96.390, 3293.0, 57.3847
36.205281921, 96.390, 3421.0, 58.4893
36.231542487, 96.390, 3100.0, 55.6776
36.257803052, 96.390, 2708.0, 52.0384
36.284063617, 96.390, 2549.0, 50.4876
36.310324183, 96.390, 2522.0, 50.2195
36.336584748, 96.390, 2159.0, 46.4650
36.362845313, 96.390, 1995.0, 44.6654
36.389105879, 96.390, 1975.0, 44.4410
36.415366444, 96.390, 1941.0, 44.0568
36.441627010, 96.390, 1881.0, 43.3705
36.467887575, 96.390, 1973.0, 44.4185
36.494148140, 96.390, 1998.0, 44.6990
36.520408706, 96.390, 1810.0, 42.5441
36.546669271, 96.390, 1844.0, 42.9418
36.572929836, 96.390, 1862.0, 43.1509
36.599190402, 96.390, 1802.0, 42.4500
36.625450967, 96.390, 1810.0, 42.5441
36.651711532, 96.390, 1662.0, 40.7676
36.677972098, 96.390, 1661.0, 40.7554
36.704232663, 96.390, 1708.0, 41.3280
36.730493228, 96.390, 1797.0, 42.3910
36.756753794, 96.390, 1620.0, 40.2492
36.783014359, 96.390, 1664.0, 40.7922
36.809274924, 96.390, 1597.0, 39.9625
36.835535490, 96.390, 1610.0, 40.1248
36.861796055, 96.390, 1633.0, 40.4104
36.888056621, 96.390, 1631.0, 40.3856
36.914317186, 96.390, 1635.0, 40.4351
36.940577751, 96.390, 1593.0, 39.9124
36.966838317, 96.390, 1538.0, 39.2173
36.993098882, 96.390, 1601.0, 40.0125
37.019359447, 96.390, 1610.0, 40.1248
37.045620013, 96.390, 1663.0, 40.7799
37.071880578, 96.390, 1629.0, 40.3609
37.098141143, 96.390, 1740.0, 41.7133
37.124401709, 96.390, 1838.0, 42.8719
37.150662274, 96.390, 1854.0, 43.0581
37.176922839, 96.390, 1847.0, 42.9767
37.203183405, 96.390, 1893.0, 43.5086
37.229443970, 96.390, 1894.0, 43.5201
37.255704535, 96.390, 1915.0, 43.7607
37.281965101, 96.390, 1796.0, 42.3792
37.308225666, 96.390, 1760.0, 41.9524
37.334486232, 96.390, 1883.0, 43.3935
37.360746797, 96.390, 1883.0, 43.3935
37.387007362, 96.390, 1810.0, 42.5441
37.413267928, 96.390, 1833.0, 42.8135
37.439528493, 96.390, 1989.0, 44.5982
37.465789058, 96.390, 2068.0, 45.4753
37.492049624, 96.390, 2017.0, 44.9110
37.518310189, 96.390, 2078.0, 45.5851
37.544570754, 96.390, 2065.0, 45.4423
37.570831320, 96.390, 2190.0, 46.7974
37.597091885, 96.390, 2054.0, 45.3211
37.623352450, 96.390, 1990.0, 44.6094
37.649613016, 96.390, 2027.0, 45.0222
37.675873581, 96.390, 2124.0, 46.0869
37.702134147, 96.390, 2177.0, 46.6583
37.728394712, 96.390, 2366.0, 48.6415
37.754655277, 96.390, 2411.0, 49.1019
37.780915843, 96.390, 2388.0, 48.8672
37.807176408, 96.390, 2500.0, 50.0000
37.833436973, 96.390, 2633.0, 51.3128
37.859697539, 96.390, 2592.0, 50.9117
37.885958104, 96.390, 2355.0, 48.5283
37.912218669, 96.390, 2206.0, 46.9681
37.938479235, 96.390, 2169.0, 46.5725
37.964739800, 96.390, 2198.0, 46.8828
37.991000365, 96.390, 2167.0, 46.5510
38.017260931, 96.390, 2034.0, 45.0999
38.043521496, 96.390, 2009.0, 44.8219
38.069782061, 96.390, 1810.0, 42.5441
38.096042627, 96.390, 1956.0, 44.2267
38.122303192, 96.390, 1995.0, 44.6654
38.148563758, 96.390, 1999.0, 44.7102
38.174824323, 96.390, 2070.0, 45.4973
38.201084888, 96.390, 2074.0, 45.5412
38.227345454, 96.390, 1994.0, 44.6542
38.253606019, 96.390, 2021.0, 44.9555
38.279866584, 96.390, 2018.0, 44.9222
38.306127150, 96.390, 1964.0, 44.3170
38.332387715, 96.390, 1791.0, 42.3202
38.358648280, 96.390, 1761.0, 41.9643
38.384908846, 96.390, 1665.0, 40.8044
38.411169411, 96.390, 1742.0, 41.7373
38.437429976, 96.390, 1723.0, 41.5090
38.463690542, 96.390, 1784.0, 42.2374
38.489951107, 96.390, 1729.0, 41.5812
38.516211673, 96.390, 1760.0, 41.9524
38.542472238, 96.390, 1738.0, 41.6893
38.568732803, 96.390, 1800.0, 42.4264
38.594993369, 96.390, 1775.0, 42.1307
38.621253934, 96.390, 1819.0, 42.6497
38.647514499, 96.390, 1775.0, 42.1307
38.673775065, 96.390, 1833.0, 42.8135
38.700035630, 96.390, 1798.0, 42.4028
38.726296195, 96.390, 1912.0, 43.7264
38.752556761, 96.390, 1949.0, 44.1475
38.778817326, 96.390, 1954.0, 44.2041
38.805077891, 96.390, 2002.0, 44.7437
38.831338457, 96.390, 1760.0, 41.9524
38.857599022, 96.390, 1723.0, 41.5090
38.883859587, 96.390, 1731.0, 41.6053
38.910120153, 96.390, 1644.0, 40.5463
38.936380718, 96.390, 1601.0, 40.0125
38.962641284, 96.390, 1582.0, 39.7744
38.988901849, 96.390, 1511.0, 38.8716
39.015162414, 96.390, 1541.0, 39.2556
39.041422980, 96.390, 1573.0, 39.6611
39.067683545, 96.390, 1556.0, 39.4462
39.093944110, 96.390, 1545.0, 39.3065
39.120204676, 96.390, 1560.0, 39.4968
39.146465241, 96.390, 1608.0, 40.0999
39.172725806, 96.390, 1660.0, 40.7431
39.198986372, 96.390, 1817.0, 42.6263
39.225246937, 96.390, 1764.0, 42.0000
39.251507502, 96.390, 1793.0, 42.3438
39.277768068, 96.390, 1842.0, 42.9185
39.304028633, 96.390, 1783.0, 42.2256
39.330289199, 96.390, 1830.0, 42.7785
39.356549764, 96.390, 1840.0, 42.8952
39.382810329, 96.390, 2007.0, 44.7996
39.409070895, 96.390, 2079.0, 45.5961
39.435331460, 96.390, 2140.0, 46.2601
39.461592025, 96.390, 2042.0, 45.1885
39.487852591, 96.390, 1916.0, 43.7721
39.514113156, 96.390, 1965.0, 44.3283
39.540373721, 96.390, 1857.0, 43.0929
39.566634287, 96.390, 1826.0, 42.7317
39.592894852, 96.390, 1720.0, 41.4729
39.619155417, 96.390, 1700.0, 41.2311
39.645415983, 96.390, 1729.0, 41.5812
39.671676548, 96.390, 1662.0, 40.7676
39.697937113, 96.390, 1626.0, 40.3237
39.724197679, 96.390, 1687.0, 41.0731
39.750458244, 96.390, 1617.0, 40.2119
39.776718810, 96.390, 1722.0, 41.4970
39.802979375, 96.390, 1860.0, 43.1277
39.829239940, 96.390, 1837.0, 42.8602
39.855500506, 96.390, 1722.0, 41.4970
39.881761071, 96.390, 1746.0, 41.7852
39.908021636, 96.390, 1698.0, 41.2068
39.934282202, 96.390, 1742.0, 41.7373
39.960542767, 96.390, 1726.0, 41.5452
39.986803332, 96.390, 1747.0, 41.7971
40.013063898, 96.390, 1705.0, 41.2916
40.039324463, 96.390, 1751.0, 41.8450
40.065585028, 96.390, 1724.0, 41.5211
40.091845594, 96.390, 1712.0, 41.3763
40.118106159, 96.390, 1803.0, 42.4617
40.144366725, 96.390, 1713.0, 41.3884
40.170627290, 96.390, 1634.0, 40.4228
40.196887855, 96.390, 1524.0, 39.0384
40.223148421, 96.390, 1557.0, 39.4588
40.249408986, 96.390, 1604.0, 40.0500
40.275669551, 96.390, 1533.0, 39.1535
40.301930117, 96.390, 1396.0, 37.3631
40.328190682, 96.390, 1475.0, 38.4057
40.354451247, 96.390, 1518.0, 38.9615
40.380711813, 96.390, 1479.0, 38.4578
40.406972378, 96.390, 1508.0, 38.8330
40.433232943, 96.390, 1496.0, 38.6782
40.459493509, 96.390, 1520.0, 38.9872
40.485754074, 96.390, 1587.0, 39.8372
40.512014639, 96.390, 1574.0, 39.6737
40.538275205, 96.390, 1651.0, 40.6325
40.564535770, 96.390, 1700.0, 41.2311
40.590796336, 96.390, 1827.0, 42.7434
40.617056901, 96.390, 1811.0, 42.5558
40.643317466, 96.390, 1750.0, 41.8330
40.669578032, 96.390, 1692.0, 41.1339
40.695838597, 96.390, 1708.0, 41.3280
40.722099162, 96.390, 1667.0, 40.8289
40.748359728, 96.390, 1651.0, 40.6325
40.774620293, 96.390, 1490.0, 38.6005
40.800880858, 96.390, 1470.0, 38.3406
40.827141424, 96.390, 1474.0, 38.3927
40.853401989, 96.390, 1351.0, 36.7560
40.879662554, 96.390, 1327.0, 36.4280
40.905923120, 96.390, 1380.0, 37.1484
40.932183685, 96.390, 1413.0, 37.5899
40.958444251, 96.390, 1371.0, 37.0270
40.984704816, 96.390, 1384.0, 37.2022
41.010965381, 96.390, 1348.0, 36.7151
41.037225947, 96.390, 1383.0, 37.1887
41.063486512, 96.390, 1382.0, 37.1753
41.089747077, 96.390, 1346.0, 36.6879
41.116007643, 96.390, 1324.0, 36.3868
41.142268208, 96.390, 1328.0, 36.4417
41.168528773, 96.390, 1354.0, 36.7967
41.194789339, 96.390, 1291.0, 35.9305
41.221049904, 96.390, 1375.0, 37.0810
41.247310469, 96.390, 1416.0, 37.6298
41.273571035, 96.390, 1430.0, 37.8153
41.299831600, 96.390, 1585.0, 39.8121
41.326092165, 96.390, 1733.0, 41.6293
41.352352731, 96.390, 1847.0, 42.9767
41.378613296, 96.390, 2003.0, 44.7549
41.404873862, 96.390, 1891.0, 43.4856
41.431134427, 96.390, 1722.0, 41.4970
41.457394992, 96.390, 1666.0, 40.8167
41.483655558, 96.390, 1661.0, 40.7554
41.509916123, 96.390, 1664.0, 40.7922
41.536176688, 96.390, 1533.0, 39.1535
41.562437254, 96.390, 1507.0, 38.8201
41.588697819, 96.390, 1513.0, 38.8973
41.614958384, 96.390, 1372.0, 37.0405
41.641218950, 96.390, 1425.0, 37.7492
41.667479515, 96.390, 1413.0, 37.5899
41.693740080, 96.390, 1399.0, 37.4032
41.720000646, 96.390, 1408.0, 37.5233
41.746261211, 96.390, 1460.0, 38.2099
41.772521776, 96.390, 1520.0, 38.9872
41.798782342, 96.390, 1420.0, 37.6829
41.825042907, 96.390, 1500.0, 38.7298
41.851303473, 96.390, 1385.0, 37.2156
41.877564038, 96.390, 1435.0, 37.8814
41.903824603, 96.390, 1343.0, 36.6470
41.930085169, 96.390, 1407.0, 37.5100
41.956345734, 96.390, 1349.0, 36.7287
41.982606299, 96.390, 1378.0, 37.1214
42.008866865, 96.390, 1380.0, 37.1484
42.035127430, 96.390, 1613.0, 40.1622
42.061387995, 96.390, 1600.0, 40.0000
42.087648561, 96.390, 1877.0, 43.3244
42.113909126, 96.390, 2199.0, 46.8935
42.140169691, 96.390, 2356.0, 48.5386
42.166430257, 96.390, 2358.0, 48.5592
42.192690822, 96.390, 2049.0, 45.2659
42.218951388, 96.390, 1985.0, 44.5533
42.245211953, 96.390, 1826.0, 42.7317
42.271472518, 96.390, 1915.0, 43.7607
42.297733084, 96.390, 1744.0, 41.7612
42.323993649, 96.390, 1647.0, 40.5832
42.350254214, 96.390, 1507.0, 38.8201
42.376514780, 96.390, 1402.0, 37.4433
42.402775345, 96.390, 1358.0, 36.8511
42.429035910, 96.390, 1382.0, 37.1753
42.455296476, 96.390, 1332.0, 36.4966
42.481557041, 96.390, 1379.0, 37.1349
42.507817606, 96.390, 1328.0, 36.4417
42.534078172, 96.390, 1402.0, 37.4433
42.560338737, 96.390, 1434.0, 37.8682
42.586599302, 96.390, 1382.0, 37.1753
42.612859868, 96.390, 1431.0, 37.8286
42.639120433, 96.390, 1419.0, 37.6696
42.665380999, 96.390, 1426.0, 37.7624
42.691641564, 96.390, 1509.0, 38.8458
42.717902129, 96.390, 1519.0, 38.9744
42.744162695, 96.390, 1431.0, 37.8286
42.770423260, 96.390, 1436.0, 37.8946
42.796683825, 96.390, 1404.0, 37.4700
42.822944391, 96.390, 1388.0, 37.2559
42.849204956, 96.390, 1334.0, 36.5240
42.875465521, 96.390, 1425.0, 37.7492
42.901726087, 96.390, 1393.0, 37.3229
42.927986652, 96.390, 1257.0, 35.4542
42.954247217, 96.390, 1278.0, 35.7491
42.980507783, 96.390, 1297.0, 36.0139
43.006768348, 96.390, 1301.0, 36.0694
43.033028914, 96.390, 1238.0, 35.1852
43.059289479, 96.390, 1365.0, 36.9459
43.085550044, 96.390, 1290.0, 35.9166
43.111810610, 96.390, 1443.0, 37.9868
43.138071175, 96.390, 1392.0, 37.3095
43.164331740, 96.390, 1345.0, 36.6742
43.190592306, 96.390, 1312.0, 36.2215
43.216852871, 96.390, 1308.0, 36.1663
43.243113436, 96.390, 1254.0, 35.4119
43.269374002, 96.390, 1291.0, 35.9305
43.295634567, 96.390, 1259.0, 35.4824
43.321895132, 96.390, 1253.0, 35.3977
43.348155698, 96.390, 1242.0, 35.2420
43.374416263, 96.390, 1209.0, 34.7707
43.400676828, 96.390, 1145.0, 33.8378
43.426937394, 96.390, 1173.0, 34.2491
43.453197959, 96.390, 1226.0, 35.0143
43.479458525, 96.390, 1236.0, 35.1568
43.505719090, 96.390, 1258.0, 35.4683
43.531979655, 96.390, 1263.0, 35.5387
43.558240221, 96.390, 1219.0, 34.9142
43.584500786, 96.390, 1271.0, 35.6511
43.610761351, 96.390, 1282.0, 35.8050
43.637021917, 96.390, 1321.0, 36.3456
43.663282482, 96.390, 1351.0, 36.7560
43.689543047, 96.390, 1498.0, 38.7040
43.715803613, 96.390, 1610.0, 40.1248
43.742064178, 96.390, 1737.0, 41.6773
43.768324743, 96.390, 1749.0, 41.8210
43.794585309, 96.390, 1639.0, 40.4846
43.820845874, 96.390, 1578.0, 39.7240
43.847106440, 96.390, 1601.0, 40.0125
43.873367005, 96.390, 1624.0, 40.2989
43.899627570, 96.390, 1539.0, 39.2301
43.925888136, 96.390, 1439.0, 37.9342
43.952148701, 96.390, 1372.0, 37.0405
43.978409266, 96.390, 1355.0, 36.8103
44.004669832, 96.390, 1300.0, 36.0555
44.030930397, 96.390, 1309.0, 36.1801
44.057190962, 96.390, 1340.0, 36.6060
44.083451528, 96.390, 1268.0, 35.6090
44.109712093, 96.390, 1370.0, 37.0135
44.135972658, 96.390, 1343.0, 36.6470
44.162233224, 96.390, 1307.0, 36.1525
44.188493789, 96.390, 1372.0, 37.0405
44.214754354, 96.390, 1374.0, 37.0675
44.241014920, 96.390, 1429.0, 37.8021
44.267275485, 96.390, 1519.0, 38.9744
44.293536051, 96.390, 1649.0, 40.6079
44.319796616, 96.390, 1613.0, 40.1622
44.346057181, 96.390, 1651.0, 40.6325
44.372317747, 96.390, 1634.0, 40.4228
44.398578312, 96.390, 1745.0, 41.7732
44.424838877, 96.390, 1645.0, 40.5586
44.451099443, 96.390, 1537.0, 39.2046
44.477360008, 96.390, 1604.0, 40.0500
44.503620573, 96.390, 1525.0, 39.0512
44.529881139, 96.390, 1457.0, 38.1707
44.556141704, 96.390, 1493.0, 38.6394
44.582402269, 96.390, 1469.0, 38.3275
44.608662835, 96.390, 1428.0, 37.7889
44.634923400, 96.390, 1453.0, 38.1182
44.661183966, 96.390, 1405.0, 37.4833
44.687444531, 96.390, 1428.0, 37.7889
44.713705096, 96.390, 1431.0, 37.8286
44.739965662, 96.390, 1486.0, 38.5487
44.766226227, 96.390, 1564.0, 39.5474
44.792486792, 96.390, 1594.0, 39.9249
44.818747358, 96.390, 1576.0, 39.6989
44.845007923, 96.390, 1585.0, 39.8121
44.871268488, 96.390, 1615.0, 40.1871
44.897529054, 96.390, 1467.0, 38.3014
44.923789619, 96.390, 1482.0, 38.4968
44.950050184, 96.390, 1484.0, 38.5227
44.976310750, 96.390, 1438.0, 37.9210
45.002571315, 96.390, 1407.0, 37.5100
45.028831880, 96.390, 1493.0, 38.6394
45.055092446, 96.390, 1545.0, 39.3065
45.081353011, 96.390, 1604.0, 40.0500
45.107613577, 96.390, 1773.0, 42.1070
45.133874142, 96.390, 1683.0, 41.0244
45.160134707, 96.390, 1730.0, 41.5933
45.186395273, 96.390, 1719.0, 41.4608
45.212655838, 96.390, 1632.0, 40.3980
45.238916403, 96.390, 1688.0, 41.0853
45.265176969, 96.390, 1593.0, 39.9124
45.291437534, 96.390, 1660.0, 40.7431
45.317698099, 96.390, 1716.0, 41.4246
45.343958665, 96.390, 1686.0, 41.0609
45.370219230, 96.390, 1693.0, 41.1461
45.396479795, 96.390, 1612.0, 40.1497
45.422740361, 96.390, 1670.0, 40.8656
45.449000926, 96.390, 1682.0, 41.0122
45.475261492, 96.390, 1669.0, 40.8534
45.501522057, 96.390, 1553.0, 39.4081
45.527782622, 96.390, 1536.0, 39.1918
45.554043188, 96.390, 1551.0, 39.3827
45.580303753, 96.390, 1539.0, 39.2301
45.606564318, 96.390, 1520.0, 38.9872
45.632824884, 96.390, 1479.0, 38.4578
45.659085449, 96.390, 1457.0, 38.1707
45.685346014, 96.390, 1445.0, 38.0132
45.711606580, 96.390, 1380.0, 37.1484
45.737867145, 96.390, 1447.0, 38.0395
45.764127710, 96.390, 1473.0, 38.3797
45.790388276, 96.390, 1363.0, 36.9188
45.816648841, 96.390, 1474.0, 38.3927
45.842909406, 96.390, 1383.0, 37.1887
45.869169972, 96.390, 1350.0, 36.7423
45.895430537, 96.390, 1360.0, 36.8782
45.921691103, 96.390, 1412.0, 37.5766
45.947951668, 96.390, 1355.0, 36.8103
45.974212233, 96.390, 1373.0, 37.0540
46.000472799, 96.390, 1415.0, 37.6165
46.026733364, 96.390, 1481.0, 38.4838
46.052993929, 96.390, 1433.0, 37.8550
46.079254495, 96.390, 1479.0, 38.4578
46.105515060, 96.390, 1609.0, 40.1123
46.131775625, 96.390, 1760.0, 41.9524
46.158036191, 96.390, 1819.0, 42.6497
46.184296756, 96.390, 1889.0, 43.4626
46.210557321, 96.390, 1967.0, 44.3509
46.236817887, 96.390, 2182.0, 46.7119
46.263078452, 96.390, 2269.0, 47.6340
46.289339017, 96.390, 2173.0, 46.6154
46.315599583, 96.390, 2002.0, 44.7437
46.341860148, 96.390, 1921.0, 43.8292
46.368120714, 96.390, 1847.0, 42.9767
46.394381279, 96.390, 1843.0, 42.9302
46.420641844, 96.390, 1801.0, 42.4382
46.446902410, 96.390, 1719.0, 41.4608
46.473162975, 96.390, 1619.0, 40.2368
46.499423540, 96.390, 1556.0, 39.4462
46.525684106, 96.390, 1429.0, 37.8021
46.551944671, 96.390, 1507.0, 38.8201
46.578205236, 96.390, 1559.0, 39.4842
46.604465802, 96.390, 1570.0, 39.6232
46.630726367, 96.390, 1544.0, 39.2938
46.656986932, 96.390, 1564.0, 39.5474
46.683247498, 96.390, 1641.0, 40.5093
46.709508063, 96.390, 1741.0, 41.7253
46.735768629, 96.390, 1763.0, 41.9881
46.762029194, 96.390, 1667.0, 40.8289
46.788289759, 96.390, 1536.0, 39.1918
46.814550325, 96.390, 1515.0, 38.9230
46.840810890, 96.390, 1586.0, 39.8246
46.867071455, 96.390, 1473.0, 38.3797
46.893332021, 96.390, 1432.0, 37.8418
46.919592586, 96.390, 1490.0, 38.6005
46.945853151, 96.390, 1441.0, 37.9605
46.972113717, 96.390, 1564.0, 39.5474
46.998374282, 96.390, 1517.0, 38.9487
47.024634847, 96.390, 1437.0, 37.9078
47.050895413, 96.390, 1486.0, 38.5487
47.077155978, 96.390, 1470.0, 38.3406
47.103416543, 96.390, 1443.0, 37.9868
47.129677109, 96.390, 1507.0, 38.8201
47.155937674, 96.390, 1332.0, 36.4966
47.182198240, 96.390, 1349.0, 36.7287
47.208458805, 96.390, 1312.0, 36.2215
47.234719370, 96.390, 1345.0, 36.6742
47.260979936, 96.390, 1328.0, 36.4417
47.287240501, 96.390, 1386.0, 37.2290
47.313501066, 96.390, 1398.0, 37.3898
47.339761632, 96.390, 1412.0, 37.5766
47.366022197, 96.390, 1364.0, 36.9324
47.392282762, 96.390, 1422.0, 37.7094
47.418543328, 96.390, 1383.0, 37.1887
47.444803893, 96.390, 1402.0, 37.4433
47.471064458, 96.390, 1447.0, 38.0395
47.497325024, 96.390, 1473.0, 38.3797
47.523585589, 96.390, 1416.0, 37.6298
47.549846155, 96.390, 1435.0, 37.8814
47.576106720, 96.390, 1378.0, 37.1214
47.602367285, 96.390, 1436.0, 37.8946
47.628627851, 96.390, 1431.0, 37.8286
47.654888416, 96.390, 1416.0, 37.6298
47.681148981, 96.390, 1479.0, 38.4578
47.707409547, 96.390, 1498.0, 38.7040
47.733670112, 96.390, 1475.0, 38.4057
47.759930677, 96.390, 1493.0, 38.6394
47.786191243, 96.390, 1559.0, 39.4842
47.812451808, 96.390, 1546.0, 39.3192
47.838712373, 96.390, 1479.0, 38.4578
47.864972939, 96.390, 1416.0, 37.6298
47.891233504, 96.390, 1388.0, 37.2559
47.917494069, 96.390, 1457.0, 38.1707
47.943754635, 96.390, 1444.0, 38.0000
47.970015200, 96.390, 1389.0, 37.2693
47.996275766, 96.390, 1401.0, 37.4299
48.022536331, 96.390, 1411.0, 37.5633
48.048796896, 96.390, 1407.0, 37.5100
48.075057462, 96.390, 1484.0, 38.5227
48.101318027, 96.390, 1557.0, 39.4588
48.127578592, 96.390, 1542.0, 39.2683
48.153839158, 96.390, 1522.0, 39.0128
48.180099723, 96.390, 1496.0, 38.6782
48.206360288, 96.390, 1518.0, 38.9615
48.232620854, 96.390, 1413.0, 37.5899
48.258881419, 96.390, 1438.0, 37.9210
48.285141984, 96.390, 1439.0, 37.9342
48.311402550, 96.390, 1449.0, 38.0657
48.337663115, 96.390, 1455.0, 38.1445
48.363923681, 96.390, 1486.0, 38.5487
48.390184246, 96.390, 1616.0, 40.1995
48.416444811, 96.390, 1683.0, 41.0244
48.442705377, 96.390, 1696.0, 41.1825
48.468965942, 96.390, 1767.0, 42.0357
48.495226507, 96.390, 1789.0, 42.2966
48.521487073, 96.390, 1657.0, 40.7063
48.547747638, 96.390, 1669.0, 40.8534
48.574008203, 96.390, 1540.0, 39.2428
48.600268769, 96.390, 1409.0, 37.5366
48.626529334, 96.390, 1410.0, 37.5500
48.652789899, 96.390, 1420.0, 37.6829
48.679050465, 96.390, 1343.0, 36.6470
48.705311030, 96.390, 1226.0, 35.0143
48.731571595, 96.390, 1163.0, 34.1028
48.757832161, 96.390, 1211.0, 34.7994
48.784092726, 96.390, 1143.0, 33.8083
48.810353292, 96.390, 1214.0, 34.8425
48.836613857, 96.390, 1168.0, 34.1760
48.862874422, 96.390, 1162.0, 34.0881
48.889134988, 96.390, 1195.0, 34.5688
48.915395553, 96.390, 1232.0, 35.0999
48.941656118, 96.390, 1238.0, 35.1852
48.967916684, 96.390, 1233.0, 35.1141
48.994177249, 96.390, 1226.0, 35.0143
49.020437814, 96.390, 1228.0, 35.0428
49.046698380, 96.390, 1292.0, 35.9444
49.072958945, 96.390, 1307.0, 36.1525
49.099219510, 96.390, 1332.0, 36.4966
49.125480076, 96.390, 1281.0, 35.7911
49.151740641, 96.390, 1378.0, 37.1214
49.178001207, 96.390, 1326.0, 36.4143
49.204261772, 96.390, 1321.0, 36.3456
49.230522337, 96.390, 1339.0, 36.5923
49.256782903, 96.390, 1201.0, 34.6554
49.283043468, 96.390, 1255.0, 35.4260
49.309304033, 96.390, 1216.0, 34.8712
49.335564599, 96.390, 1209.0, 34.7707
49.361825164, 96.390, 1224.0, 34.9857
49.388085729, 96.390, 1205.0, 34.7131
49.414346295, 96.390, 1272.0, 35.6651
49.440606860, 96.390, 1177.0, 34.3074
49.466867425, 96.390, 1219.0, 34.9142
49.493127991, 96.390, 1220.0, 34.9285
49.519388556, 96.390, 1285.0, 35.8469
49.545649121, 96.390, 1205.0, 34.7131
49.571909687, 96.390, 1266.0, 35.5809
49.598170252, 96.390, 1256.0, 35.4401
49.624430818, 96.390, 1258.0, 35.4683
49.650691383, 96.390, 1343.0, 36.6470
49.676951948, 96.390, 1329.0, 36.4555
49.703212514, 96.390, 1272.0, 35.6651
49.729473079, 96.390, 1315.0, 36.2629
49.755733644, 96.390, 1354.0, 36.7967
49.781994210, 96.390, 1335.0, 36.5377
49.808254775, 96.390, 1344.0, 36.6606
49.834515340, 96.390, 1258.0, 35.4683
49.860775906, 96.390, 1250.0, 35.3553
49.887036471, 96.390, 1201.0, 34.6554
49.913297036, 96.390, 1203.0, 34.6843
49.939557602, 96.390, 1102.0, 33.1964
49.965818167, 96.390, 1099.0, 33.1512
49.992078732, 96.390, 1139.0, 33.7491
50.018339298, 96.390, 1127.0, 33.5708
50.044599863, 96.390, 1139.0, 33.7491
50.070860429, 96.390, 1117.0, 33.4215
50.097120994, 96.390, 1274.0, 35.6931
50.123381559, 96.390, 1142.0, 33.7935
50.149642125, 96.390, 1096.0, 33.1059
50.175902690, 96.390, 1220.0, 34.9285
50.202163255, 96.390, 1299.0, 36.0416
50.228423821, 96.390, 1347.0, 36.7015
50.254684386, 96.390, 1432.0, 37.8418
50.280944951, 96.390, 1345.0, 36.6742
50.307205517, 96.390, 1350.0, 36.7423
50.333466082, 96.390, 1381.0, 37.1618
50.359726647, 96.390, 1425.0, 37.7492
50.385987213, 96.390, 1375.0, 37.0810
50.412247778, 96.390, 1423.0, 37.7227
50.438508344, 96.390, 1425.0, 37.7492
50.464768909, 96.390, 1491.0, 38.6135
50.491029474, 96.390, 1464.0, 38.2623
50.517290040, 96.390, 1397.0, 37.3765
50.543550605, 96.390, 1377.0, 37.1080
50.569811170, 96.390, 1304.0, 36.1109
50.596071736, 96.390, 1368.0, 36.9865
50.622332301, 96.390, 1249.0, 35.3412
50.648592866, 96.390, 1276.0, 35.7211
50.674853432, 96.390, 1234.0, 35.1283
50.701113997, 96.390, 1285.0, 35.8469
50.727374562, 96.390, 1210.0, 34.7851
50.753635128, 96.390, 1176.0, 34.2929
50.779895693, 96.390, 1213.0, 34.8281
50.806156258, 96.390, 1221.0, 34.9428
50.832416824, 96.390, 1163.0, 34.1028
50.858677389, 96.390, 1111.0, 33.3317
50.884937955, 96.390, 1158.0, 34.0294
50.911198520, 96.390, 1195.0, 34.5688
50.937459085, 96.390, 1228.0, 35.0428
50.963719651, 96.390, 1306.0, 36.1386
50.989980216, 96.390, 1292.0, 35.9444
51.016240781, 96.390, 1322.0, 36.3593
51.042501347, 96.390, 1379.0, 37.1349
51.068761912, 96.390, 1395.0, 37.3497
51.095022477, 96.390, 1522.0, 39.0128
51.121283043, 96.390, 1324.0, 36.3868
51.147543608, 96.390, 1319.0, 36.3180
51.173804173, 96.390, 1255.0, 35.4260
51.200064739, 96.390, 1320.0, 36.3318
51.226325304, 96.390, 1335.0, 36.5377
51.252585870, 96.390, 1255.0, 35.4260
51.278846435, 96.390, 1206.0, 34.7275
51.305107000, 96.390, 1214.0, 34.8425
51.331367566, 96.390, 1165.0, 34.1321
51.357628131, 96.390, 1097.0, 33.1210
51.383888696, 96.390, 1085.0, 32.9393
51.410149262, 96.390, 1072.0, 32.7414
51.436409827, 96.390, 1114.0, 33.3766
51.462670392, 96.390, 1087.0, 32.9697
51.488930958, 96.390, 1064.0, 32.6190
51.515191523, 96.390, 1016.0, 31.8748
51.541452088, 96.390, 963.0, 31.0322
51.567712654, 96.390, 1043.0, 32.2955
51.593973219, 96.390, 994.0, 31.5278
51.620233784, 96.390, 1049.0, 32.3883
51.646494350, 96.390, 1074.0, 32.7719
51.672754915, 96.390, 1010.0, 31.7805
51.699015481, 96.390, 1052.0, 32.4345
51.725276046, 96.390, 1088.0, 32.9848
51.751536611, 96.390, 1066.0, 32.6497
51.777797177, 96.390, 1125.0, 33.5410
51.804057742, 96.390, 1121.0, 33.4813
51.830318307, 96.390, 1170.0, 34.2053
51.856578873, 96.390, 1157.0, 34.0147
51.882839438, 96.390, 1179.0, 34.3366
51.909100003, 96.390, 1211.0, 34.7994
51.935360569, 96.390, 1135.0, 33.6898
51.961621134, 96.390, 1106.0, 33.2566
51.987881699, 96.390, 1137.0, 33.7194
52.014142265, 96.390, 1156.0, 34.0000
52.040402830, 96.390, 1170.0, 34.2053
52.066663396, 96.390, 1179.0, 34.3366
52.092923961, 96.390, 1044.0, 32.3110
52.119184526, 96.390, 1201.0, 34.6554
52.145445092, 96.390, 1176.0, 34.2929
52.171705657, 96.390, 1275.0, 35.7071
52.197966222, 96.390, 1255.0, 35.4260
52.224226788, 96.390, 1304.0, 36.1109
52.250487353, 96.390, 1267.0, 35.5949
52.276747918, 96.390, 1289.0, 35.9026
52.303008484, 96.390, 1216.0, 34.8712
52.329269049, 96.390, 1222.0, 34.9571
52.355529614, 96.390, 1129.0, 33.6006
52.381790180, 96.390, 1198.0, 34.6121
52.408050745, 96.390, 1116.0, 33.4066
52.434311310, 96.390, 1144.0, 33.8231
52.460571876, 96.390, 1075.0, 32.7872
52.486832441, 96.390, 1091.0, 33.0303
52.513093007, 96.390, 1090.0, 33.0151
52.539353572, 96.390, 1128.0, 33.5857
52.565614137, 96.390, 1042.0, 32.2800
52.591874703, 96.390, 1067.0, 32.6650
52.618135268, 96.390, 1111.0, 33.3317
52.644395833, 96.390, 1097.0, 33.1210
52.670656399, 96.390, 1091.0, 33.0303
52.696916964, 96.390, 1157.0, 34.0147
52.723177529, 96.390, 1141.0, 33.7787
52.749438095, 96.390, 1143.0, 33.8083
52.775698660, 96.390, 1128.0, 33.5857
52.801959225, 96.390, 1141.0, 33.7787
52.828219791, 96.390, 1142.0, 33.7935
52.854480356, 96.390, 1178.0, 34.3220
52.880740922, 96.390, 1267.0, 35.5949
52.907001487, 96.390, 1152.0, 33.9411
52.933262052, 96.390, 1176.0, 34.2929
52.959522618, 96.390, 1178.0, 34.3220
52.985783183, 96.390, 1179.0, 34.3366
53.012043748, 96.390, 1103.0, 33.2114
53.038304314, 96.390, 1136.0, 33.7046
53.064564879, 96.390, 1220.0, 34.9285
53.090825444, 96.390, 1177.0, 34.3074
53.117086010, 96.390, 1215.0, 34.8569
53.143346575, 96.390, 1269.0, 35.6230
53.169607140, 96.390, 1211.0, 34.7994
53.195867706, 96.390, 1216.0, 34.8712
53.222128271, 96.390, 1186.0, 34.4384
53.248388836, 96.390, 1121.0, 33.4813
53.274649402, 96.390, 1210.0, 34.7851
53.300909967, 96.390, 1154.0, 33.9706
53.327170533, 96.390, 1134.0, 33.6749
53.353431098, 96.390, 1255.0, 35.4260
53.379691663, 96.390, 1198.0, 34.6121
53.405952229, 96.390, 1140.0, 33.7639
53.432212794, 96.390, 1122.0, 33.4963
53.458473359, 96.390, 1124.0, 33.5261
53.484733925, 96.390, 1024.0, 32.0000
53.510994490, 96.390, 1054.0, 32.4654
53.537255055, 96.390, 1063.0, 32.6037
53.563515621, 96.390, 1046.0, 32.3419
53.589776186, 96.390, 1028.0, 32.0624
53.616036751, 96.390, 996.0, 31.5595
53.642297317, 96.390, 1009.0, 31.7648
53.668557882, 96.390, 934.0, 30.5614
53.694818448, 96.390, 934.0, 30.5614
53.721079013, 96.390, 958.0, 30.9516
53.747339578, 96.390, 988.0, 31.4325
53.773600144, 96.390, 938.0, 30.6268
53.799860709, 96.390, 992.0, 31.4960
53.826121274, 96.390, 1131.0, 33.6303
53.852381840, 96.390, 1177.0, 34.3074
53.878642405, 96.390, 1275.0, 35.7071
53.904902970, 96.390, 1355.0, 36.8103
53.931163536, 96.390, 1262.0, 35.5246
53.957424101, 96.390, 1289.0, 35.9026
53.983684666, 96.390, 1291.0, 35.9305
54.009945232, 96.390, 1352.0, 36.7696
54.036205797, 96.390, 1346.0, 36.6879
54.062466362, 96.390, 1321.0, 36.3456
54.088726928, 96.390, 1307.0, 36.1525
54.114987493, 96.390, 1368.0, 36.9865
54.141248059, 96.390, 1369.0, 37.0000
54.167508624, 96.390, 1365.0, 36.9459
54.193769189, 96.390, 1321.0, 36.3456
54.220029755, 96.390, 1305.0, 36.1248
54.246290320, 96.390, 1372.0, 37.0405
54.272550885, 96.390, 1320.0, 36.3318
54.298811451, 96.390, 1288.0, 35.8887
54.325072016, 96.390, 1294.0, 35.9722
54.351332581, 96.390, 1231.0, 35.0856
54.377593147, 96.390, 1244.0, 35.2704
54.403853712, 96.390, 1180.0, 34.3511
54.430114277, 96.390, 1199.0, 34.6266
54.456374843, 96.390, 1237.0, 35.1710
54.482635408, 96.390, 1107.0, 33.2716
54.508895973, 96.390, 1068.0, 32.6803
54.535156539, 96.390, 1072.0, 32.7414
54.561417104, 96.390, 1087.0, 32.9697
54.587677670, 96.390, 1097.0, 33.1210
54.613938235, 96.390, 1070.0, 32.7109
54.640198800, 96.390, 1019.0, 31.9218
54.666459366, 96.390, 986.0, 31.4006
54.692719931, 96.390, 982.0, 31.3369
54.718980496, 96.390, 941.0, 30.6757
54.745241062, 96.390, 962.0, 31.0161
54.771501627, 96.390, 909.0, 30.1496
54.797762192, 96.390, 958.0, 30.9516
54.824022758, 96.390, 875.0, 29.5804
54.850283323, 96.390, 975.0, 31.2250
54.876543888, 96.390, 964.0, 31.0483
54.902804454, 96.390, 957.0, 30.9354
54.929065019, 96.390, 990.0, 31.4643
54.955325585, 96.390, 963.0, 31.0322
54.981586150, 96.390, 928.0, 30.4631
55.007846715, 96.390, 985.0, 31.3847
55.034107281, 96.390, 928.0, 30.4631
55.060367846, 96.390, 914.0, 30.2324
55.086628411, 96.390, 941.0, 30.6757
55.112888977, 96.390, 930.0, 30.4959
55.139149542, 96.390, 892.0, 29.8664
55.165410107, 96.390, 912.0, 30.1993
55.191670673, 96.390, 940.0, 30.6594
55.217931238, 96.390, 918.0, 30.2985
55.244191803, 96.390, 876.0, 29.5973
55.270452369, 96.390, 932.0, 30.5287
55.296712934, 96.390, 937.0, 30.6105
55.322973499, 96.390, 957.0, 30.9354
55.349234065, 96.390, 1007.0, 31.7333
55.375494630, 96.390, 1040.0, 32.2490
55.401755196, 96.390, 969.0, 31.1288
55.428015761, 96.390, 963.0, 31.0322
55.454276326, 96.390, 993.0, 31.5119
55.480536892, 96.390, 997.0, 31.5753
55.506797457, 96.390, 957.0, 30.9354
55.533058022, 96.390, 1009.0, 31.7648
55.559318588, 96.390, 951.0, 30.8383
55.585579153, 96.390, 1035.0, 32.1714
55.611839718, 96.390, 987.0, 31.4166
55.638100284, 96.390, 964.0, 31.0483
55.664360849, 96.390, 920.0, 30.3315
55.690621414, 96.390, 926.0, 30.4302
55.716881980, 96.390, 887.0, 29.7825
55.743142545, 96.390, 914.0, 30.2324
55.769403111, 96.390, 919.0, 30.3150
55.795663676, 96.390, 919.0, 30.3150
55.821924241, 96.390, 957.0, 30.9354
55.848184807, 96.390, 964.0, 31.0483
55.874445372, 96.390, 968.0, 31.1127
55.900705937, 96.390, 1004.0, 31.6860
55.926966503, 96.390, 934.0, 30.5614
55.953227068, 96.390, 995.0, 31.5436
55.979487633, 96.390, 994.0, 31.5278
56.005748199, 96.390, 980.0, 31.3050
56.032008764, 96.390, 1019.0, 31.9218
56.058269329, 96.390, 1119.0, 33.4515
56.084529895, 96.390, 1121.0, 33.4813
56.110790460, 96.390, 1127.0, 33.5708
56.137051025, 96.390, 1063.0, 32.6037
56.163311591, 96.390, 1096.0, 33.1059
56.189572156, 96.390, 1086.0, 32.9545
56.215832722, 96.390, 1117.0, 33.4215
56.242093287, 96.390, 1027.0, 32.0468
56.268353852, 96.390, 1001.0, 31.6386
56.294614418, 96.390, 944.0, 30.7246
56.320874983, 96.390, 1017.0, 31.8904
56.347135548, 96.390, 1009.0, 31.7648
56.373396114, 96.390, 919.0, 30.3150
56.399656679, 96.390, 980.0, 31.3050
56.425917244, 96.390, 957.0, 30.9354
56.452177810, 96.390, 991.0, 31.4802
56.478438375, 96.390, 1024.0, 32.0000
56.504698940, 96.390, 982.0, 31.3369
56.530959506, 96.390, 985.0, 31.3847
56.557220071, 96.390, 958.0, 30.9516
56.583480637, 96.390, 899.0, 29.9833
56.609741202, 96.390, 924.0, 30.3974
56.636001767, 96.390, 953.0, 30.8707
56.662262333, 96.390, 865.0, 29.4109
56.688522898, 96.390, 923.0, 30.3809
56.714783463, 96.390, 808.0, 28.4253
56.741044029, 96.390, 853.0, 29.2062
56.767304594, 96.390, 873.0, 29.5466
56.793565159, 96.390, 826.0, 28.7402
56.819825725, 96.390, 924.0, 30.3974
56.846086290, 96.390, 875.0, 29.5804
56.872346855, 96.390, 855.0, 29.2404
56.898607421, 96.390, 850.0, 29.1548
56.924867986, 96.390, 884.0, 29.7321
56.951128551, 96.390, 882.0, 29.6985
56.977389117, 96.390, 847.0, 29.1033
57.003649682, 96.390, 936.0, 30.5941
57.029910248, 96.390, 922.0, 30.3645
57.056170813, 96.390, 868.0, 29.4618
57.082431378, 96.390, 905.0, 30.0832
57.108691944, 96.390, 956.0, 30.9192
57.134952509, 96.390, 930.0, 30.4959
57.161213074, 96.390, 1011.0, 31.7962
57.187473640, 96.390, 918.0, 30.2985
57.213734205, 96.390, 1034.0, 32.1559
57.239994770, 96.390, 969.0, 31.1288
57.266255336, 96.390, 1015.0, 31.8591
57.292515901, 96.390, 981.0, 31.3209
57.318776466, 96.390, 955.0, 30.9031
57.345037032, 96.390, 911.0, 30.1828
57.371297597, 96.390, 914.0, 30.2324
57.397558163, 96.390, 907.0, 30.1164
57.423818728, 96.390, 943.0, 30.7083
57.450079293, 96.390, 973.0, 31.1929
57.476339859, 96.390, 958.0, 30.9516
57.502600424, 96.390, 943.0, 30.7083
57.528860989, 96.390, 951.0, 30.8383
57.555121555, 96.390, 937.0, 30.6105
57.581382120, 96.390, 957.0, 30.9354
57.607642685, 96.390, 883.0, 29.7153
57.633903251, 96.390, 1014.0, 31.8434
57.660163816, 96.390, 966.0, 31.0805
57.686424381, 96.390, 981.0, 31.3209
57.712684947, 96.390, 982.0, 31.3369
57.738945512, 96.390, 1027.0, 32.0468
57.765206077, 96.390, 995.0, 31.5436
57.791466643, 96.390, 944.0, 30.7246
57.817727208, 96.390, 934.0, 30.5614
57.843987774, 96.390, 941.0, 30.6757
57.870248339, 96.390, 1013.0, 31.8277
57.896508904, 96.390, 954.0, 30.8869
57.922769470, 96.390, 974.0, 31.2090
57.949030035, 96.390, 1022.0, 31.9687
57.975290600, 96.390, 1024.0, 32.0000
58.001551166, 96.390, 1071.0, 32.7261
58.027811731, 96.390, 1081.0, 32.8786
58.054072296, 96.390, 1129.0, 33.6006
58.080332862, 96.390, 1131.0, 33.6303
58.106593427, 96.390, 1086.0, 32.9545
58.132853992, 96.390, 998.0, 31.5911
58.159114558, 96.390, 1038.0, 32.2180
58.185375123, 96.390, 1018.0, 31.9061
58.211635689, 96.390, 972.0, 31.1769
58.237896254, 96.390, 1000.0, 31.6228
58.264156819, 96.390, 982.0, 31.3369
58.290417385, 96.390, 905.0, 30.0832
58.316677950, 96.390, 849.0, 29.1376
58.342938515, 96.390, 922.0, 30.3645
58.369199081, 96.390, 849.0, 29.1376
58.395459646, 96.390, 886.0, 29.7658
58.421720211, 96.390, 925.0, 30.4138
58.447980777, 96.390, 894.0, 29.8998
58.474241342, 96.390, 901.0, 30.0167
58.500501907, 96.390, 910.0, 30.1662
58.526762473, 96.390, 886.0, 29.7658
58.553023038, 96.390, 890.0, 29.8329
58.579283603, 96.390, 906.0, 30.0998
58.605544169, 96.390, 901.0, 30.0167
58.631804734, 96.390, 869.0, 29.4788
58.658065300, 96.390, 902.0, 30.0333
58.684325865, 96.390, 870.0, 29.4958
58.710586430, 96.390, 851.0, 29.1719
58.736846996, 96.390, 879.0, 29.6479
58.763107561, 96.390, 885.0, 29.7489
58.789368126, 96.390, 854.0, 29.2233
58.815628692, 96.390, 825.0, 28.7228
58.841889257, 96.390, 872.0, 29.5296
58.868149822, 96.390, 838.0, 28.9482
58.894410388, 96.390, 885.0, 29.7489
58.920670953, 96.390, 865.0, 29.4109
58.946931518, 96.390, 876.0, 29.5973
58.973192084, 96.390, 835.0, 28.8964
58.999452649, 96.390, 867.0, 29.4449
59.025713214, 96.390, 880.0, 29.6648
59.051973780, 96.390, 812.0, 28.4956
59.078234345, 96.390, 888.0, 29.7993
59.104494911, 96.390, 886.0, 29.7658
59.130755476, 96.390, 866.0, 29.4279
59.157016041, 96.390, 874.0, 29.5635
59.183276607, 96.390, 865.0, 29.4109
59.209537172, 96.390, 958.0, 30.9516
59.235797737, 96.390, 934.0, 30.5614
59.262058303, 96.390, 904.0, 30.0666
59.288318868, 96.390, 899.0, 29.9833
59.314579433, 96.390, 905.0, 30.0832
59.340839999, 96.390, 927.0, 30.4467
59.367100564, 96.390, 900.0, 30.0000
59.393361129, 96.390, 927.0, 30.4467
59.419621695, 96.390, 976.0, 31.2410
59.445882260, 96.390, 978.0, 31.2730
59.472142826, 96.390, 973.0, 31.1929
59.498403391, 96.390, 976.0, 31.2410
59.524663956, 96.390, 917.0, 30.2820
59.550924522, 96.390, 929.0, 30.4795
59.577185087, 96.390, 913.0, 30.2159
59.603445652, 96.390, 954.0, 30.8869
59.629706218, 96.390, 923.0, 30.3809
59.655966783, 96.390, 909.0, 30.1496
59.682227348, 96.390, 877.0, 29.6142
59.708487914, 96.390, 879.0, 29.6479
59.734748479, 96.390, 1017.0, 31.8904
59.761009044, 96.390, 985.0, 31.3847
59.787269610, 96.390, 940.0, 30.6594
59.813530175, 96.390, 984.0, 31.3688
59.839790740, 96.390, 905.0, 30.0832
59.866051306, 96.390, 988.0, 31.4325
59.892311871, 96.390, 913.0, 30.2159
59.918572437, 96.390, 1012.0, 31.8119
59.944833002, 96.390, 959.0, 30.9677
59.971093567, 96.390, 1083.0, 32.9090
59.997354133, 96.390, 1056.0, 32.4962
60.023614698, 96.390, 985.0, 31.3847
60.049875263, 96.390, 1009.0, 31.7648
60.076135829, 96.390, 961.0, 31.0000
60.102396394, 96.390, 1075.0, 32.7872
60.128656959, 96.390, 998.0, 31.5911
60.154917525, 96.390, 1045.0, 32.3265
60.181178090, 96.390, 1078.0, 32.8329
60.207438655, 96.390, 1056.0, 32.4962
60.233699221, 96.390, 1042.0, 32.2800
60.259959786, 96.390, 1083.0, 32.9090
60.286220352, 96.390, 1047.0, 32.3574
60.312480917, 96.390, 1015.0, 31.8591
60.338741482, 96.390, 1076.0, 32.8024
60.365002048, 96.390, 1082.0, 32.8938
60.391262613, 96.390, 1099.0, 33.1512
60.417523178, 96.390, 1184.0, 34.4093
60.443783744, 96.390, 1141.0, 33.7787
60.470044309, 96.390, 1141.0, 33.7787
60.496304874, 96.390, 1169.0, 34.1906
60.522565440, 96.390, 1192.0, 34.5254
60.548826005, 96.390, 1290.0, 35.9166
60.575086570, 96.390, 1202.0, 34.6699
60.601347136, 96.390, 1292.0, 35.9444
60.627607701, 96.390, 1294.0, 35.9722
60.653868266, 96.390, 1295.0, 35.9861
60.680128832, 96.390, 1379.0, 37.1349
60.706389397, 96.390, 1240.0, 35.2136
60.732649963, 96.390, 1340.0, 36.6060
60.758910528, 96.390, 1391.0, 37.2961
60.785171093, 96.390, 1401.0, 37.4299
60.811431659, 96.390, 1373.0, 37.0540
60.837692224, 96.390, 1390.0, 37.2827
60.863952789, 96.390, 1352.0, 36.7696
60.890213355, 96.390, 1399.0, 37.4032
60.916473920, 96.390, 1329.0, 36.4555
60.942734485, 96.390, 1384.0, 37.2022
60.968995051, 96.390, 1388.0, 37.2559
60.995255616, 96.390, 1451.0, 38.0920
61.021516181, 96.390, 1345.0, 36.6742
61.047776747, 96.390, 1383.0, 37.1887
61.074037312, 96.390, 1404.0, 37.4700
61.100297878, 96.390, 1375.0, 37.0810
61.126558443, 96.390, 1379.0, 37.1349
61.152819008, 96.390, 1413.0, 37.5899
61.179079574, 96.390, 1305.0, 36.1248
61.205340139, 96.390, 1338.0, 36.5787
61.231600704, 96.390, 1410.0, 37.5500
61.257861270, 96.390, 1360.0, 36.8782
61.284121835, 96.390, 1348.0, 36.7151
61.310382400, 96.390, 1424.0, 37.7359
61.336642966, 96.390, 1340.0, 36.6060
61.362903531, 96.390, 1349.0, 36.7287
61.389164096, 96.390, 1319.0, 36.3180
61.415424662, 96.390, 1365.0, 36.9459
61.441685227, 96.390, 1426.0, 37.7624
61.467945792, 96.390, 1312.0, 36.2215
61.494206358, 96.390, 1399.0, 37.4032
61.520466923, 96.390, 1369.0, 37.0000
61.546727489, 96.390, 1248.0, 35.3270
61.572988054, 96.390, 1377.0, 37.1080
61.599248619, 96.390, 1392.0, 37.3095
61.625509185, 96.390, 1369.0, 37.0000
61.651769750, 96.390, 1305.0, 36.1248
61.678030315, 96.390, 1279.0, 35.7631
61.704290881, 96.390, 1304.0, 36.1109
61.730551446, 96.390, 1283.0, 35.8190
61.756812011, 96.390, 1396.0, 37.3631
61.783072577, 96.390, 1293.0, 35.9583
61.809333142, 96.390, 1243.0, 35.2562
61.835593707, 96.390, 1286.0, 35.8608
61.861854273, 96.390, 1143.0, 33.8083
61.888114838, 96.390, 1204.0, 34.6987
61.914375404, 96.390, 1275.0, 35.7071
61.940635969, 96.390, 1175.0, 34.2783
61.966896534, 96.390, 1211.0, 34.7994
61.993157100, 96.390, 1125.0, 33.5410
62.019417665, 96.390, 1233.0, 35.1141
62.045678230, 96.390, 1223.0, 34.9714
62.071938796, 96.390, 1141.0, 33.7787
62.098199361, 96.390, 1178.0, 34.3220
62.124459926, 96.390, 1195.0, 34.5688
62.150720492, 96.390, 1211.0, 34.7994
62.176981057, 96.390, 1172.0, 34.2345
62.203241622, 96.390, 1209.0, 34.7707
62.229502188, 96.390, 1216.0, 34.8712
62.255762753, 96.390, 1214.0, 34.8425
62.282023318, 96.390, 1215.0, 34.8569
62.308283884, 96.390, 1167.0, 34.1614
62.334544449, 96.390, 1170.0, 34.2053
62.360805015, 96.390, 1173.0, 34.2491
62.387065580, 96.390, 1177.0, 34.3074
62.413326145, 96.390, 1113.0, 33.3617
62.439586711, 96.390, 1075.0, 32.7872
62.465847276, 96.390, 1171.0, 34.2199
62.492107841, 96.390, 1065.0, 32.6343
62.518368407, 96.390, 1072.0, 32.7414
62.544628972, 96.390, 1063.0, 32.6037
62.570889537, 96.390, 1059.0, 32.5423
62.597150103, 96.390, 1104.0, 33.2265
62.623410668, 96.390, 1140.0, 33.7639
62.649671233, 96.390, 1046.0, 32.3419
62.675931799, 96.390, 1085.0, 32.9393
62.702192364, 96.390, 1085.0, 32.9393
62.728452930, 96.390, 1037.0, 32.2025
62.754713495, 96.390, 1009.0, 31.7648
62.780974060, 96.390, 984.0, 31.3688
62.807234626, 96.390, 1007.0, 31.7333
62.833495191, 96.390, 1011.0, 31.7962
62.859755756, 96.390, 1006.0, 31.7175
62.886016322, 96.390, 949.0, 30.8058
62.912276887, 96.390, 940.0, 30.6594
62.938537452, 96.390, 901.0, 30.0167
62.964798018, 96.390, 877.0, 29.6142
62.991058583, 96.390, 908.0, 30.1330
63.017319148, 96.390, 869.0, 29.4788
63.043579714, 96.390, 841.0, 29.0000
63.069840279, 96.390, 917.0, 30.2820
63.096100844, 96.390, 866.0, 29.4279
63.122361410, 96.390, 820.0, 28.6356
63.148621975, 96.390, 854.0, 29.2233
63.174882541, 96.390, 865.0, 29.4109
63.201143106, 96.390, 846.0, 29.0861
63.227403671, 96.390, 849.0, 29.1376
63.253664237, 96.390, 811.0, 28.4781
63.279924802, 96.390, 849.0, 29.1376
63.306185367, 96.390, 827.0, 28.7576
63.332445933, 96.390, 873.0, 29.5466
63.358706498, 96.390, 871.0, 29.5127
63.384967063, 96.390, 841.0, 29.0000
63.411227629, 96.390, 899.0, 29.9833
63.437488194, 96.390, 855.0, 29.2404
63.463748759, 96.390, 863.0, 29.3769
63.490009325, 96.390, 863.0, 29.3769
63.516269890, 96.390, 804.0, 28.3549
63.542530455, 96.390, 872.0, 29.5296
63.568791021, 96.390, 876.0, 29.5973
63.595051586, 96.390, 819.0, 28.6182
63.621312152, 96.390, 881.0, 29.6816
63.647572717, 96.390, 857.0, 29.2746
63.673833282, 96.390, 863.0, 29.3769
63.700093848, 96.390, 873.0, 29.5466
63.726354413, 96.390, 897.0, 29.9500
63.752614978, 96.390, 934.0, 30.5614
63.778875544, 96.390, 969.0, 31.1288
63.805136109, 96.390, 910.0, 30.1662
63.831396674, 96.390, 896.0, 29.9333
63.857657240, 96.390, 906.0, 30.0998
63.883917805, 96.390, 872.0, 29.5296
63.910178370, 96.390, 902.0, 30.0333
63.936438936, 96.390, 876.0, 29.5973
63.962699501, 96.390, 898.0, 29.9666
63.988960067, 96.390, 928.0, 30.4631
64.015220632, 96.390, 944.0, 30.7246
64.041481197, 96.390, 913.0, 30.2159
64.067741763, 96.390, 831.0, 28.8271
64.094002328, 96.390, 877.0, 29.6142
64.120262893, 96.390, 902.0, 30.0333
64.146523459, 96.390, 847.0, 29.1033
64.172784024, 96.390, 844.0, 29.0517
64.199044589, 96.390, 921.0, 30.3480
64.225305155, 96.390, 908.0, 30.1330
64.251565720, 96.390, 850.0, 29.1548
64.277826285, 96.390, 863.0, 29.3769
64.304086851, 96.390, 857.0, 29.2746
64.330347416, 96.390, 772.0, 27.7849
64.356607981, 96.390, 778.0, 27.8927
64.382868547, 96.390, 804.0, 28.3549
64.409129112, 96.390, 781.0, 27.9464
64.435389678, 96.390, 814.0, 28.5307
64.461650243, 96.390, 814.0, 28.5307
64.487910808, 96.390, 775.0, 27.8388
64.514171374, 96.390, 728.0, 26.9815
64.540431939, 96.390, 776.0, 27.8568
64.566692504, 96.390, 734.0, 27.0924
64.592953070, 96.390, 752.0, 27.4226
64.619213635, 96.390, 751.0, 27.4044
64.645474200, 96.390, 780.0, 27.9285
64.671734766, 96.390, 857.0, 29.2746
64.697995331, 96.390, 704.0, 26.5330
64.724255896, 96.390, 719.0, 26.8142
64.750516462, 96.390, 774.0, 27.8209
64.776777027, 96.390, 763.0, 27.6225
64.803037593, 96.390, 812.0, 28.4956
64.829298158, 96.390, 763.0, 27.6225
64.855558723, 96.390, 779.0, 27.9106
64.881819289, 96.390, 733.0, 27.0740
64.908079854, 96.390, 752.0, 27.4226
64.934340419, 96.390, 732.0, 27.0555
64.960600985, 96.390, 756.0, 27.4955
64.986861550, 96.390, 760.0, 27.5681
