[Measurement conditions]
Sample identification,XRD_Centroid20Oct21_Act14Feb22_B2_1000M_NaOH_LS0171_1
Comment - 1,"Configuration=Stage for Flat Samples/Holders, Owner=User-1, Creation date=7/1/2020 9:53:24 AM"
Comment - 2,"Goniometer=Theta/Theta; Minimum step size 2Theta:0.0001; Minimum step size Omega:0.0001"
Comment - 3,"Sample stage=Stage for flat samples/holders"
Comment - 4,"Diffractometer system=EMPYREAN"
Comment - 5,"Measurement program=C:\Users\ibo5034\OneDrive - The Pennsylvania State University\NEUP\Zerobackground scan.xrdmp, Identifier={98A3B11C-88F9-4AA6-982C-73314A311EF5}"
Anode material,Cu
K-Alpha1 wavelength,1.5405980
K-Alpha2 wavelength,1.5444260
Ratio K-Alpha2/K-Alpha1,0.500
Divergence slit,Fixed,0.25
Monochromator used,NO
Generator voltage, 45
Tube current, 40
File date and time,17/Feb/2022 12:48
Unit cell,
h k l, 0 0 0
Scan axis,Gonio
Scan range,4.994599997,64.999991833
Scan step size,0.0262606
No. of points, 2285
Scan type,CONTINUOUS
Time per step,96.390
[Scan points]
Angle, TimePerStep, Intensity, ESD
5.007730280, 96.390, 3592.0, 59.9333
5.033990845, 96.390, 3625.0, 60.2080
5.060251411, 96.390, 3604.0, 60.0333
5.086511976, 96.390, 3571.0, 59.7578
5.112772541, 96.390, 3587.0, 59.8916
5.139033107, 96.390, 3495.0, 59.1185
5.165293672, 96.390, 3485.0, 59.0339
5.191554237, 96.390, 3385.0, 58.1808
5.217814803, 96.390, 3412.0, 58.4123
5.244075368, 96.390, 3553.0, 59.6070
5.270335934, 96.390, 3386.0, 58.1893
5.296596499, 96.390, 3375.0, 58.0948
5.322857064, 96.390, 3522.0, 59.3464
5.349117630, 96.390, 3439.0, 58.6430
5.375378195, 96.390, 3479.0, 58.9830
5.401638760, 96.390, 3335.0, 57.7495
5.427899326, 96.390, 3270.0, 57.1839
5.454159891, 96.390, 3341.0, 57.8014
5.480420456, 96.390, 3403.0, 58.3352
5.506681022, 96.390, 3307.0, 57.5065
5.532941587, 96.390, 3292.0, 57.3760
5.559202152, 96.390, 3187.0, 56.4535
5.585462718, 96.390, 3283.0, 57.2975
5.611723283, 96.390, 3270.0, 57.1839
5.637983849, 96.390, 3319.0, 57.6108
5.664244414, 96.390, 3205.0, 56.6127
5.690504979, 96.390, 3260.0, 57.0964
5.716765545, 96.390, 3131.0, 55.9553
5.743026110, 96.390, 3234.0, 56.8683
5.769286675, 96.390, 3213.0, 56.6833
5.795547241, 96.390, 3243.0, 56.9473
5.821807806, 96.390, 3169.0, 56.2939
5.848068371, 96.390, 3195.0, 56.5243
5.874328937, 96.390, 3100.0, 55.6776
5.900589502, 96.390, 3145.0, 56.0803
5.926850067, 96.390, 3224.0, 56.7803
5.953110633, 96.390, 3154.0, 56.1605
5.979371198, 96.390, 3220.0, 56.7450
6.005631763, 96.390, 3056.0, 55.2811
6.031892329, 96.390, 3199.0, 56.5597
6.058152894, 96.390, 3189.0, 56.4712
6.084413460, 96.390, 3154.0, 56.1605
6.110674025, 96.390, 3148.0, 56.1070
6.136934590, 96.390, 3183.0, 56.4181
6.163195156, 96.390, 3033.0, 55.0727
6.189455721, 96.390, 3133.0, 55.9732
6.215716286, 96.390, 3130.0, 55.9464
6.241976852, 96.390, 3100.0, 55.6776
6.268237417, 96.390, 3135.0, 55.9911
6.294497982, 96.390, 3162.0, 56.2317
6.320758548, 96.390, 3109.0, 55.7584
6.347019113, 96.390, 3149.0, 56.1160
6.373279678, 96.390, 3192.0, 56.4978
6.399540244, 96.390, 3076.0, 55.4617
6.425800809, 96.390, 3067.0, 55.3805
6.452061375, 96.390, 3031.0, 55.0545
6.478321940, 96.390, 3015.0, 54.9090
6.504582505, 96.390, 3069.0, 55.3986
6.530843071, 96.390, 3174.0, 56.3383
6.557103636, 96.390, 3042.0, 55.1543
6.583364201, 96.390, 3045.0, 55.1815
6.609624767, 96.390, 2991.0, 54.6900
6.635885332, 96.390, 2949.0, 54.3047
6.662145897, 96.390, 3143.0, 56.0625
6.688406463, 96.390, 3034.0, 55.0818
6.714667028, 96.390, 3090.0, 55.5878
6.740927593, 96.390, 3012.0, 54.8817
6.767188159, 96.390, 2985.0, 54.6352
6.793448724, 96.390, 3009.0, 54.8544
6.819709289, 96.390, 2933.0, 54.1572
6.845969855, 96.390, 3038.0, 55.1181
6.872230420, 96.390, 2954.0, 54.3507
6.898490986, 96.390, 3102.0, 55.6956
6.924751551, 96.390, 2936.0, 54.1849
6.951012116, 96.390, 2913.0, 53.9722
6.977272682, 96.390, 3090.0, 55.5878
7.003533247, 96.390, 2927.0, 54.1018
7.029793812, 96.390, 2959.0, 54.3967
7.056054378, 96.390, 2898.0, 53.8331
7.082314943, 96.390, 2934.0, 54.1664
7.108575508, 96.390, 2939.0, 54.2125
7.134836074, 96.390, 2883.0, 53.6936
7.161096639, 96.390, 3017.0, 54.9272
7.187357204, 96.390, 2873.0, 53.6004
7.213617770, 96.390, 2937.0, 54.1941
7.239878335, 96.390, 2905.0, 53.8981
7.266138900, 96.390, 3011.0, 54.8726
7.292399466, 96.390, 2929.0, 54.1202
7.318660031, 96.390, 2903.0, 53.8795
7.344920597, 96.390, 2908.0, 53.9259
7.371181162, 96.390, 2814.0, 53.0471
7.397441727, 96.390, 2940.0, 54.2218
7.423702293, 96.390, 2862.0, 53.4977
7.449962858, 96.390, 2779.0, 52.7162
7.476223423, 96.390, 2857.0, 53.4509
7.502483989, 96.390, 2898.0, 53.8331
7.528744554, 96.390, 2932.0, 54.1479
7.555005119, 96.390, 2838.0, 53.2729
7.581265685, 96.390, 2845.0, 53.3385
7.607526250, 96.390, 2941.0, 54.2310
7.633786815, 96.390, 2781.0, 52.7352
7.660047381, 96.390, 2875.0, 53.6190
7.686307946, 96.390, 2864.0, 53.5164
7.712568512, 96.390, 2790.0, 52.8205
7.738829077, 96.390, 2783.0, 52.7541
7.765089642, 96.390, 2780.0, 52.7257
7.791350208, 96.390, 2793.0, 52.8488
7.817610773, 96.390, 2805.0, 52.9623
7.843871338, 96.390, 2850.0, 53.3854
7.870131904, 96.390, 2824.0, 53.1413
7.896392469, 96.390, 2809.0, 53.0000
7.922653034, 96.390, 2791.0, 52.8299
7.948913600, 96.390, 2771.0, 52.6403
7.975174165, 96.390, 2843.0, 53.3198
8.001434730, 96.390, 2872.0, 53.5910
8.027695296, 96.390, 2773.0, 52.6593
8.053955861, 96.390, 2795.0, 52.8678
8.080216426, 96.390, 2828.0, 53.1789
8.106476992, 96.390, 2681.0, 51.7784
8.132737557, 96.390, 2847.0, 53.3573
8.158998123, 96.390, 2934.0, 54.1664
8.185258688, 96.390, 2753.0, 52.4690
8.211519253, 96.390, 2829.0, 53.1883
8.237779819, 96.390, 2876.0, 53.6284
8.264040384, 96.390, 2872.0, 53.5910
8.290300949, 96.390, 2863.0, 53.5070
8.316561515, 96.390, 2766.0, 52.5928
8.342822080, 96.390, 2759.0, 52.5262
8.369082645, 96.390, 2828.0, 53.1789
8.395343211, 96.390, 2781.0, 52.7352
8.421603776, 96.390, 2771.0, 52.6403
8.447864341, 96.390, 2781.0, 52.7352
8.474124907, 96.390, 2766.0, 52.5928
8.500385472, 96.390, 2799.0, 52.9056
8.526646038, 96.390, 2809.0, 53.0000
8.552906603, 96.390, 2857.0, 53.4509
8.579167168, 96.390, 2673.0, 51.7011
8.605427734, 96.390, 2811.0, 53.0189
8.631688299, 96.390, 2804.0, 52.9528
8.657948864, 96.390, 2809.0, 53.0000
8.684209430, 96.390, 2813.0, 53.0377
8.710469995, 96.390, 2804.0, 52.9528
8.736730560, 96.390, 2804.0, 52.9528
8.762991126, 96.390, 2838.0, 53.2729
8.789251691, 96.390, 2777.0, 52.6972
8.815512256, 96.390, 2744.0, 52.3832
8.841772822, 96.390, 2821.0, 53.1131
8.868033387, 96.390, 2777.0, 52.6972
8.894293952, 96.390, 2830.0, 53.1977
8.920554518, 96.390, 2749.0, 52.4309
8.946815083, 96.390, 2865.0, 53.5257
8.973075649, 96.390, 2791.0, 52.8299
8.999336214, 96.390, 2841.0, 53.3010
9.025596779, 96.390, 2808.0, 52.9906
9.051857345, 96.390, 2780.0, 52.7257
9.078117910, 96.390, 2888.0, 53.7401
9.104378475, 96.390, 2791.0, 52.8299
9.130639041, 96.390, 2783.0, 52.7541
9.156899606, 96.390, 2760.0, 52.5357
9.183160171, 96.390, 2745.0, 52.3927
9.209420737, 96.390, 2833.0, 53.2259
9.235681302, 96.390, 2942.0, 54.2402
9.261941867, 96.390, 2804.0, 52.9528
9.288202433, 96.390, 2888.0, 53.7401
9.314462998, 96.390, 2794.0, 52.8583
9.340723564, 96.390, 2815.0, 53.0566
9.366984129, 96.390, 2806.0, 52.9717
9.393244694, 96.390, 2828.0, 53.1789
9.419505260, 96.390, 2852.0, 53.4041
9.445765825, 96.390, 2903.0, 53.8795
9.472026390, 96.390, 2857.0, 53.4509
9.498286956, 96.390, 2834.0, 53.2353
9.524547521, 96.390, 2895.0, 53.8052
9.550808086, 96.390, 2814.0, 53.0471
9.577068652, 96.390, 2942.0, 54.2402
9.603329217, 96.390, 2855.0, 53.4322
9.629589782, 96.390, 2932.0, 54.1479
9.655850348, 96.390, 2928.0, 54.1110
9.682110913, 96.390, 2883.0, 53.6936
9.708371478, 96.390, 2872.0, 53.5910
9.734632044, 96.390, 3002.0, 54.7905
9.760892609, 96.390, 2827.0, 53.1695
9.787153175, 96.390, 2944.0, 54.2586
9.813413740, 96.390, 2967.0, 54.4702
9.839674305, 96.390, 2904.0, 53.8888
9.865934871, 96.390, 3077.0, 55.4707
9.892195436, 96.390, 2971.0, 54.5069
9.918456001, 96.390, 3042.0, 55.1543
9.944716567, 96.390, 2992.0, 54.6992
9.970977132, 96.390, 2963.0, 54.4334
9.997237697, 96.390, 3023.0, 54.9818
10.023498263, 96.390, 3098.0, 55.6597
10.049758828, 96.390, 3132.0, 55.9643
10.076019393, 96.390, 3074.0, 55.4437
10.102279959, 96.390, 3165.0, 56.2583
10.128540524, 96.390, 3129.0, 55.9375
10.154801090, 96.390, 3297.0, 57.4195
10.181061655, 96.390, 3205.0, 56.6127
10.207322220, 96.390, 3204.0, 56.6039
10.233582786, 96.390, 3205.0, 56.6127
10.259843351, 96.390, 3206.0, 56.6216
10.286103916, 96.390, 3295.0, 57.4021
10.312364482, 96.390, 3235.0, 56.8771
10.338625047, 96.390, 3279.0, 57.2626
10.364885612, 96.390, 3431.0, 58.5747
10.391146178, 96.390, 3580.0, 59.8331
10.417406743, 96.390, 3511.0, 59.2537
10.443667308, 96.390, 3928.0, 62.6738
10.469927874, 96.390, 4245.0, 65.1537
10.496188439, 96.390, 4467.0, 66.8356
10.522449004, 96.390, 4180.0, 64.6529
10.548709570, 96.390, 3606.0, 60.0500
10.574970135, 96.390, 3349.0, 57.8705
10.601230701, 96.390, 3390.0, 58.2237
10.627491266, 96.390, 3326.0, 57.6715
10.653751831, 96.390, 3296.0, 57.4108
10.680012397, 96.390, 3433.0, 58.5918
10.706272962, 96.390, 3480.0, 58.9915
10.732533527, 96.390, 3417.0, 58.4551
10.758794093, 96.390, 3348.0, 57.8619
10.785054658, 96.390, 3354.0, 57.9137
10.811315223, 96.390, 3389.0, 58.2151
10.837575789, 96.390, 3501.0, 59.1692
10.863836354, 96.390, 3433.0, 58.5918
10.890096919, 96.390, 3542.0, 59.5147
10.916357485, 96.390, 3674.0, 60.6135
10.942618050, 96.390, 3509.0, 59.2368
10.968878616, 96.390, 3716.0, 60.9590
10.995139181, 96.390, 3691.0, 60.7536
11.021399746, 96.390, 3861.0, 62.1369
11.047660312, 96.390, 3863.0, 62.1530
11.073920877, 96.390, 3894.0, 62.4019
11.100181442, 96.390, 3612.0, 60.0999
11.126442008, 96.390, 3399.0, 58.3009
11.152702573, 96.390, 3553.0, 59.6070
11.178963138, 96.390, 3481.0, 59.0000
11.205223704, 96.390, 3555.0, 59.6238
11.231484269, 96.390, 3662.0, 60.5145
11.257744834, 96.390, 3627.0, 60.2246
11.284005400, 96.390, 3467.0, 58.8812
11.310265965, 96.390, 3627.0, 60.2246
11.336526530, 96.390, 3519.0, 59.3212
11.362787096, 96.390, 3556.0, 59.6322
11.389047661, 96.390, 3374.0, 58.0861
11.415308227, 96.390, 3589.0, 59.9083
11.441568792, 96.390, 3456.0, 58.7878
11.467829357, 96.390, 3419.0, 58.4722
11.494089923, 96.390, 3473.0, 58.9322
11.520350488, 96.390, 3446.0, 58.7026
11.546611053, 96.390, 3550.0, 59.5819
11.572871619, 96.390, 3545.0, 59.5399
11.599132184, 96.390, 3529.0, 59.4054
11.625392749, 96.390, 3470.0, 58.9067
11.651653315, 96.390, 3525.0, 59.3717
11.677913880, 96.390, 3538.0, 59.4811
11.704174445, 96.390, 3443.0, 58.6771
11.730435011, 96.390, 3508.0, 59.2284
11.756695576, 96.390, 3372.0, 58.0689
11.782956141, 96.390, 3388.0, 58.2065
11.809216707, 96.390, 3385.0, 58.1808
11.835477272, 96.390, 3385.0, 58.1808
11.861737838, 96.390, 3381.0, 58.1464
11.887998403, 96.390, 3235.0, 56.8771
11.914258968, 96.390, 3279.0, 57.2626
11.940519534, 96.390, 3293.0, 57.3847
11.966780099, 96.390, 3464.0, 58.8558
11.993040664, 96.390, 3229.0, 56.8243
12.019301230, 96.390, 3335.0, 57.7495
12.045561795, 96.390, 3282.0, 57.2887
12.071822360, 96.390, 3270.0, 57.1839
12.098082926, 96.390, 3195.0, 56.5243
12.124343491, 96.390, 3137.0, 56.0089
12.150604056, 96.390, 3136.0, 56.0000
12.176864622, 96.390, 3081.0, 55.5068
12.203125187, 96.390, 3117.0, 55.8301
12.229385753, 96.390, 3052.0, 55.2449
12.255646318, 96.390, 3022.0, 54.9727
12.281906883, 96.390, 2945.0, 54.2679
12.308167449, 96.390, 2953.0, 54.3415
12.334428014, 96.390, 3013.0, 54.8908
12.360688579, 96.390, 2970.0, 54.4977
12.386949145, 96.390, 2973.0, 54.5252
12.413209710, 96.390, 2892.0, 53.7773
12.439470275, 96.390, 2972.0, 54.5161
12.465730841, 96.390, 2860.0, 53.4790
12.491991406, 96.390, 2902.0, 53.8702
12.518251971, 96.390, 2751.0, 52.4500
12.544512537, 96.390, 2757.0, 52.5071
12.570773102, 96.390, 2708.0, 52.0384
12.597033667, 96.390, 2842.0, 53.3104
12.623294233, 96.390, 2797.0, 52.8867
12.649554798, 96.390, 2737.0, 52.3163
12.675815364, 96.390, 2700.0, 51.9615
12.702075929, 96.390, 2783.0, 52.7541
12.728336494, 96.390, 2684.0, 51.8073
12.754597060, 96.390, 2696.0, 51.9230
12.780857625, 96.390, 2687.0, 51.8363
12.807118190, 96.390, 2678.0, 51.7494
12.833378756, 96.390, 2686.0, 51.8266
12.859639321, 96.390, 2537.0, 50.3686
12.885899886, 96.390, 2567.0, 50.6656
12.912160452, 96.390, 2553.0, 50.5272
12.938421017, 96.390, 2617.0, 51.1566
12.964681582, 96.390, 2563.0, 50.6261
12.990942148, 96.390, 2416.0, 49.1528
13.017202713, 96.390, 2519.0, 50.1896
13.043463279, 96.390, 2587.0, 50.8626
13.069723844, 96.390, 2519.0, 50.1896
13.095984409, 96.390, 2504.0, 50.0400
13.122244975, 96.390, 2374.0, 48.7237
13.148505540, 96.390, 2512.0, 50.1199
13.174766105, 96.390, 2537.0, 50.3686
13.201026671, 96.390, 2457.0, 49.5681
13.227287236, 96.390, 2318.0, 48.1456
13.253547801, 96.390, 2381.0, 48.7955
13.279808367, 96.390, 2334.0, 48.3115
13.306068932, 96.390, 2345.0, 48.4252
13.332329497, 96.390, 2392.0, 48.9081
13.358590063, 96.390, 2411.0, 49.1019
13.384850628, 96.390, 2389.0, 48.8774
13.411111193, 96.390, 2477.0, 49.7695
13.437371759, 96.390, 2602.0, 51.0098
13.463632324, 96.390, 2517.0, 50.1697
13.489892890, 96.390, 2638.0, 51.3615
13.516153455, 96.390, 2746.0, 52.4023
13.542414020, 96.390, 2710.0, 52.0577
13.568674586, 96.390, 2611.0, 51.0979
13.594935151, 96.390, 2667.0, 51.6430
13.621195716, 96.390, 2571.0, 50.7050
13.647456282, 96.390, 2472.0, 49.7192
13.673716847, 96.390, 2510.0, 50.0999
13.699977412, 96.390, 2581.0, 50.8035
13.726237978, 96.390, 2657.0, 51.5461
13.752498543, 96.390, 2694.0, 51.9038
13.778759108, 96.390, 3273.0, 57.2101
13.805019674, 96.390, 3994.0, 63.1981
13.831280239, 96.390, 4653.0, 68.2129
13.857540805, 96.390, 4589.0, 67.7422
13.883801370, 96.390, 3511.0, 59.2537
13.910061935, 96.390, 2863.0, 53.5070
13.936322501, 96.390, 2485.0, 49.8498
13.962583066, 96.390, 2445.0, 49.4469
13.988843631, 96.390, 2265.0, 47.5920
14.015104197, 96.390, 2308.0, 48.0416
14.041364762, 96.390, 2297.0, 47.9270
14.067625327, 96.390, 2375.0, 48.7340
14.093885893, 96.390, 2621.0, 51.1957
14.120146458, 96.390, 2491.0, 49.9099
14.146407023, 96.390, 2797.0, 52.8867
14.172667589, 96.390, 3173.0, 56.3294
14.198928154, 96.390, 3361.0, 57.9741
14.225188719, 96.390, 3702.0, 60.8441
14.251449285, 96.390, 4408.0, 66.3928
14.277709850, 96.390, 5255.0, 72.4914
14.303970416, 96.390, 6876.0, 82.9216
14.330230981, 96.390, 7953.0, 89.1796
14.356491546, 96.390, 5727.0, 75.6769
14.382752112, 96.390, 3549.0, 59.5735
14.409012677, 96.390, 2210.0, 47.0106
14.435273242, 96.390, 2154.0, 46.4112
14.461533808, 96.390, 1964.0, 44.3170
14.487794373, 96.390, 2039.0, 45.1553
14.514054938, 96.390, 1982.0, 44.5197
14.540315504, 96.390, 2002.0, 44.7437
14.566576069, 96.390, 2053.0, 45.3100
14.592836634, 96.390, 2048.0, 45.2548
14.619097200, 96.390, 1983.0, 44.5309
14.645357765, 96.390, 1939.0, 44.0341
14.671618331, 96.390, 1981.0, 44.5084
14.697878896, 96.390, 1909.0, 43.6921
14.724139461, 96.390, 1891.0, 43.4856
14.750400027, 96.390, 1907.0, 43.6692
14.776660592, 96.390, 1935.0, 43.9886
14.802921157, 96.390, 1844.0, 42.9418
14.829181723, 96.390, 1803.0, 42.4617
14.855442288, 96.390, 1823.0, 42.6966
14.881702853, 96.390, 1906.0, 43.6578
14.907963419, 96.390, 1899.0, 43.5775
14.934223984, 96.390, 1943.0, 44.0795
14.960484549, 96.390, 1962.0, 44.2945
14.986745115, 96.390, 1911.0, 43.7150
15.013005680, 96.390, 1903.0, 43.6234
15.039266245, 96.390, 1952.0, 44.1814
15.065526811, 96.390, 1977.0, 44.4635
15.091787376, 96.390, 1927.0, 43.8976
15.118047942, 96.390, 2002.0, 44.7437
15.144308507, 96.390, 1974.0, 44.4297
15.170569072, 96.390, 1943.0, 44.0795
15.196829638, 96.390, 2062.0, 45.4093
15.223090203, 96.390, 2084.0, 45.6508
15.249350768, 96.390, 2265.0, 47.5920
15.275611334, 96.390, 2375.0, 48.7340
15.301871899, 96.390, 2497.0, 49.9700
15.328132464, 96.390, 2536.0, 50.3587
15.354393030, 96.390, 2287.0, 47.8226
15.380653595, 96.390, 1955.0, 44.2154
15.406914160, 96.390, 1945.0, 44.1022
15.433174726, 96.390, 1836.0, 42.8486
15.459435291, 96.390, 1922.0, 43.8406
15.485695857, 96.390, 1874.0, 43.2897
15.511956422, 96.390, 1838.0, 42.8719
15.538216987, 96.390, 1797.0, 42.3910
15.564477553, 96.390, 1804.0, 42.4735
15.590738118, 96.390, 1866.0, 43.1972
15.616998683, 96.390, 1731.0, 41.6053
15.643259249, 96.390, 1808.0, 42.5206
15.669519814, 96.390, 1795.0, 42.3674
15.695780379, 96.390, 1767.0, 42.0357
15.722040945, 96.390, 1784.0, 42.2374
15.748301510, 96.390, 1822.0, 42.6849
15.774562075, 96.390, 1766.0, 42.0238
15.800822641, 96.390, 1757.0, 41.9166
15.827083206, 96.390, 1710.0, 41.3521
15.853343771, 96.390, 1856.0, 43.0813
15.879604337, 96.390, 1676.0, 40.9390
15.905864902, 96.390, 1775.0, 42.1307
15.932125468, 96.390, 1810.0, 42.5441
15.958386033, 96.390, 1752.0, 41.8569
15.984646598, 96.390, 1833.0, 42.8135
16.010907164, 96.390, 1733.0, 41.6293
16.037167729, 96.390, 1809.0, 42.5323
16.063428294, 96.390, 1878.0, 43.3359
16.089688860, 96.390, 1875.0, 43.3013
16.115949425, 96.390, 1813.0, 42.5793
16.142209990, 96.390, 1752.0, 41.8569
16.168470556, 96.390, 1706.0, 41.3038
16.194731121, 96.390, 1789.0, 42.2966
16.220991686, 96.390, 1666.0, 40.8167
16.247252252, 96.390, 1675.0, 40.9268
16.273512817, 96.390, 1759.0, 41.9404
16.299773382, 96.390, 1654.0, 40.6694
16.326033948, 96.390, 1750.0, 41.8330
16.352294513, 96.390, 1792.0, 42.3320
16.378555079, 96.390, 1694.0, 41.1582
16.404815644, 96.390, 1686.0, 41.0609
16.431076209, 96.390, 1707.0, 41.3159
16.457336775, 96.390, 1750.0, 41.8330
16.483597340, 96.390, 1749.0, 41.8210
16.509857905, 96.390, 1753.0, 41.8688
16.536118471, 96.390, 1812.0, 42.5676
16.562379036, 96.390, 1757.0, 41.9166
16.588639601, 96.390, 1677.0, 40.9512
16.614900167, 96.390, 1729.0, 41.5812
16.641160732, 96.390, 1741.0, 41.7253
16.667421297, 96.390, 1737.0, 41.6773
16.693681863, 96.390, 1737.0, 41.6773
16.719942428, 96.390, 1796.0, 42.3792
16.746202994, 96.390, 1825.0, 42.7200
16.772463559, 96.390, 1705.0, 41.2916
16.798724124, 96.390, 1753.0, 41.8688
16.824984690, 96.390, 1803.0, 42.4617
16.851245255, 96.390, 1796.0, 42.3792
16.877505820, 96.390, 1850.0, 43.0116
16.903766386, 96.390, 2040.0, 45.1664
16.930026951, 96.390, 2075.0, 45.5522
16.956287516, 96.390, 2170.0, 46.5833
16.982548082, 96.390, 2354.0, 48.5180
17.008808647, 96.390, 1976.0, 44.4522
17.035069212, 96.390, 1967.0, 44.3509
17.061329778, 96.390, 1826.0, 42.7317
17.087590343, 96.390, 1717.0, 41.4367
17.113850908, 96.390, 1750.0, 41.8330
17.140111474, 96.390, 1758.0, 41.9285
17.166372039, 96.390, 1735.0, 41.6533
17.192632605, 96.390, 1708.0, 41.3280
17.218893170, 96.390, 1666.0, 40.8167
17.245153735, 96.390, 1677.0, 40.9512
17.271414301, 96.390, 1716.0, 41.4246
17.297674866, 96.390, 1807.0, 42.5088
17.323935431, 96.390, 1887.0, 43.4396
17.350195997, 96.390, 2103.0, 45.8585
17.376456562, 96.390, 2187.0, 46.7654
17.402717127, 96.390, 2394.0, 48.9285
17.428977693, 96.390, 2555.0, 50.5470
17.455238258, 96.390, 2388.0, 48.8672
17.481498823, 96.390, 2216.0, 47.0744
17.507759389, 96.390, 1900.0, 43.5890
17.534019954, 96.390, 1799.0, 42.4146
17.560280520, 96.390, 1811.0, 42.5558
17.586541085, 96.390, 1668.0, 40.8412
17.612801650, 96.390, 1777.0, 42.1545
17.639062216, 96.390, 1828.0, 42.7551
17.665322781, 96.390, 1740.0, 41.7133
17.691583346, 96.390, 1721.0, 41.4849
17.717843912, 96.390, 1677.0, 40.9512
17.744104477, 96.390, 1675.0, 40.9268
17.770365042, 96.390, 1673.0, 40.9023
17.796625608, 96.390, 1707.0, 41.3159
17.822886173, 96.390, 1696.0, 41.1825
17.849146738, 96.390, 1749.0, 41.8210
17.875407304, 96.390, 1667.0, 40.8289
17.901667869, 96.390, 1776.0, 42.1426
17.927928434, 96.390, 1761.0, 41.9643
17.954189000, 96.390, 1730.0, 41.5933
17.980449565, 96.390, 1781.0, 42.2019
18.006710131, 96.390, 1709.0, 41.3401
18.032970696, 96.390, 1817.0, 42.6263
18.059231261, 96.390, 1782.0, 42.2137
18.085491827, 96.390, 1918.0, 43.7950
18.111752392, 96.390, 2022.0, 44.9667
18.138012957, 96.390, 2194.0, 46.8402
18.164273523, 96.390, 2204.0, 46.9468
18.190534088, 96.390, 2125.0, 46.0977
18.216794653, 96.390, 2158.0, 46.4543
18.243055219, 96.390, 2617.0, 51.1566
18.269315784, 96.390, 2643.0, 51.4101
18.295576349, 96.390, 2992.0, 54.6992
18.321836915, 96.390, 3441.0, 58.6600
18.348097480, 96.390, 3581.0, 59.8415
18.374358046, 96.390, 3251.0, 57.0175
18.400618611, 96.390, 2917.0, 54.0093
18.426879176, 96.390, 2802.0, 52.9339
18.453139742, 96.390, 2945.0, 54.2679
18.479400307, 96.390, 3043.0, 55.1634
18.505660872, 96.390, 2774.0, 52.6688
18.531921438, 96.390, 2431.0, 49.3052
18.558182003, 96.390, 2027.0, 45.0222
18.584442568, 96.390, 1763.0, 41.9881
18.610703134, 96.390, 1789.0, 42.2966
18.636963699, 96.390, 1767.0, 42.0357
18.663224264, 96.390, 1767.0, 42.0357
18.689484830, 96.390, 1796.0, 42.3792
18.715745395, 96.390, 1808.0, 42.5206
18.742005960, 96.390, 1885.0, 43.4166
18.768266526, 96.390, 1813.0, 42.5793
18.794527091, 96.390, 1791.0, 42.3202
18.820787657, 96.390, 1837.0, 42.8602
18.847048222, 96.390, 1812.0, 42.5676
18.873308787, 96.390, 1826.0, 42.7317
18.899569353, 96.390, 1835.0, 42.8369
18.925829918, 96.390, 2007.0, 44.7996
18.952090483, 96.390, 1989.0, 44.5982
18.978351049, 96.390, 2096.0, 45.7821
19.004611614, 96.390, 2204.0, 46.9468
19.030872179, 96.390, 2321.0, 48.1768
19.057132745, 96.390, 2184.0, 46.7333
19.083393310, 96.390, 2011.0, 44.8442
19.109653875, 96.390, 1827.0, 42.7434
19.135914441, 96.390, 1716.0, 41.4246
19.162175006, 96.390, 1885.0, 43.4166
19.188435572, 96.390, 1779.0, 42.1782
19.214696137, 96.390, 1803.0, 42.4617
19.240956702, 96.390, 1874.0, 43.2897
19.267217268, 96.390, 1841.0, 42.9069
19.293477833, 96.390, 1864.0, 43.1741
19.319738398, 96.390, 1925.0, 43.8748
19.345998964, 96.390, 2012.0, 44.8553
19.372259529, 96.390, 2083.0, 45.6399
19.398520094, 96.390, 2259.0, 47.5289
19.424780660, 96.390, 2422.0, 49.2138
19.451041225, 96.390, 2713.0, 52.0865
19.477301790, 96.390, 3021.0, 54.9636
19.503562356, 96.390, 3193.0, 56.5066
19.529822921, 96.390, 3203.0, 56.5951
19.556083486, 96.390, 2906.0, 53.9073
19.582344052, 96.390, 2522.0, 50.2195
19.608604617, 96.390, 2238.0, 47.3075
19.634865183, 96.390, 2129.0, 46.1411
19.661125748, 96.390, 2149.0, 46.3573
19.687386313, 96.390, 2359.0, 48.5695
19.713646879, 96.390, 2884.0, 53.7029
19.739907444, 96.390, 3337.0, 57.7668
19.766168009, 96.390, 3604.0, 60.0333
19.792428575, 96.390, 4501.0, 67.0895
19.818689140, 96.390, 5652.0, 75.1798
19.844949705, 96.390, 4827.0, 69.4766
19.871210271, 96.390, 3859.0, 62.1208
19.897470836, 96.390, 3113.0, 55.7943
19.923731401, 96.390, 2626.0, 51.2445
19.949991967, 96.390, 2808.0, 52.9906
19.976252532, 96.390, 2974.0, 54.5344
20.002513097, 96.390, 3210.0, 56.6569
20.028773663, 96.390, 3071.0, 55.4166
20.055034228, 96.390, 2697.0, 51.9326
20.081294794, 96.390, 2424.0, 49.2341
20.107555359, 96.390, 2166.0, 46.5403
20.133815924, 96.390, 2095.0, 45.7712
20.160076490, 96.390, 2005.0, 44.7772
20.186337055, 96.390, 2022.0, 44.9667
20.212597620, 96.390, 2089.0, 45.7056
20.238858186, 96.390, 2051.0, 45.2880
20.265118751, 96.390, 2178.0, 46.6690
20.291379316, 96.390, 2306.0, 48.0208
20.317639882, 96.390, 2447.0, 49.4672
20.343900447, 96.390, 2666.0, 51.6333
20.370161012, 96.390, 2991.0, 54.6900
20.396421578, 96.390, 3568.0, 59.7327
20.422682143, 96.390, 4587.0, 67.7274
20.448942709, 96.390, 5560.0, 74.5654
20.475203274, 96.390, 5230.0, 72.3187
20.501463839, 96.390, 4325.0, 65.7647
20.527724405, 96.390, 3812.0, 61.7414
20.553984970, 96.390, 3267.0, 57.1577
20.580245535, 96.390, 3524.0, 59.3633
20.606506101, 96.390, 4237.0, 65.0922
20.632766666, 96.390, 4972.0, 70.5124
20.659027231, 96.390, 5504.0, 74.1889
20.685287797, 96.390, 5611.0, 74.9066
20.711548362, 96.390, 5938.0, 77.0584
20.737808927, 96.390, 6030.0, 77.6531
20.764069493, 96.390, 5395.0, 73.4507
20.790330058, 96.390, 4450.0, 66.7083
20.816590623, 96.390, 3603.0, 60.0250
20.842851189, 96.390, 2841.0, 53.3010
20.869111754, 96.390, 2447.0, 49.4672
20.895372320, 96.390, 2249.0, 47.4236
20.921632885, 96.390, 2321.0, 48.1768
20.947893450, 96.390, 2237.0, 47.2969
20.974154016, 96.390, 2228.0, 47.2017
21.000414581, 96.390, 2507.0, 50.0700
21.026675146, 96.390, 2573.0, 50.7247
21.052935712, 96.390, 2517.0, 50.1697
21.079196277, 96.390, 2225.0, 47.1699
21.105456842, 96.390, 2195.0, 46.8508
21.131717408, 96.390, 2015.0, 44.8888
21.157977973, 96.390, 1954.0, 44.2041
21.184238538, 96.390, 1958.0, 44.2493
21.210499104, 96.390, 1985.0, 44.5533
21.236759669, 96.390, 1914.0, 43.7493
21.263020235, 96.390, 2006.0, 44.7884
21.289280800, 96.390, 1944.0, 44.0908
21.315541365, 96.390, 1934.0, 43.9773
21.341801931, 96.390, 1941.0, 44.0568
21.368062496, 96.390, 1968.0, 44.3621
21.394323061, 96.390, 1920.0, 43.8178
21.420583627, 96.390, 1980.0, 44.4972
21.446844192, 96.390, 1946.0, 44.1135
21.473104757, 96.390, 1938.0, 44.0227
21.499365323, 96.390, 1952.0, 44.1814
21.525625888, 96.390, 2024.0, 44.9889
21.551886453, 96.390, 1997.0, 44.6878
21.578147019, 96.390, 2031.0, 45.0666
21.604407584, 96.390, 1962.0, 44.2945
21.630668149, 96.390, 2097.0, 45.7930
21.656928715, 96.390, 2271.0, 47.6550
21.683189280, 96.390, 2435.0, 49.3457
21.709449846, 96.390, 2455.0, 49.5480
21.735710411, 96.390, 2690.0, 51.8652
21.761970976, 96.390, 2924.0, 54.0740
21.788231542, 96.390, 2784.0, 52.7636
21.814492107, 96.390, 2468.0, 49.6790
21.840752672, 96.390, 2261.0, 47.5500
21.867013238, 96.390, 2048.0, 45.2548
21.893273803, 96.390, 2002.0, 44.7437
21.919534368, 96.390, 2036.0, 45.1221
21.945794934, 96.390, 1935.0, 43.9886
21.972055499, 96.390, 2051.0, 45.2880
21.998316064, 96.390, 2016.0, 44.8999
22.024576630, 96.390, 2048.0, 45.2548
22.050837195, 96.390, 2093.0, 45.7493
22.077097761, 96.390, 2168.0, 46.5618
22.103358326, 96.390, 2104.0, 45.8694
22.129618891, 96.390, 2048.0, 45.2548
22.155879457, 96.390, 2020.0, 44.9444
22.182140022, 96.390, 2069.0, 45.4863
22.208400587, 96.390, 2106.0, 45.8912
22.234661153, 96.390, 2156.0, 46.4327
22.260921718, 96.390, 2128.0, 46.1303
22.287182283, 96.390, 2096.0, 45.7821
22.313442849, 96.390, 2168.0, 46.5618
22.339703414, 96.390, 2204.0, 46.9468
22.365963979, 96.390, 2229.0, 47.2123
22.392224545, 96.390, 2203.0, 46.9361
22.418485110, 96.390, 2220.0, 47.1169
22.444745675, 96.390, 2207.0, 46.9787
22.471006241, 96.390, 2322.0, 48.1871
22.497266806, 96.390, 2424.0, 49.2341
22.523527372, 96.390, 2491.0, 49.9099
22.549787937, 96.390, 2568.0, 50.6754
22.576048502, 96.390, 2502.0, 50.0200
22.602309068, 96.390, 2600.0, 50.9902
22.628569633, 96.390, 2669.0, 51.6624
22.654830198, 96.390, 2452.0, 49.5177
22.681090764, 96.390, 2431.0, 49.3052
22.707351329, 96.390, 2343.0, 48.4045
22.733611894, 96.390, 2355.0, 48.5283
22.759872460, 96.390, 2316.0, 48.1248
22.786133025, 96.390, 2348.0, 48.4562
22.812393590, 96.390, 2345.0, 48.4252
22.838654156, 96.390, 2555.0, 50.5470
22.864914721, 96.390, 2719.0, 52.1440
22.891175287, 96.390, 2601.0, 51.0000
22.917435852, 96.390, 2567.0, 50.6656
22.943696417, 96.390, 2494.0, 49.9400
22.969956983, 96.390, 2434.0, 49.3356
22.996217548, 96.390, 2315.0, 48.1144
23.022478113, 96.390, 2378.0, 48.7647
23.048738679, 96.390, 2447.0, 49.4672
23.074999244, 96.390, 2430.0, 49.2950
23.101259809, 96.390, 2433.0, 49.3254
23.127520375, 96.390, 2568.0, 50.6754
23.153780940, 96.390, 2545.0, 50.4480
23.180041505, 96.390, 2605.0, 51.0392
23.206302071, 96.390, 2522.0, 50.2195
23.232562636, 96.390, 2530.0, 50.2991
23.258823201, 96.390, 2445.0, 49.4469
23.285083767, 96.390, 2479.0, 49.7896
23.311344332, 96.390, 2349.0, 48.4665
23.337604898, 96.390, 2453.0, 49.5278
23.363865463, 96.390, 2447.0, 49.4672
23.390126028, 96.390, 2451.0, 49.5076
23.416386594, 96.390, 2550.0, 50.4975
23.442647159, 96.390, 2725.0, 52.2015
23.468907724, 96.390, 2995.0, 54.7266
23.495168290, 96.390, 3344.0, 57.8273
23.521428855, 96.390, 3902.0, 62.4660
23.547689420, 96.390, 4371.0, 66.1135
23.573949986, 96.390, 4080.0, 63.8749
23.600210551, 96.390, 3521.0, 59.3380
23.626471116, 96.390, 2994.0, 54.7175
23.652731682, 96.390, 2618.0, 51.1664
23.678992247, 96.390, 2448.0, 49.4773
23.705252813, 96.390, 2324.0, 48.2079
23.731513378, 96.390, 2388.0, 48.8672
23.757773943, 96.390, 2263.0, 47.5710
23.784034509, 96.390, 2316.0, 48.1248
23.810295074, 96.390, 2336.0, 48.3322
23.836555639, 96.390, 2354.0, 48.5180
23.862816205, 96.390, 2250.0, 47.4342
23.889076770, 96.390, 2218.0, 47.0956
23.915337335, 96.390, 2283.0, 47.7807
23.941597901, 96.390, 2297.0, 47.9270
23.967858466, 96.390, 2239.0, 47.3181
23.994119031, 96.390, 2294.0, 47.8957
24.020379597, 96.390, 2270.0, 47.6445
24.046640162, 96.390, 2246.0, 47.3920
24.072900727, 96.390, 2334.0, 48.3115
24.099161293, 96.390, 2430.0, 49.2950
24.125421858, 96.390, 2700.0, 51.9615
24.151682424, 96.390, 2715.0, 52.1057
24.177942989, 96.390, 2851.0, 53.3948
24.204203554, 96.390, 3278.0, 57.2538
24.230464120, 96.390, 3686.0, 60.7124
24.256724685, 96.390, 4017.0, 63.3798
24.282985250, 96.390, 4277.0, 65.3988
24.309245816, 96.390, 3900.0, 62.4500
24.335506381, 96.390, 3428.0, 58.5491
24.361766946, 96.390, 3545.0, 59.5399
24.388027512, 96.390, 2851.0, 53.3948
24.414288077, 96.390, 2522.0, 50.2195
24.440548642, 96.390, 2506.0, 50.0600
24.466809208, 96.390, 2384.0, 48.8262
24.493069773, 96.390, 2247.0, 47.4025
24.519330338, 96.390, 2487.0, 49.8698
24.545590904, 96.390, 2857.0, 53.4509
24.571851469, 96.390, 3300.0, 57.4456
24.598112035, 96.390, 3370.0, 58.0517
24.624372600, 96.390, 2939.0, 54.2125
24.650633165, 96.390, 2640.0, 51.3809
24.676893731, 96.390, 2379.0, 48.7750
24.703154296, 96.390, 1955.0, 44.2154
24.729414861, 96.390, 1929.0, 43.9204
24.755675427, 96.390, 1904.0, 43.6348
24.781935992, 96.390, 1919.0, 43.8064
24.808196557, 96.390, 1859.0, 43.1161
24.834457123, 96.390, 1790.0, 42.3084
24.860717688, 96.390, 1843.0, 42.9302
24.886978253, 96.390, 1825.0, 42.7200
24.913238819, 96.390, 1729.0, 41.5812
24.939499384, 96.390, 1884.0, 43.4051
24.965759950, 96.390, 1901.0, 43.6005
24.992020515, 96.390, 1946.0, 44.1135
25.018281080, 96.390, 2022.0, 44.9667
25.044541646, 96.390, 2117.0, 46.0109
25.070802211, 96.390, 2163.0, 46.5081
25.097062776, 96.390, 1971.0, 44.3959
25.123323342, 96.390, 1950.0, 44.1588
25.149583907, 96.390, 1871.0, 43.2551
25.175844472, 96.390, 1754.0, 41.8808
25.202105038, 96.390, 1755.0, 41.8927
25.228365603, 96.390, 1830.0, 42.7785
25.254626168, 96.390, 1745.0, 41.7732
25.280886734, 96.390, 1873.0, 43.2782
25.307147299, 96.390, 2029.0, 45.0444
25.333407864, 96.390, 2096.0, 45.7821
25.359668430, 96.390, 2351.0, 48.4871
25.385928995, 96.390, 2920.0, 54.0370
25.412189561, 96.390, 3416.0, 58.4466
25.438450126, 96.390, 4082.0, 63.8905
25.464710691, 96.390, 4084.0, 63.9062
25.490971257, 96.390, 3442.0, 58.6686
25.517231822, 96.390, 2978.0, 54.5711
25.543492387, 96.390, 2516.0, 50.1597
25.569752953, 96.390, 2043.0, 45.1996
25.596013518, 96.390, 1906.0, 43.6578
25.622274083, 96.390, 1816.0, 42.6146
25.648534649, 96.390, 1771.0, 42.0833
25.674795214, 96.390, 1795.0, 42.3674
25.701055779, 96.390, 1777.0, 42.1545
25.727316345, 96.390, 1786.0, 42.2611
25.753576910, 96.390, 1711.0, 41.3642
25.779837476, 96.390, 1810.0, 42.5441
25.806098041, 96.390, 1940.0, 44.0454
25.832358606, 96.390, 2214.0, 47.0532
25.858619172, 96.390, 2326.0, 48.2286
25.884879737, 96.390, 2408.0, 49.0714
25.911140302, 96.390, 2373.0, 48.7134
25.937400868, 96.390, 2040.0, 45.1664
25.963661433, 96.390, 1980.0, 44.4972
25.989921998, 96.390, 1884.0, 43.4051
26.016182564, 96.390, 1757.0, 41.9166
26.042443129, 96.390, 1850.0, 43.0116
26.068703694, 96.390, 1755.0, 41.8927
26.094964260, 96.390, 1836.0, 42.8486
26.121224825, 96.390, 1747.0, 41.7971
26.147485390, 96.390, 1650.0, 40.6202
26.173745956, 96.390, 1703.0, 41.2674
26.200006521, 96.390, 1711.0, 41.3642
26.226267087, 96.390, 1653.0, 40.6571
26.252527652, 96.390, 1701.0, 41.2432
26.278788217, 96.390, 1675.0, 40.9268
26.305048783, 96.390, 1932.0, 43.9545
26.331309348, 96.390, 1867.0, 43.2088
26.357569913, 96.390, 1873.0, 43.2782
26.383830479, 96.390, 1772.0, 42.0951
26.410091044, 96.390, 1728.0, 41.5692
26.436351609, 96.390, 1680.0, 40.9878
26.462612175, 96.390, 1688.0, 41.0853
26.488872740, 96.390, 1709.0, 41.3401
26.515133305, 96.390, 1679.0, 40.9756
26.541393871, 96.390, 1679.0, 40.9756
26.567654436, 96.390, 1654.0, 40.6694
26.593915002, 96.390, 1626.0, 40.3237
26.620175567, 96.390, 1691.0, 41.1218
26.646436132, 96.390, 1799.0, 42.4146
26.672696698, 96.390, 1797.0, 42.3910
26.698957263, 96.390, 1794.0, 42.3556
26.725217828, 96.390, 1882.0, 43.3820
26.751478394, 96.390, 1772.0, 42.0951
26.777738959, 96.390, 1734.0, 41.6413
26.803999524, 96.390, 1731.0, 41.6053
26.830260090, 96.390, 1701.0, 41.2432
26.856520655, 96.390, 1639.0, 40.4846
26.882781220, 96.390, 1683.0, 41.0244
26.909041786, 96.390, 1770.0, 42.0714
26.935302351, 96.390, 1901.0, 43.6005
26.961562916, 96.390, 1919.0, 43.8064
26.987823482, 96.390, 1960.0, 44.2719
27.014084047, 96.390, 1957.0, 44.2380
27.040344613, 96.390, 2021.0, 44.9555
27.066605178, 96.390, 2017.0, 44.9110
27.092865743, 96.390, 1950.0, 44.1588
27.119126309, 96.390, 2070.0, 45.4973
27.145386874, 96.390, 2129.0, 46.1411
27.171647439, 96.390, 2434.0, 49.3356
27.197908005, 96.390, 2549.0, 50.4876
27.224168570, 96.390, 2662.0, 51.5946
27.250429135, 96.390, 2567.0, 50.6656
27.276689701, 96.390, 2557.0, 50.5668
27.302950266, 96.390, 2483.0, 49.8297
27.329210831, 96.390, 2608.0, 51.0686
27.355471397, 96.390, 2951.0, 54.3231
27.381731962, 96.390, 2835.0, 53.2447
27.407992528, 96.390, 2482.0, 49.8197
27.434253093, 96.390, 2317.0, 48.1352
27.460513658, 96.390, 2197.0, 46.8722
27.486774224, 96.390, 1784.0, 42.2374
27.513034789, 96.390, 1709.0, 41.3401
27.539295354, 96.390, 1722.0, 41.4970
27.565555920, 96.390, 1708.0, 41.3280
27.591816485, 96.390, 1811.0, 42.5558
27.618077050, 96.390, 1945.0, 44.1022
27.644337616, 96.390, 2177.0, 46.6583
27.670598181, 96.390, 2583.0, 50.8232
27.696858746, 96.390, 2820.0, 53.1037
27.723119312, 96.390, 3217.0, 56.7186
27.749379877, 96.390, 2894.0, 53.7959
27.775640442, 96.390, 2482.0, 49.8197
27.801901008, 96.390, 2426.0, 49.2544
27.828161573, 96.390, 2339.0, 48.3632
27.854422139, 96.390, 2222.0, 47.1381
27.880682704, 96.390, 2269.0, 47.6340
27.906943269, 96.390, 1999.0, 44.7102
27.933203835, 96.390, 1979.0, 44.4860
27.959464400, 96.390, 1813.0, 42.5793
27.985724965, 96.390, 1753.0, 41.8688
28.011985531, 96.390, 1873.0, 43.2782
28.038246096, 96.390, 1822.0, 42.6849
28.064506661, 96.390, 1785.0, 42.2493
28.090767227, 96.390, 1768.0, 42.0476
28.117027792, 96.390, 1755.0, 41.8927
28.143288357, 96.390, 1852.0, 43.0349
28.169548923, 96.390, 1895.0, 43.5316
28.195809488, 96.390, 1818.0, 42.6380
28.222070054, 96.390, 2033.0, 45.0888
28.248330619, 96.390, 2235.0, 47.2758
28.274591184, 96.390, 2292.0, 47.8748
28.300851750, 96.390, 2258.0, 47.5184
28.327112315, 96.390, 2096.0, 45.7821
28.353372880, 96.390, 2064.0, 45.4313
28.379633446, 96.390, 1897.0, 43.5546
28.405894011, 96.390, 1791.0, 42.3202
28.432154576, 96.390, 1719.0, 41.4608
28.458415142, 96.390, 1731.0, 41.6053
28.484675707, 96.390, 1835.0, 42.8369
28.510936272, 96.390, 1842.0, 42.9185
28.537196838, 96.390, 1995.0, 44.6654
28.563457403, 96.390, 1966.0, 44.3396
28.589717968, 96.390, 1966.0, 44.3396
28.615978534, 96.390, 1846.0, 42.9651
28.642239099, 96.390, 1835.0, 42.8369
28.668499665, 96.390, 1801.0, 42.4382
28.694760230, 96.390, 1718.0, 41.4488
28.721020795, 96.390, 1735.0, 41.6533
28.747281361, 96.390, 1844.0, 42.9418
28.773541926, 96.390, 1878.0, 43.3359
28.799802491, 96.390, 1982.0, 44.5197
28.826063057, 96.390, 1948.0, 44.1362
28.852323622, 96.390, 1847.0, 42.9767
28.878584187, 96.390, 1831.0, 42.7902
28.904844753, 96.390, 1861.0, 43.1393
28.931105318, 96.390, 1920.0, 43.8178
28.957365883, 96.390, 1856.0, 43.0813
28.983626449, 96.390, 1894.0, 43.5201
29.009887014, 96.390, 1996.0, 44.6766
29.036147579, 96.390, 1851.0, 43.0232
29.062408145, 96.390, 1963.0, 44.3058
29.088668710, 96.390, 2168.0, 46.5618
29.114929276, 96.390, 2209.0, 47.0000
29.141189841, 96.390, 2290.0, 47.8539
29.167450406, 96.390, 2212.0, 47.0319
29.193710972, 96.390, 2298.0, 47.9375
29.219971537, 96.390, 2062.0, 45.4093
29.246232102, 96.390, 1840.0, 42.8952
29.272492668, 96.390, 1888.0, 43.4511
29.298753233, 96.390, 1818.0, 42.6380
29.325013798, 96.390, 1761.0, 41.9643
29.351274364, 96.390, 1724.0, 41.5211
29.377534929, 96.390, 1742.0, 41.7373
29.403795494, 96.390, 1809.0, 42.5323
29.430056060, 96.390, 1849.0, 43.0000
29.456316625, 96.390, 1775.0, 42.1307
29.482577191, 96.390, 1855.0, 43.0697
29.508837756, 96.390, 1796.0, 42.3792
29.535098321, 96.390, 1699.0, 41.2189
29.561358887, 96.390, 1748.0, 41.8091
29.587619452, 96.390, 1739.0, 41.7013
29.613880017, 96.390, 1906.0, 43.6578
29.640140583, 96.390, 1910.0, 43.7035
29.666401148, 96.390, 1909.0, 43.6921
29.692661713, 96.390, 1936.0, 44.0000
29.718922279, 96.390, 1936.0, 44.0000
29.745182844, 96.390, 1801.0, 42.4382
29.771443409, 96.390, 1825.0, 42.7200
29.797703975, 96.390, 1767.0, 42.0357
29.823964540, 96.390, 1885.0, 43.4166
29.850225105, 96.390, 1888.0, 43.4511
29.876485671, 96.390, 1933.0, 43.9659
29.902746236, 96.390, 1786.0, 42.2611
29.929006802, 96.390, 1889.0, 43.4626
29.955267367, 96.390, 1852.0, 43.0349
29.981527932, 96.390, 1698.0, 41.2068
30.007788498, 96.390, 1719.0, 41.4608
30.034049063, 96.390, 1711.0, 41.3642
30.060309628, 96.390, 1737.0, 41.6773
30.086570194, 96.390, 1662.0, 40.7676
30.112830759, 96.390, 1725.0, 41.5331
30.139091324, 96.390, 1650.0, 40.6202
30.165351890, 96.390, 1706.0, 41.3038
30.191612455, 96.390, 1628.0, 40.3485
30.217873020, 96.390, 1712.0, 41.3763
30.244133586, 96.390, 1747.0, 41.7971
30.270394151, 96.390, 1786.0, 42.2611
30.296654717, 96.390, 1670.0, 40.8656
30.322915282, 96.390, 1760.0, 41.9524
30.349175847, 96.390, 1704.0, 41.2795
30.375436413, 96.390, 1748.0, 41.8091
30.401696978, 96.390, 1762.0, 41.9762
30.427957543, 96.390, 1988.0, 44.5870
30.454218109, 96.390, 2245.0, 47.3814
30.480478674, 96.390, 2594.0, 50.9313
30.506739239, 96.390, 2558.0, 50.5767
30.532999805, 96.390, 2684.0, 51.8073
30.559260370, 96.390, 2790.0, 52.8205
30.585520935, 96.390, 2569.0, 50.6853
30.611781501, 96.390, 2556.0, 50.5569
30.638042066, 96.390, 2755.0, 52.4881
30.664302631, 96.390, 3037.0, 55.1090
30.690563197, 96.390, 3545.0, 59.5399
30.716823762, 96.390, 4206.0, 64.8537
30.743084328, 96.390, 4809.0, 69.3470
30.769344893, 96.390, 4271.0, 65.3529
30.795605458, 96.390, 3565.0, 59.7076
30.821866024, 96.390, 3460.0, 58.8218
30.848126589, 96.390, 3142.0, 56.0535
30.874387154, 96.390, 2854.0, 53.4228
30.900647720, 96.390, 2448.0, 49.4773
30.926908285, 96.390, 2232.0, 47.2440
30.953168850, 96.390, 2213.0, 47.0425
30.979429416, 96.390, 2189.0, 46.7868
31.005689981, 96.390, 2081.0, 45.6180
31.031950546, 96.390, 2402.0, 49.0102
31.058211112, 96.390, 2410.0, 49.0918
31.084471677, 96.390, 2290.0, 47.8539
31.110732243, 96.390, 2194.0, 46.8402
31.136992808, 96.390, 2267.0, 47.6130
31.163253373, 96.390, 2370.0, 48.6826
31.189513939, 96.390, 2348.0, 48.4562
31.215774504, 96.390, 2570.0, 50.6952
31.242035069, 96.390, 2672.0, 51.6914
31.268295635, 96.390, 2547.0, 50.4678
31.294556200, 96.390, 2422.0, 49.2138
31.320816765, 96.390, 2398.0, 48.9694
31.347077331, 96.390, 2395.0, 48.9387
31.373337896, 96.390, 2459.0, 49.5883
31.399598461, 96.390, 2470.0, 49.6991
31.425859027, 96.390, 2387.0, 48.8569
31.452119592, 96.390, 2440.0, 49.3964
31.478380157, 96.390, 2505.0, 50.0500
31.504640723, 96.390, 2514.0, 50.1398
31.530901288, 96.390, 2513.0, 50.1298
31.557161854, 96.390, 2453.0, 49.5278
31.583422419, 96.390, 2463.0, 49.6286
31.609682984, 96.390, 2565.0, 50.6458
31.635943550, 96.390, 2673.0, 51.7011
31.662204115, 96.390, 3044.0, 55.1725
31.688464680, 96.390, 3627.0, 60.2246
31.714725246, 96.390, 5164.0, 71.8610
31.740985811, 96.390, 7098.0, 84.2496
31.767246376, 96.390, 6383.0, 79.8937
31.793506942, 96.390, 5263.0, 72.5465
31.819767507, 96.390, 4837.0, 69.5485
31.846028072, 96.390, 4102.0, 64.0469
31.872288638, 96.390, 3387.0, 58.1979
31.898549203, 96.390, 2559.0, 50.5866
31.924809769, 96.390, 2655.0, 51.5267
31.951070334, 96.390, 2813.0, 53.0377
31.977330899, 96.390, 3244.0, 56.9561
32.003591465, 96.390, 3591.0, 59.9250
32.029852030, 96.390, 3880.0, 62.2896
32.056112595, 96.390, 4397.0, 66.3099
32.082373161, 96.390, 4797.0, 69.2604
32.108633726, 96.390, 4855.0, 69.6778
32.134894291, 96.390, 4239.0, 65.1076
32.161154857, 96.390, 3756.0, 61.2862
32.187415422, 96.390, 3426.0, 58.5320
32.213675987, 96.390, 2960.0, 54.4059
32.239936553, 96.390, 2506.0, 50.0600
32.266197118, 96.390, 2173.0, 46.6154
32.292457683, 96.390, 2026.0, 45.0111
32.318718249, 96.390, 1930.0, 43.9318
32.344978814, 96.390, 1949.0, 44.1475
32.371239380, 96.390, 1982.0, 44.5197
32.397499945, 96.390, 2142.0, 46.2817
32.423760510, 96.390, 2277.0, 47.7179
32.450021076, 96.390, 2200.0, 46.9042
32.476281641, 96.390, 1925.0, 43.8748
32.502542206, 96.390, 1960.0, 44.2719
32.528802772, 96.390, 1912.0, 43.7264
32.555063337, 96.390, 1670.0, 40.8656
32.581323902, 96.390, 1607.0, 40.0874
32.607584468, 96.390, 1841.0, 42.9069
32.633845033, 96.390, 1903.0, 43.6234
32.660105598, 96.390, 2086.0, 45.6727
32.686366164, 96.390, 2404.0, 49.0306
32.712626729, 96.390, 2612.0, 51.1077
32.738887295, 96.390, 2446.0, 49.4571
32.765147860, 96.390, 2177.0, 46.6583
32.791408425, 96.390, 2147.0, 46.3357
32.817668991, 96.390, 2071.0, 45.5082
32.843929556, 96.390, 1857.0, 43.0929
32.870190121, 96.390, 1737.0, 41.6773
32.896450687, 96.390, 1969.0, 44.3734
32.922711252, 96.390, 2224.0, 47.1593
32.948971817, 96.390, 2612.0, 51.1077
32.975232383, 96.390, 3177.0, 56.3649
33.001492948, 96.390, 3516.0, 59.2959
33.027753513, 96.390, 3098.0, 55.6597
33.054014079, 96.390, 3250.0, 57.0088
33.080274644, 96.390, 3610.0, 60.0833
33.106535209, 96.390, 3608.0, 60.0666
33.132795775, 96.390, 3268.0, 57.1664
33.159056340, 96.390, 3302.0, 57.4630
33.185316906, 96.390, 3434.0, 58.6003
33.211577471, 96.390, 3191.0, 56.4889
33.237838036, 96.390, 2777.0, 52.6972
33.264098602, 96.390, 2836.0, 53.2541
33.290359167, 96.390, 2890.0, 53.7587
33.316619732, 96.390, 2678.0, 51.7494
33.342880298, 96.390, 2630.0, 51.2835
33.369140863, 96.390, 2676.0, 51.7301
33.395401428, 96.390, 2842.0, 53.3104
33.421661994, 96.390, 3415.0, 58.4380
33.447922559, 96.390, 4420.0, 66.4831
33.474183124, 96.390, 5209.0, 72.1734
33.500443690, 96.390, 5440.0, 73.7564
33.526704255, 96.390, 4627.0, 68.0221
33.552964820, 96.390, 3675.0, 60.6218
33.579225386, 96.390, 3555.0, 59.6238
33.605485951, 96.390, 2851.0, 53.3948
33.631746517, 96.390, 2105.0, 45.8803
33.658007082, 96.390, 1758.0, 41.9285
33.684267647, 96.390, 1710.0, 41.3521
33.710528213, 96.390, 1581.0, 39.7618
33.736788778, 96.390, 1666.0, 40.8167
33.763049343, 96.390, 1730.0, 41.5933
33.789309909, 96.390, 1763.0, 41.9881
33.815570474, 96.390, 1896.0, 43.5431
33.841831039, 96.390, 1964.0, 44.3170
33.868091605, 96.390, 2212.0, 47.0319
33.894352170, 96.390, 2627.0, 51.2543
33.920612735, 96.390, 3005.0, 54.8179
33.946873301, 96.390, 3201.0, 56.5774
33.973133866, 96.390, 3423.0, 58.5064
33.999394432, 96.390, 3760.0, 61.3188
34.025654997, 96.390, 3331.0, 57.7148
34.051915562, 96.390, 2803.0, 52.9434
34.078176128, 96.390, 2829.0, 53.1883
34.104436693, 96.390, 2603.0, 51.0196
34.130697258, 96.390, 2196.0, 46.8615
34.156957824, 96.390, 2134.0, 46.1952
34.183218389, 96.390, 2067.0, 45.4643
34.209478954, 96.390, 2064.0, 45.4313
34.235739520, 96.390, 2212.0, 47.0319
34.262000085, 96.390, 2333.0, 48.3011
34.288260650, 96.390, 2467.0, 49.6689
34.314521216, 96.390, 2845.0, 53.3385
34.340781781, 96.390, 2894.0, 53.7959
34.367042346, 96.390, 3100.0, 55.6776
34.393302912, 96.390, 3001.0, 54.7814
34.419563477, 96.390, 2752.0, 52.4595
34.445824043, 96.390, 2785.0, 52.7731
34.472084608, 96.390, 2755.0, 52.4881
34.498345173, 96.390, 2720.0, 52.1536
34.524605739, 96.390, 2587.0, 50.8626
34.550866304, 96.390, 2557.0, 50.5668
34.577126869, 96.390, 2580.0, 50.7937
34.603387435, 96.390, 2652.0, 51.4976
34.629648000, 96.390, 2862.0, 53.4977
34.655908565, 96.390, 2993.0, 54.7083
34.682169131, 96.390, 3365.0, 58.0086
34.708429696, 96.390, 3425.0, 58.5235
34.734690261, 96.390, 3277.0, 57.2451
34.760950827, 96.390, 3293.0, 57.3847
34.787211392, 96.390, 3206.0, 56.6216
34.813471958, 96.390, 3027.0, 55.0182
34.839732523, 96.390, 2878.0, 53.6470
34.865993088, 96.390, 2956.0, 54.3691
34.892253654, 96.390, 2865.0, 53.5257
34.918514219, 96.390, 3233.0, 56.8595
34.944774784, 96.390, 3458.0, 58.8048
34.971035350, 96.390, 3724.0, 61.0246
34.997295915, 96.390, 4120.0, 64.1872
35.023556480, 96.390, 4799.0, 69.2748
35.049817046, 96.390, 5087.0, 71.3232
35.076077611, 96.390, 3953.0, 62.8729
35.102338176, 96.390, 3364.0, 58.0000
35.128598742, 96.390, 3629.0, 60.2412
35.154859307, 96.390, 3175.0, 56.3471
35.181119872, 96.390, 2875.0, 53.6190
35.207380438, 96.390, 2898.0, 53.8331
35.233641003, 96.390, 3163.0, 56.2406
35.259901569, 96.390, 3112.0, 55.7853
35.286162134, 96.390, 2964.0, 54.4426
35.312422699, 96.390, 2720.0, 52.1536
35.338683265, 96.390, 2558.0, 50.5767
35.364943830, 96.390, 2369.0, 48.6724
35.391204395, 96.390, 2000.0, 44.7214
35.417464961, 96.390, 1970.0, 44.3847
35.443725526, 96.390, 1845.0, 42.9535
35.469986091, 96.390, 1769.0, 42.0595
35.496246657, 96.390, 1874.0, 43.2897
35.522507222, 96.390, 1892.0, 43.4971
35.548767787, 96.390, 1912.0, 43.7264
35.575028353, 96.390, 1984.0, 44.5421
35.601288918, 96.390, 2033.0, 45.0888
35.627549484, 96.390, 1970.0, 44.3847
35.653810049, 96.390, 1982.0, 44.5197
35.680070614, 96.390, 2089.0, 45.7056
35.706331180, 96.390, 2158.0, 46.4543
35.732591745, 96.390, 2077.0, 45.5741
35.758852310, 96.390, 2051.0, 45.2880
35.785112876, 96.390, 1983.0, 44.5309
35.811373441, 96.390, 1980.0, 44.4972
35.837634006, 96.390, 1972.0, 44.4072
35.863894572, 96.390, 1890.0, 43.4741
35.890155137, 96.390, 1881.0, 43.3705
35.916415702, 96.390, 1905.0, 43.6463
35.942676268, 96.390, 2040.0, 45.1664
35.968936833, 96.390, 2181.0, 46.7012
35.995197398, 96.390, 2287.0, 47.8226
36.021457964, 96.390, 2109.0, 45.9239
36.047718529, 96.390, 2018.0, 44.9222
36.073979095, 96.390, 1948.0, 44.1362
36.100239660, 96.390, 1802.0, 42.4500
36.126500225, 96.390, 1727.0, 41.5572
36.152760791, 96.390, 1550.0, 39.3700
36.179021356, 96.390, 1590.0, 39.8748
36.205281921, 96.390, 1437.0, 37.9078
36.231542487, 96.390, 1483.0, 38.5097
36.257803052, 96.390, 1524.0, 39.0384
36.284063617, 96.390, 1511.0, 38.8716
36.310324183, 96.390, 1612.0, 40.1497
36.336584748, 96.390, 1800.0, 42.4264
36.362845313, 96.390, 2301.0, 47.9687
36.389105879, 96.390, 2947.0, 54.2863
36.415366444, 96.390, 2983.0, 54.6168
36.441627010, 96.390, 2751.0, 52.4500
36.467887575, 96.390, 2447.0, 49.4672
36.494148140, 96.390, 2364.0, 48.6210
36.520408706, 96.390, 2061.0, 45.3982
36.546669271, 96.390, 1865.0, 43.1856
36.572929836, 96.390, 1509.0, 38.8458
36.599190402, 96.390, 1421.0, 37.6962
36.625450967, 96.390, 1479.0, 38.4578
36.651711532, 96.390, 1565.0, 39.5601
36.677972098, 96.390, 1649.0, 40.6079
36.704232663, 96.390, 1698.0, 41.2068
36.730493228, 96.390, 1646.0, 40.5709
36.756753794, 96.390, 1611.0, 40.1373
36.783014359, 96.390, 1474.0, 38.3927
36.809274924, 96.390, 1526.0, 39.0640
36.835535490, 96.390, 1377.0, 37.1080
36.861796055, 96.390, 1327.0, 36.4280
36.888056621, 96.390, 1259.0, 35.4824
36.914317186, 96.390, 1299.0, 36.0416
36.940577751, 96.390, 1314.0, 36.2491
36.966838317, 96.390, 1227.0, 35.0286
36.993098882, 96.390, 1201.0, 34.6554
37.019359447, 96.390, 1318.0, 36.3043
37.045620013, 96.390, 1282.0, 35.8050
37.071880578, 96.390, 1355.0, 36.8103
37.098141143, 96.390, 1378.0, 37.1214
37.124401709, 96.390, 1397.0, 37.3765
37.150662274, 96.390, 1388.0, 37.2559
37.176922839, 96.390, 1324.0, 36.3868
37.203183405, 96.390, 1368.0, 36.9865
37.229443970, 96.390, 1317.0, 36.2905
37.255704535, 96.390, 1304.0, 36.1109
37.281965101, 96.390, 1265.0, 35.5668
37.308225666, 96.390, 1208.0, 34.7563
37.334486232, 96.390, 1377.0, 37.1080
37.360746797, 96.390, 1282.0, 35.8050
37.387007362, 96.390, 1346.0, 36.6879
37.413267928, 96.390, 1343.0, 36.6470
37.439528493, 96.390, 1504.0, 38.7814
37.465789058, 96.390, 1451.0, 38.0920
37.492049624, 96.390, 1260.0, 35.4965
37.518310189, 96.390, 1382.0, 37.1753
37.544570754, 96.390, 1358.0, 36.8511
37.570831320, 96.390, 1330.0, 36.4692
37.597091885, 96.390, 1314.0, 36.2491
37.623352450, 96.390, 1360.0, 36.8782
37.649613016, 96.390, 1405.0, 37.4833
37.675873581, 96.390, 1607.0, 40.0874
37.702134147, 96.390, 1633.0, 40.4104
37.728394712, 96.390, 1660.0, 40.7431
37.754655277, 96.390, 1833.0, 42.8135
37.780915843, 96.390, 1931.0, 43.9431
37.807176408, 96.390, 2054.0, 45.3211
37.833436973, 96.390, 2175.0, 46.6369
37.859697539, 96.390, 2333.0, 48.3011
37.885958104, 96.390, 2263.0, 47.5710
37.912218669, 96.390, 2020.0, 44.9444
37.938479235, 96.390, 1840.0, 42.8952
37.964739800, 96.390, 1770.0, 42.0714
37.991000365, 96.390, 1643.0, 40.5339
38.017260931, 96.390, 1500.0, 38.7298
38.043521496, 96.390, 1461.0, 38.2230
38.069782061, 96.390, 1391.0, 37.2961
38.096042627, 96.390, 1433.0, 37.8550
38.122303192, 96.390, 1529.0, 39.1024
38.148563758, 96.390, 1707.0, 41.3159
38.174824323, 96.390, 1758.0, 41.9285
38.201084888, 96.390, 1892.0, 43.4971
38.227345454, 96.390, 1914.0, 43.7493
38.253606019, 96.390, 1877.0, 43.3244
38.279866584, 96.390, 2006.0, 44.7884
38.306127150, 96.390, 2244.0, 47.3709
38.332387715, 96.390, 2492.0, 49.9199
38.358648280, 96.390, 2547.0, 50.4678
38.384908846, 96.390, 2005.0, 44.7772
38.411169411, 96.390, 1763.0, 41.9881
38.437429976, 96.390, 1920.0, 43.8178
38.463690542, 96.390, 1964.0, 44.3170
38.489951107, 96.390, 1833.0, 42.8135
38.516211673, 96.390, 1636.0, 40.4475
38.542472238, 96.390, 1547.0, 39.3319
38.568732803, 96.390, 1524.0, 39.0384
38.594993369, 96.390, 1541.0, 39.2556
38.621253934, 96.390, 1611.0, 40.1373
38.647514499, 96.390, 1570.0, 39.6232
38.673775065, 96.390, 1682.0, 41.0122
38.700035630, 96.390, 1616.0, 40.1995
38.726296195, 96.390, 1787.0, 42.2729
38.752556761, 96.390, 1717.0, 41.4367
38.778817326, 96.390, 1692.0, 41.1339
38.805077891, 96.390, 1750.0, 41.8330
38.831338457, 96.390, 1764.0, 42.0000
38.857599022, 96.390, 1659.0, 40.7308
38.883859587, 96.390, 1555.0, 39.4335
38.910120153, 96.390, 1574.0, 39.6737
38.936380718, 96.390, 1614.0, 40.1746
38.962641284, 96.390, 1635.0, 40.4351
38.988901849, 96.390, 1510.0, 38.8587
39.015162414, 96.390, 1561.0, 39.5095
39.041422980, 96.390, 1532.0, 39.1408
39.067683545, 96.390, 1532.0, 39.1408
39.093944110, 96.390, 1520.0, 38.9872
39.120204676, 96.390, 1539.0, 39.2301
39.146465241, 96.390, 1602.0, 40.0250
39.172725806, 96.390, 1717.0, 41.4367
39.198986372, 96.390, 1880.0, 43.3590
39.225246937, 96.390, 2146.0, 46.3249
39.251507502, 96.390, 2264.0, 47.5815
39.277768068, 96.390, 2169.0, 46.5725
39.304028633, 96.390, 2075.0, 45.5522
39.330289199, 96.390, 1923.0, 43.8520
39.356549764, 96.390, 2017.0, 44.9110
39.382810329, 96.390, 2012.0, 44.8553
39.409070895, 96.390, 1834.0, 42.8252
39.435331460, 96.390, 1826.0, 42.7317
39.461592025, 96.390, 1817.0, 42.6263
39.487852591, 96.390, 1743.0, 41.7493
39.514113156, 96.390, 1743.0, 41.7493
39.540373721, 96.390, 1770.0, 42.0714
39.566634287, 96.390, 1762.0, 41.9762
39.592894852, 96.390, 1817.0, 42.6263
39.619155417, 96.390, 1695.0, 41.1704
39.645415983, 96.390, 1672.0, 40.8901
39.671676548, 96.390, 1651.0, 40.6325
39.697937113, 96.390, 1584.0, 39.7995
39.724197679, 96.390, 1720.0, 41.4729
39.750458244, 96.390, 1689.0, 41.0974
39.776718810, 96.390, 1798.0, 42.4028
39.802979375, 96.390, 2177.0, 46.6583
39.829239940, 96.390, 2603.0, 51.0196
39.855500506, 96.390, 2382.0, 48.8057
39.881761071, 96.390, 1991.0, 44.6206
39.908021636, 96.390, 1887.0, 43.4396
39.934282202, 96.390, 2053.0, 45.3100
39.960542767, 96.390, 1859.0, 43.1161
39.986803332, 96.390, 1645.0, 40.5586
40.013063898, 96.390, 1630.0, 40.3733
40.039324463, 96.390, 1553.0, 39.4081
40.065585028, 96.390, 1440.0, 37.9473
40.091845594, 96.390, 1572.0, 39.6485
40.118106159, 96.390, 1666.0, 40.8167
40.144366725, 96.390, 1743.0, 41.7493
40.170627290, 96.390, 1859.0, 43.1161
40.196887855, 96.390, 2065.0, 45.4423
40.223148421, 96.390, 2008.0, 44.8107
40.249408986, 96.390, 1797.0, 42.3910
40.275669551, 96.390, 1576.0, 39.6989
40.301930117, 96.390, 1659.0, 40.7308
40.328190682, 96.390, 1653.0, 40.6571
40.354451247, 96.390, 1574.0, 39.6737
40.380711813, 96.390, 1414.0, 37.6032
40.406972378, 96.390, 1253.0, 35.3977
40.433232943, 96.390, 1235.0, 35.1426
40.459493509, 96.390, 1307.0, 36.1525
40.485754074, 96.390, 1332.0, 36.4966
40.512014639, 96.390, 1363.0, 36.9188
40.538275205, 96.390, 1262.0, 35.5246
40.564535770, 96.390, 1358.0, 36.8511
40.590796336, 96.390, 1374.0, 37.0675
40.617056901, 96.390, 1538.0, 39.2173
40.643317466, 96.390, 1529.0, 39.1024
40.669578032, 96.390, 1442.0, 37.9737
40.695838597, 96.390, 1401.0, 37.4299
40.722099162, 96.390, 1392.0, 37.3095
40.748359728, 96.390, 1339.0, 36.5923
40.774620293, 96.390, 1382.0, 37.1753
40.800880858, 96.390, 1237.0, 35.1710
40.827141424, 96.390, 1206.0, 34.7275
40.853401989, 96.390, 1142.0, 33.7935
40.879662554, 96.390, 1183.0, 34.3948
40.905923120, 96.390, 1106.0, 33.2566
40.932183685, 96.390, 1146.0, 33.8526
40.958444251, 96.390, 1097.0, 33.1210
40.984704816, 96.390, 1224.0, 34.9857
41.010965381, 96.390, 1270.0, 35.6371
41.037225947, 96.390, 1277.0, 35.7351
41.063486512, 96.390, 1266.0, 35.5809
41.089747077, 96.390, 1276.0, 35.7211
41.116007643, 96.390, 1409.0, 37.5366
41.142268208, 96.390, 1315.0, 36.2629
41.168528773, 96.390, 1285.0, 35.8469
41.194789339, 96.390, 1296.0, 36.0000
41.221049904, 96.390, 1244.0, 35.2704
41.247310469, 96.390, 1297.0, 36.0139
41.273571035, 96.390, 1318.0, 36.3043
41.299831600, 96.390, 1395.0, 37.3497
41.326092165, 96.390, 1665.0, 40.8044
41.352352731, 96.390, 1683.0, 41.0244
41.378613296, 96.390, 1875.0, 43.3013
41.404873862, 96.390, 1901.0, 43.6005
41.431134427, 96.390, 1890.0, 43.4741
41.457394992, 96.390, 1690.0, 41.1096
41.483655558, 96.390, 1595.0, 39.9375
41.509916123, 96.390, 1728.0, 41.5692
41.536176688, 96.390, 1578.0, 39.7240
41.562437254, 96.390, 1494.0, 38.6523
41.588697819, 96.390, 1251.0, 35.3695
41.614958384, 96.390, 1216.0, 34.8712
41.641218950, 96.390, 1253.0, 35.3977
41.667479515, 96.390, 1187.0, 34.4529
41.693740080, 96.390, 1217.0, 34.8855
41.720000646, 96.390, 1177.0, 34.3074
41.746261211, 96.390, 1211.0, 34.7994
41.772521776, 96.390, 1124.0, 33.5261
41.798782342, 96.390, 1102.0, 33.1964
41.825042907, 96.390, 1117.0, 33.4215
41.851303473, 96.390, 1094.0, 33.0757
41.877564038, 96.390, 1039.0, 32.2335
41.903824603, 96.390, 1098.0, 33.1361
41.930085169, 96.390, 1098.0, 33.1361
41.956345734, 96.390, 1053.0, 32.4500
41.982606299, 96.390, 1061.0, 32.5730
42.008866865, 96.390, 1068.0, 32.6803
42.035127430, 96.390, 1085.0, 32.9393
42.061387995, 96.390, 1136.0, 33.7046
42.087648561, 96.390, 1258.0, 35.4683
42.113909126, 96.390, 1618.0, 40.2244
42.140169691, 96.390, 1971.0, 44.3959
42.166430257, 96.390, 2363.0, 48.6107
42.192690822, 96.390, 2378.0, 48.7647
42.218951388, 96.390, 1972.0, 44.4072
42.245211953, 96.390, 1891.0, 43.4856
42.271472518, 96.390, 2076.0, 45.5631
42.297733084, 96.390, 2135.0, 46.2061
42.323993649, 96.390, 1999.0, 44.7102
42.350254214, 96.390, 1598.0, 39.9750
42.376514780, 96.390, 1381.0, 37.1618
42.402775345, 96.390, 1220.0, 34.9285
42.429035910, 96.390, 1262.0, 35.5246
42.455296476, 96.390, 1297.0, 36.0139
42.481557041, 96.390, 1140.0, 33.7639
42.507817606, 96.390, 1130.0, 33.6155
42.534078172, 96.390, 1232.0, 35.0999
42.560338737, 96.390, 1376.0, 37.0945
42.586599302, 96.390, 1433.0, 37.8550
42.612859868, 96.390, 1507.0, 38.8201
42.639120433, 96.390, 1449.0, 38.0657
42.665380999, 96.390, 1506.0, 38.8072
42.691641564, 96.390, 1444.0, 38.0000
42.717902129, 96.390, 1495.0, 38.6652
42.744162695, 96.390, 1761.0, 41.9643
42.770423260, 96.390, 1735.0, 41.6533
42.796683825, 96.390, 1539.0, 39.2301
42.822944391, 96.390, 1345.0, 36.6742
42.849204956, 96.390, 1327.0, 36.4280
42.875465521, 96.390, 1328.0, 36.4417
42.901726087, 96.390, 1187.0, 34.4529
42.927986652, 96.390, 1145.0, 33.8378
42.954247217, 96.390, 1084.0, 32.9242
42.980507783, 96.390, 1063.0, 32.6037
43.006768348, 96.390, 1084.0, 32.9242
43.033028914, 96.390, 1101.0, 33.1813
43.059289479, 96.390, 1163.0, 34.1028
43.085550044, 96.390, 1100.0, 33.1662
43.111810610, 96.390, 1079.0, 32.8481
43.138071175, 96.390, 1027.0, 32.0468
43.164331740, 96.390, 982.0, 31.3369
43.190592306, 96.390, 976.0, 31.2410
43.216852871, 96.390, 999.0, 31.6070
43.243113436, 96.390, 1034.0, 32.1559
43.269374002, 96.390, 992.0, 31.4960
43.295634567, 96.390, 1045.0, 32.3265
43.321895132, 96.390, 1102.0, 33.1964
43.348155698, 96.390, 1050.0, 32.4037
43.374416263, 96.390, 1046.0, 32.3419
43.400676828, 96.390, 995.0, 31.5436
43.426937394, 96.390, 1032.0, 32.1248
43.453197959, 96.390, 1032.0, 32.1248
43.479458525, 96.390, 989.0, 31.4484
43.505719090, 96.390, 904.0, 30.0666
43.531979655, 96.390, 1027.0, 32.0468
43.558240221, 96.390, 1089.0, 33.0000
43.584500786, 96.390, 1107.0, 33.2716
43.610761351, 96.390, 1208.0, 34.7563
43.637021917, 96.390, 1168.0, 34.1760
43.663282482, 96.390, 1118.0, 33.4365
43.689543047, 96.390, 1185.0, 34.4238
43.715803613, 96.390, 1279.0, 35.7631
43.742064178, 96.390, 1370.0, 37.0135
43.768324743, 96.390, 1484.0, 38.5227
43.794585309, 96.390, 1425.0, 37.7492
43.820845874, 96.390, 1487.0, 38.5616
43.847106440, 96.390, 1365.0, 36.9459
43.873367005, 96.390, 1298.0, 36.0278
43.899627570, 96.390, 1336.0, 36.5513
43.925888136, 96.390, 1343.0, 36.6470
43.952148701, 96.390, 1240.0, 35.2136
43.978409266, 96.390, 1126.0, 33.5559
44.004669832, 96.390, 1021.0, 31.9531
44.030930397, 96.390, 1094.0, 33.0757
44.057190962, 96.390, 1053.0, 32.4500
44.083451528, 96.390, 1010.0, 31.7805
44.109712093, 96.390, 1047.0, 32.3574
44.135972658, 96.390, 980.0, 31.3050
44.162233224, 96.390, 1077.0, 32.8177
44.188493789, 96.390, 1123.0, 33.5112
44.214754354, 96.390, 1215.0, 34.8569
44.241014920, 96.390, 1449.0, 38.0657
44.267275485, 96.390, 1725.0, 41.5331
44.293536051, 96.390, 1897.0, 43.5546
44.319796616, 96.390, 1564.0, 39.5474
44.346057181, 96.390, 1441.0, 37.9605
44.372317747, 96.390, 1520.0, 38.9872
44.398578312, 96.390, 1695.0, 41.1704
44.424838877, 96.390, 1640.0, 40.4969
44.451099443, 96.390, 1386.0, 37.2290
44.477360008, 96.390, 1262.0, 35.5246
44.503620573, 96.390, 1243.0, 35.2562
44.529881139, 96.390, 1244.0, 35.2704
44.556141704, 96.390, 1151.0, 33.9264
44.582402269, 96.390, 1100.0, 33.1662
44.608662835, 96.390, 1085.0, 32.9393
44.634923400, 96.390, 1123.0, 33.5112
44.661183966, 96.390, 1169.0, 34.1906
44.687444531, 96.390, 1259.0, 35.4824
44.713705096, 96.390, 1252.0, 35.3836
44.739965662, 96.390, 1473.0, 38.3797
44.766226227, 96.390, 1468.0, 38.3145
44.792486792, 96.390, 1563.0, 39.5348
44.818747358, 96.390, 1611.0, 40.1373
44.845007923, 96.390, 1575.0, 39.6863
44.871268488, 96.390, 1522.0, 39.0128
44.897529054, 96.390, 1603.0, 40.0375
44.923789619, 96.390, 1511.0, 38.8716
44.950050184, 96.390, 1389.0, 37.2693
44.976310750, 96.390, 1304.0, 36.1109
45.002571315, 96.390, 1255.0, 35.4260
45.028831880, 96.390, 1276.0, 35.7211
45.055092446, 96.390, 1295.0, 35.9861
45.081353011, 96.390, 1346.0, 36.6879
45.107613577, 96.390, 1511.0, 38.8716
45.133874142, 96.390, 1544.0, 39.2938
45.160134707, 96.390, 1692.0, 41.1339
45.186395273, 96.390, 1744.0, 41.7612
45.212655838, 96.390, 1495.0, 38.6652
45.238916403, 96.390, 1551.0, 39.3827
45.265176969, 96.390, 1555.0, 39.4335
45.291437534, 96.390, 1556.0, 39.4462
45.317698099, 96.390, 1620.0, 40.2492
45.343958665, 96.390, 1532.0, 39.1408
45.370219230, 96.390, 1537.0, 39.2046
45.396479795, 96.390, 1452.0, 38.1051
45.422740361, 96.390, 1450.0, 38.0789
45.449000926, 96.390, 1535.0, 39.1791
45.475261492, 96.390, 1546.0, 39.3192
45.501522057, 96.390, 1575.0, 39.6863
45.527782622, 96.390, 1584.0, 39.7995
45.554043188, 96.390, 1480.0, 38.4708
45.580303753, 96.390, 1662.0, 40.7676
45.606564318, 96.390, 1610.0, 40.1248
45.632824884, 96.390, 1628.0, 40.3485
45.659085449, 96.390, 1632.0, 40.3980
45.685346014, 96.390, 1541.0, 39.2556
45.711606580, 96.390, 1486.0, 38.5487
45.737867145, 96.390, 1452.0, 38.1051
45.764127710, 96.390, 1589.0, 39.8623
45.790388276, 96.390, 1485.0, 38.5357
45.816648841, 96.390, 1387.0, 37.2424
45.842909406, 96.390, 1262.0, 35.5246
45.869169972, 96.390, 1358.0, 36.8511
45.895430537, 96.390, 1272.0, 35.6651
45.921691103, 96.390, 1289.0, 35.9026
45.947951668, 96.390, 1251.0, 35.3695
45.974212233, 96.390, 1185.0, 34.4238
46.000472799, 96.390, 1245.0, 35.2846
46.026733364, 96.390, 1263.0, 35.5387
46.052993929, 96.390, 1319.0, 36.3180
46.079254495, 96.390, 1325.0, 36.4005
46.105515060, 96.390, 1468.0, 38.3145
46.131775625, 96.390, 1536.0, 39.1918
46.158036191, 96.390, 1758.0, 41.9285
46.184296756, 96.390, 1768.0, 42.0476
46.210557321, 96.390, 2022.0, 44.9667
46.236817887, 96.390, 2201.0, 46.9148
46.263078452, 96.390, 2091.0, 45.7275
46.289339017, 96.390, 2126.0, 46.1086
46.315599583, 96.390, 2219.0, 47.1063
46.341860148, 96.390, 2283.0, 47.7807
46.368120714, 96.390, 2137.0, 46.2277
46.394381279, 96.390, 1991.0, 44.6206
46.420641844, 96.390, 2195.0, 46.8508
46.446902410, 96.390, 2328.0, 48.2494
46.473162975, 96.390, 2333.0, 48.3011
46.499423540, 96.390, 2147.0, 46.3357
46.525684106, 96.390, 1711.0, 41.3642
46.551944671, 96.390, 1780.0, 42.1900
46.578205236, 96.390, 1828.0, 42.7551
46.604465802, 96.390, 1855.0, 43.0697
46.630726367, 96.390, 1861.0, 43.1393
46.656986932, 96.390, 1856.0, 43.0813
46.683247498, 96.390, 1927.0, 43.8976
46.709508063, 96.390, 2225.0, 47.1699
46.735768629, 96.390, 2205.0, 46.9574
46.762029194, 96.390, 2011.0, 44.8442
46.788289759, 96.390, 1800.0, 42.4264
46.814550325, 96.390, 1689.0, 41.0974
46.840810890, 96.390, 1627.0, 40.3361
46.867071455, 96.390, 1539.0, 39.2301
46.893332021, 96.390, 1482.0, 38.4968
46.919592586, 96.390, 1340.0, 36.6060
46.945853151, 96.390, 1173.0, 34.2491
46.972113717, 96.390, 1317.0, 36.2905
46.998374282, 96.390, 1248.0, 35.3270
47.024634847, 96.390, 1335.0, 36.5377
47.050895413, 96.390, 1246.0, 35.2987
47.077155978, 96.390, 1244.0, 35.2704
47.103416543, 96.390, 1290.0, 35.9166
47.129677109, 96.390, 1250.0, 35.3553
47.155937674, 96.390, 1324.0, 36.3868
47.182198240, 96.390, 1287.0, 35.8748
47.208458805, 96.390, 1397.0, 37.3765
47.234719370, 96.390, 1207.0, 34.7419
47.260979936, 96.390, 1209.0, 34.7707
47.287240501, 96.390, 1276.0, 35.7211
47.313501066, 96.390, 1294.0, 35.9722
47.339761632, 96.390, 1229.0, 35.0571
47.366022197, 96.390, 1215.0, 34.8569
47.392282762, 96.390, 1217.0, 34.8855
47.418543328, 96.390, 1146.0, 33.8526
47.444803893, 96.390, 1168.0, 34.1760
47.471064458, 96.390, 1168.0, 34.1760
47.497325024, 96.390, 1190.0, 34.4964
47.523585589, 96.390, 1201.0, 34.6554
47.549846155, 96.390, 1260.0, 35.4965
47.576106720, 96.390, 1223.0, 34.9714
47.602367285, 96.390, 1223.0, 34.9714
47.628627851, 96.390, 1206.0, 34.7275
47.654888416, 96.390, 1214.0, 34.8425
47.681148981, 96.390, 1134.0, 33.6749
47.707409547, 96.390, 1108.0, 33.2866
47.733670112, 96.390, 1080.0, 32.8634
47.759930677, 96.390, 1087.0, 32.9697
47.786191243, 96.390, 1004.0, 31.6860
47.812451808, 96.390, 1058.0, 32.5269
47.838712373, 96.390, 1043.0, 32.2955
47.864972939, 96.390, 1097.0, 33.1210
47.891233504, 96.390, 1137.0, 33.7194
47.917494069, 96.390, 1111.0, 33.3317
47.943754635, 96.390, 1143.0, 33.8083
47.970015200, 96.390, 1197.0, 34.5977
47.996275766, 96.390, 1141.0, 33.7787
48.022536331, 96.390, 1170.0, 34.2053
48.048796896, 96.390, 1182.0, 34.3802
48.075057462, 96.390, 1284.0, 35.8329
48.101318027, 96.390, 1261.0, 35.5106
48.127578592, 96.390, 1309.0, 36.1801
48.153839158, 96.390, 1337.0, 36.5650
48.180099723, 96.390, 1356.0, 36.8239
48.206360288, 96.390, 1204.0, 34.6987
48.232620854, 96.390, 1204.0, 34.6987
48.258881419, 96.390, 1242.0, 35.2420
48.285141984, 96.390, 1257.0, 35.4542
48.311402550, 96.390, 1144.0, 33.8231
48.337663115, 96.390, 1126.0, 33.5559
48.363923681, 96.390, 1100.0, 33.1662
48.390184246, 96.390, 1138.0, 33.7343
48.416444811, 96.390, 1142.0, 33.7935
48.442705377, 96.390, 1227.0, 35.0286
48.468965942, 96.390, 1424.0, 37.7359
48.495226507, 96.390, 1385.0, 37.2156
48.521487073, 96.390, 1372.0, 37.0405
48.547747638, 96.390, 1404.0, 37.4700
48.574008203, 96.390, 1268.0, 35.6090
48.600268769, 96.390, 1398.0, 37.3898
48.626529334, 96.390, 1492.0, 38.6264
48.652789899, 96.390, 1334.0, 36.5240
48.679050465, 96.390, 1248.0, 35.3270
48.705311030, 96.390, 1221.0, 34.9428
48.731571595, 96.390, 1151.0, 33.9264
48.757832161, 96.390, 1153.0, 33.9559
48.784092726, 96.390, 1155.0, 33.9853
48.810353292, 96.390, 1178.0, 34.3220
48.836613857, 96.390, 1130.0, 33.6155
48.862874422, 96.390, 1122.0, 33.4963
48.889134988, 96.390, 1105.0, 33.2415
48.915395553, 96.390, 1107.0, 33.2716
48.941656118, 96.390, 1103.0, 33.2114
48.967916684, 96.390, 1149.0, 33.8969
48.994177249, 96.390, 1071.0, 32.7261
49.020437814, 96.390, 1078.0, 32.8329
49.046698380, 96.390, 1105.0, 33.2415
49.072958945, 96.390, 1090.0, 33.0151
49.099219510, 96.390, 1073.0, 32.7567
49.125480076, 96.390, 1101.0, 33.1813
49.151740641, 96.390, 1205.0, 34.7131
49.178001207, 96.390, 1178.0, 34.3220
49.204261772, 96.390, 1216.0, 34.8712
49.230522337, 96.390, 1038.0, 32.2180
49.256782903, 96.390, 1063.0, 32.6037
49.283043468, 96.390, 1074.0, 32.7719
49.309304033, 96.390, 1011.0, 31.7962
49.335564599, 96.390, 1094.0, 33.0757
49.361825164, 96.390, 1009.0, 31.7648
49.388085729, 96.390, 1118.0, 33.4365
49.414346295, 96.390, 1175.0, 34.2783
49.440606860, 96.390, 1202.0, 34.6699
49.466867425, 96.390, 1250.0, 35.3553
49.493127991, 96.390, 1304.0, 36.1109
49.519388556, 96.390, 1182.0, 34.3802
49.545649121, 96.390, 1151.0, 33.9264
49.571909687, 96.390, 1189.0, 34.4819
49.598170252, 96.390, 1297.0, 36.0139
49.624430818, 96.390, 1328.0, 36.4417
49.650691383, 96.390, 1463.0, 38.2492
49.676951948, 96.390, 1783.0, 42.2256
49.703212514, 96.390, 1876.0, 43.3128
49.729473079, 96.390, 1663.0, 40.7799
49.755733644, 96.390, 1419.0, 37.6696
49.781994210, 96.390, 1452.0, 38.1051
49.808254775, 96.390, 1457.0, 38.1707
49.834515340, 96.390, 1547.0, 39.3319
49.860775906, 96.390, 1322.0, 36.3593
49.887036471, 96.390, 1181.0, 34.3657
49.913297036, 96.390, 1062.0, 32.5883
49.939557602, 96.390, 998.0, 31.5911
49.965818167, 96.390, 950.0, 30.8221
49.992078732, 96.390, 982.0, 31.3369
50.018339298, 96.390, 1002.0, 31.6544
50.044599863, 96.390, 926.0, 30.4302
50.070860429, 96.390, 910.0, 30.1662
50.097120994, 96.390, 924.0, 30.3974
50.123381559, 96.390, 947.0, 30.7734
50.149642125, 96.390, 962.0, 31.0161
50.175902690, 96.390, 1039.0, 32.2335
50.202163255, 96.390, 1078.0, 32.8329
50.228423821, 96.390, 1166.0, 34.1467
50.254684386, 96.390, 1169.0, 34.1906
50.280944951, 96.390, 1161.0, 34.0735
50.307205517, 96.390, 1142.0, 33.7935
50.333466082, 96.390, 1215.0, 34.8569
50.359726647, 96.390, 1108.0, 33.2866
50.385987213, 96.390, 1021.0, 31.9531
50.412247778, 96.390, 1038.0, 32.2180
50.438508344, 96.390, 1038.0, 32.2180
50.464768909, 96.390, 1018.0, 31.9061
50.491029474, 96.390, 943.0, 30.7083
50.517290040, 96.390, 968.0, 31.1127
50.543550605, 96.390, 922.0, 30.3645
50.569811170, 96.390, 927.0, 30.4467
50.596071736, 96.390, 866.0, 29.4279
50.622332301, 96.390, 941.0, 30.6757
50.648592866, 96.390, 897.0, 29.9500
50.674853432, 96.390, 890.0, 29.8329
50.701113997, 96.390, 867.0, 29.4449
50.727374562, 96.390, 863.0, 29.3769
50.753635128, 96.390, 912.0, 30.1993
50.779895693, 96.390, 862.0, 29.3598
50.806156258, 96.390, 851.0, 29.1719
50.832416824, 96.390, 859.0, 29.3087
50.858677389, 96.390, 913.0, 30.2159
50.884937955, 96.390, 960.0, 30.9839
50.911198520, 96.390, 910.0, 30.1662
50.937459085, 96.390, 925.0, 30.4138
50.963719651, 96.390, 924.0, 30.3974
50.989980216, 96.390, 979.0, 31.2890
51.016240781, 96.390, 1133.0, 33.6601
51.042501347, 96.390, 1274.0, 35.6931
51.068761912, 96.390, 1346.0, 36.6879
51.095022477, 96.390, 1228.0, 35.0428
51.121283043, 96.390, 1058.0, 32.5269
51.147543608, 96.390, 1062.0, 32.5883
51.173804173, 96.390, 1136.0, 33.7046
51.200064739, 96.390, 1191.0, 34.5109
51.226325304, 96.390, 1132.0, 33.6452
51.252585870, 96.390, 1042.0, 32.2800
51.278846435, 96.390, 973.0, 31.1929
51.305107000, 96.390, 1010.0, 31.7805
51.331367566, 96.390, 1021.0, 31.9531
51.357628131, 96.390, 966.0, 31.0805
51.383888696, 96.390, 1063.0, 32.6037
51.410149262, 96.390, 1048.0, 32.3728
51.436409827, 96.390, 988.0, 31.4325
51.462670392, 96.390, 975.0, 31.2250
51.488930958, 96.390, 971.0, 31.1609
51.515191523, 96.390, 924.0, 30.3974
51.541452088, 96.390, 1033.0, 32.1403
51.567712654, 96.390, 971.0, 31.1609
51.593973219, 96.390, 957.0, 30.9354
51.620233784, 96.390, 935.0, 30.5778
51.646494350, 96.390, 857.0, 29.2746
51.672754915, 96.390, 812.0, 28.4956
51.699015481, 96.390, 867.0, 29.4449
51.725276046, 96.390, 895.0, 29.9166
51.751536611, 96.390, 836.0, 28.9137
51.777797177, 96.390, 888.0, 29.7993
51.804057742, 96.390, 878.0, 29.6311
51.830318307, 96.390, 927.0, 30.4467
51.856578873, 96.390, 914.0, 30.2324
51.882839438, 96.390, 947.0, 30.7734
51.909100003, 96.390, 966.0, 31.0805
51.935360569, 96.390, 911.0, 30.1828
51.961621134, 96.390, 901.0, 30.0167
51.987881699, 96.390, 958.0, 30.9516
52.014142265, 96.390, 889.0, 29.8161
52.040402830, 96.390, 910.0, 30.1662
52.066663396, 96.390, 891.0, 29.8496
52.092923961, 96.390, 920.0, 30.3315
52.119184526, 96.390, 930.0, 30.4959
52.145445092, 96.390, 901.0, 30.0167
52.171705657, 96.390, 1057.0, 32.5115
52.197966222, 96.390, 1023.0, 31.9844
52.224226788, 96.390, 1107.0, 33.2716
52.250487353, 96.390, 1081.0, 32.8786
52.276747918, 96.390, 1206.0, 34.7275
52.303008484, 96.390, 1205.0, 34.7131
52.329269049, 96.390, 1196.0, 34.5832
52.355529614, 96.390, 1300.0, 36.0555
52.381790180, 96.390, 1279.0, 35.7631
52.408050745, 96.390, 1406.0, 37.4967
52.434311310, 96.390, 1357.0, 36.8375
52.460571876, 96.390, 1252.0, 35.3836
52.486832441, 96.390, 1084.0, 32.9242
52.513093007, 96.390, 1209.0, 34.7707
52.539353572, 96.390, 1294.0, 35.9722
52.565614137, 96.390, 1243.0, 35.2562
52.591874703, 96.390, 1217.0, 34.8855
52.618135268, 96.390, 1391.0, 37.2961
52.644395833, 96.390, 1299.0, 36.0416
52.670656399, 96.390, 1071.0, 32.7261
52.696916964, 96.390, 1145.0, 33.8378
52.723177529, 96.390, 1143.0, 33.8083
52.749438095, 96.390, 1264.0, 35.5528
52.775698660, 96.390, 1171.0, 34.2199
52.801959225, 96.390, 1093.0, 33.0606
52.828219791, 96.390, 1021.0, 31.9531
52.854480356, 96.390, 1093.0, 33.0606
52.880740922, 96.390, 1178.0, 34.3220
52.907001487, 96.390, 1330.0, 36.4692
52.933262052, 96.390, 1412.0, 37.5766
52.959522618, 96.390, 1348.0, 36.7151
52.985783183, 96.390, 1241.0, 35.2278
53.012043748, 96.390, 1076.0, 32.8024
53.038304314, 96.390, 1108.0, 33.2866
53.064564879, 96.390, 1122.0, 33.4963
53.090825444, 96.390, 1213.0, 34.8281
53.117086010, 96.390, 1206.0, 34.7275
53.143346575, 96.390, 1234.0, 35.1283
53.169607140, 96.390, 1365.0, 36.9459
53.195867706, 96.390, 1470.0, 38.3406
53.222128271, 96.390, 1413.0, 37.5899
53.248388836, 96.390, 1326.0, 36.4143
53.274649402, 96.390, 1176.0, 34.2929
53.300909967, 96.390, 1059.0, 32.5423
53.327170533, 96.390, 1137.0, 33.7194
53.353431098, 96.390, 1118.0, 33.4365
53.379691663, 96.390, 1051.0, 32.4191
53.405952229, 96.390, 1006.0, 31.7175
53.432212794, 96.390, 898.0, 29.9666
53.458473359, 96.390, 905.0, 30.0832
53.484733925, 96.390, 866.0, 29.4279
53.510994490, 96.390, 882.0, 29.6985
53.537255055, 96.390, 845.0, 29.0689
53.563515621, 96.390, 856.0, 29.2575
53.589776186, 96.390, 869.0, 29.4788
53.616036751, 96.390, 851.0, 29.1719
53.642297317, 96.390, 825.0, 28.7228
53.668557882, 96.390, 840.0, 28.9828
53.694818448, 96.390, 815.0, 28.5482
53.721079013, 96.390, 810.0, 28.4605
53.747339578, 96.390, 847.0, 29.1033
53.773600144, 96.390, 830.0, 28.8097
53.799860709, 96.390, 887.0, 29.7825
53.826121274, 96.390, 814.0, 28.5307
53.852381840, 96.390, 871.0, 29.5127
53.878642405, 96.390, 995.0, 31.5436
53.904902970, 96.390, 1004.0, 31.6860
53.931163536, 96.390, 936.0, 30.5941
53.957424101, 96.390, 928.0, 30.4631
53.983684666, 96.390, 930.0, 30.4959
54.009945232, 96.390, 944.0, 30.7246
54.036205797, 96.390, 1016.0, 31.8748
54.062466362, 96.390, 1011.0, 31.7962
54.088726928, 96.390, 1111.0, 33.3317
54.114987493, 96.390, 1208.0, 34.7563
54.141248059, 96.390, 1374.0, 37.0675
54.167508624, 96.390, 1326.0, 36.4143
54.193769189, 96.390, 1242.0, 35.2420
54.220029755, 96.390, 1130.0, 33.6155
54.246290320, 96.390, 1106.0, 33.2566
54.272550885, 96.390, 1202.0, 34.6699
54.298811451, 96.390, 1197.0, 34.5977
54.325072016, 96.390, 1166.0, 34.1467
54.351332581, 96.390, 1058.0, 32.5269
54.377593147, 96.390, 1126.0, 33.5559
54.403853712, 96.390, 1039.0, 32.2335
54.430114277, 96.390, 990.0, 31.4643
54.456374843, 96.390, 949.0, 30.8058
54.482635408, 96.390, 916.0, 30.2655
54.508895973, 96.390, 893.0, 29.8831
54.535156539, 96.390, 882.0, 29.6985
54.561417104, 96.390, 936.0, 30.5941
54.587677670, 96.390, 922.0, 30.3645
54.613938235, 96.390, 959.0, 30.9677
54.640198800, 96.390, 970.0, 31.1448
54.666459366, 96.390, 912.0, 30.1993
54.692719931, 96.390, 914.0, 30.2324
54.718980496, 96.390, 833.0, 28.8617
54.745241062, 96.390, 924.0, 30.3974
54.771501627, 96.390, 1046.0, 32.3419
54.797762192, 96.390, 993.0, 31.5119
54.824022758, 96.390, 856.0, 29.2575
54.850283323, 96.390, 871.0, 29.5127
54.876543888, 96.390, 929.0, 30.4795
54.902804454, 96.390, 941.0, 30.6757
54.929065019, 96.390, 955.0, 30.9031
54.955325585, 96.390, 1016.0, 31.8748
54.981586150, 96.390, 961.0, 31.0000
55.007846715, 96.390, 976.0, 31.2410
55.034107281, 96.390, 955.0, 30.9031
55.060367846, 96.390, 1031.0, 32.1092
55.086628411, 96.390, 1169.0, 34.1906
55.112888977, 96.390, 1458.0, 38.1838
55.139149542, 96.390, 1391.0, 37.2961
55.165410107, 96.390, 1176.0, 34.2929
55.191670673, 96.390, 1064.0, 32.6190
55.217931238, 96.390, 968.0, 31.1127
55.244191803, 96.390, 995.0, 31.5436
55.270452369, 96.390, 1066.0, 32.6497
55.296712934, 96.390, 998.0, 31.5911
55.322973499, 96.390, 897.0, 29.9500
55.349234065, 96.390, 834.0, 28.8791
55.375494630, 96.390, 719.0, 26.8142
55.401755196, 96.390, 764.0, 27.6405
55.428015761, 96.390, 793.0, 28.1603
55.454276326, 96.390, 912.0, 30.1993
55.480536892, 96.390, 871.0, 29.5127
55.506797457, 96.390, 876.0, 29.5973
55.533058022, 96.390, 820.0, 28.6356
55.559318588, 96.390, 882.0, 29.6985
55.585579153, 96.390, 826.0, 28.7402
55.611839718, 96.390, 807.0, 28.4077
55.638100284, 96.390, 865.0, 29.4109
55.664360849, 96.390, 800.0, 28.2843
55.690621414, 96.390, 813.0, 28.5132
55.716881980, 96.390, 800.0, 28.2843
55.743142545, 96.390, 836.0, 28.9137
55.769403111, 96.390, 804.0, 28.3549
55.795663676, 96.390, 852.0, 29.1890
55.821924241, 96.390, 793.0, 28.1603
55.848184807, 96.390, 830.0, 28.8097
55.874445372, 96.390, 801.0, 28.3019
55.900705937, 96.390, 763.0, 27.6225
55.926966503, 96.390, 788.0, 28.0713
55.953227068, 96.390, 772.0, 27.7849
55.979487633, 96.390, 781.0, 27.9464
56.005748199, 96.390, 799.0, 28.2666
56.032008764, 96.390, 759.0, 27.5500
56.058269329, 96.390, 814.0, 28.5307
56.084529895, 96.390, 813.0, 28.5132
56.110790460, 96.390, 816.0, 28.5657
56.137051025, 96.390, 837.0, 28.9310
56.163311591, 96.390, 788.0, 28.0713
56.189572156, 96.390, 786.0, 28.0357
56.215832722, 96.390, 815.0, 28.5482
56.242093287, 96.390, 846.0, 29.0861
56.268353852, 96.390, 776.0, 27.8568
56.294614418, 96.390, 801.0, 28.3019
56.320874983, 96.390, 815.0, 28.5482
56.347135548, 96.390, 815.0, 28.5482
56.373396114, 96.390, 759.0, 27.5500
56.399656679, 96.390, 809.0, 28.4429
56.425917244, 96.390, 775.0, 27.8388
56.452177810, 96.390, 780.0, 27.9285
56.478438375, 96.390, 801.0, 28.3019
56.504698940, 96.390, 750.0, 27.3861
56.530959506, 96.390, 769.0, 27.7308
56.557220071, 96.390, 734.0, 27.0924
56.583480637, 96.390, 721.0, 26.8514
56.609741202, 96.390, 778.0, 27.8927
56.636001767, 96.390, 773.0, 27.8029
56.662262333, 96.390, 793.0, 28.1603
56.688522898, 96.390, 802.0, 28.3196
56.714783463, 96.390, 801.0, 28.3019
56.741044029, 96.390, 758.0, 27.5318
56.767304594, 96.390, 755.0, 27.4773
56.793565159, 96.390, 772.0, 27.7849
56.819825725, 96.390, 709.0, 26.6271
56.846086290, 96.390, 734.0, 27.0924
56.872346855, 96.390, 811.0, 28.4781
56.898607421, 96.390, 769.0, 27.7308
56.924867986, 96.390, 749.0, 27.3679
56.951128551, 96.390, 745.0, 27.2947
56.977389117, 96.390, 765.0, 27.6586
57.003649682, 96.390, 753.0, 27.4408
57.029910248, 96.390, 787.0, 28.0535
57.056170813, 96.390, 792.0, 28.1425
57.082431378, 96.390, 787.0, 28.0535
57.108691944, 96.390, 748.0, 27.3496
57.134952509, 96.390, 801.0, 28.3019
57.161213074, 96.390, 748.0, 27.3496
57.187473640, 96.390, 723.0, 26.8887
57.213734205, 96.390, 766.0, 27.6767
57.239994770, 96.390, 757.0, 27.5136
57.266255336, 96.390, 799.0, 28.2666
57.292515901, 96.390, 755.0, 27.4773
57.318776466, 96.390, 741.0, 27.2213
57.345037032, 96.390, 830.0, 28.8097
57.371297597, 96.390, 789.0, 28.0891
57.397558163, 96.390, 812.0, 28.4956
57.423818728, 96.390, 900.0, 30.0000
57.450079293, 96.390, 973.0, 31.1929
57.476339859, 96.390, 1055.0, 32.4808
57.502600424, 96.390, 1209.0, 34.7707
57.528860989, 96.390, 1085.0, 32.9393
57.555121555, 96.390, 986.0, 31.4006
57.581382120, 96.390, 902.0, 30.0333
57.607642685, 96.390, 943.0, 30.7083
57.633903251, 96.390, 1009.0, 31.7648
57.660163816, 96.390, 1081.0, 32.8786
57.686424381, 96.390, 1196.0, 34.5832
57.712684947, 96.390, 1168.0, 34.1760
57.738945512, 96.390, 1217.0, 34.8855
57.765206077, 96.390, 1355.0, 36.8103
57.791466643, 96.390, 1180.0, 34.3511
57.817727208, 96.390, 1101.0, 33.1813
57.843987774, 96.390, 983.0, 31.3528
57.870248339, 96.390, 1046.0, 32.3419
57.896508904, 96.390, 1001.0, 31.6386
57.922769470, 96.390, 1071.0, 32.7261
57.949030035, 96.390, 1043.0, 32.2955
57.975290600, 96.390, 909.0, 30.1496
58.001551166, 96.390, 869.0, 29.4788
58.027811731, 96.390, 961.0, 31.0000
58.054072296, 96.390, 935.0, 30.5778
58.080332862, 96.390, 932.0, 30.5287
58.106593427, 96.390, 1047.0, 32.3574
58.132853992, 96.390, 943.0, 30.7083
58.159114558, 96.390, 870.0, 29.4958
58.185375123, 96.390, 858.0, 29.2916
58.211635689, 96.390, 928.0, 30.4631
58.237896254, 96.390, 910.0, 30.1662
58.264156819, 96.390, 883.0, 29.7153
58.290417385, 96.390, 769.0, 27.7308
58.316677950, 96.390, 780.0, 27.9285
58.342938515, 96.390, 766.0, 27.6767
58.369199081, 96.390, 806.0, 28.3901
58.395459646, 96.390, 828.0, 28.7750
58.421720211, 96.390, 757.0, 27.5136
58.447980777, 96.390, 745.0, 27.2947
58.474241342, 96.390, 710.0, 26.6458
58.500501907, 96.390, 720.0, 26.8328
58.526762473, 96.390, 809.0, 28.4429
58.553023038, 96.390, 903.0, 30.0500
58.579283603, 96.390, 816.0, 28.5657
58.605544169, 96.390, 762.0, 27.6043
58.631804734, 96.390, 778.0, 27.8927
58.658065300, 96.390, 729.0, 27.0000
58.684325865, 96.390, 770.0, 27.7489
58.710586430, 96.390, 760.0, 27.5681
58.736846996, 96.390, 735.0, 27.1109
58.763107561, 96.390, 768.0, 27.7128
58.789368126, 96.390, 745.0, 27.2947
58.815628692, 96.390, 732.0, 27.0555
58.841889257, 96.390, 731.0, 27.0370
58.868149822, 96.390, 719.0, 26.8142
58.894410388, 96.390, 684.0, 26.1534
58.920670953, 96.390, 683.0, 26.1343
58.946931518, 96.390, 750.0, 27.3861
58.973192084, 96.390, 683.0, 26.1343
58.999452649, 96.390, 698.0, 26.4197
59.025713214, 96.390, 743.0, 27.2580
59.051973780, 96.390, 745.0, 27.2947
59.078234345, 96.390, 715.0, 26.7395
59.104494911, 96.390, 717.0, 26.7769
59.130755476, 96.390, 705.0, 26.5518
59.157016041, 96.390, 734.0, 27.0924
59.183276607, 96.390, 754.0, 27.4591
59.209537172, 96.390, 694.0, 26.3439
59.235797737, 96.390, 807.0, 28.4077
59.262058303, 96.390, 801.0, 28.3019
59.288318868, 96.390, 812.0, 28.4956
59.314579433, 96.390, 855.0, 29.2404
59.340839999, 96.390, 880.0, 29.6648
59.367100564, 96.390, 872.0, 29.5296
59.393361129, 96.390, 874.0, 29.5635
59.419621695, 96.390, 829.0, 28.7924
59.445882260, 96.390, 801.0, 28.3019
59.472142826, 96.390, 808.0, 28.4253
59.498403391, 96.390, 822.0, 28.6705
59.524663956, 96.390, 900.0, 30.0000
59.550924522, 96.390, 856.0, 29.2575
59.577185087, 96.390, 831.0, 28.8271
59.603445652, 96.390, 803.0, 28.3373
59.629706218, 96.390, 871.0, 29.5127
59.655966783, 96.390, 777.0, 27.8747
59.682227348, 96.390, 848.0, 29.1204
59.708487914, 96.390, 777.0, 27.8747
59.734748479, 96.390, 844.0, 29.0517
59.761009044, 96.390, 813.0, 28.5132
59.787269610, 96.390, 845.0, 29.0689
59.813530175, 96.390, 849.0, 29.1376
59.839790740, 96.390, 860.0, 29.3258
59.866051306, 96.390, 848.0, 29.1204
59.892311871, 96.390, 824.0, 28.7054
59.918572437, 96.390, 879.0, 29.6479
59.944833002, 96.390, 874.0, 29.5635
59.971093567, 96.390, 836.0, 28.9137
59.997354133, 96.390, 894.0, 29.8998
60.023614698, 96.390, 956.0, 30.9192
60.049875263, 96.390, 906.0, 30.0998
60.076135829, 96.390, 903.0, 30.0500
60.102396394, 96.390, 887.0, 29.7825
60.128656959, 96.390, 876.0, 29.5973
60.154917525, 96.390, 859.0, 29.3087
60.181178090, 96.390, 915.0, 30.2490
60.207438655, 96.390, 907.0, 30.1164
60.233699221, 96.390, 888.0, 29.7993
60.259959786, 96.390, 844.0, 29.0517
60.286220352, 96.390, 853.0, 29.2062
60.312480917, 96.390, 920.0, 30.3315
60.338741482, 96.390, 876.0, 29.5973
60.365002048, 96.390, 876.0, 29.5973
60.391262613, 96.390, 885.0, 29.7489
60.417523178, 96.390, 898.0, 29.9666
60.443783744, 96.390, 971.0, 31.1609
60.470044309, 96.390, 988.0, 31.4325
60.496304874, 96.390, 980.0, 31.3050
60.522565440, 96.390, 1021.0, 31.9531
60.548826005, 96.390, 1017.0, 31.8904
60.575086570, 96.390, 1018.0, 31.9061
60.601347136, 96.390, 1081.0, 32.8786
60.627607701, 96.390, 1054.0, 32.4654
60.653868266, 96.390, 1057.0, 32.5115
60.680128832, 96.390, 1201.0, 34.6554
60.706389397, 96.390, 1239.0, 35.1994
60.732649963, 96.390, 1147.0, 33.8674
60.758910528, 96.390, 1169.0, 34.1906
60.785171093, 96.390, 1194.0, 34.5543
60.811431659, 96.390, 1231.0, 35.0856
60.837692224, 96.390, 1207.0, 34.7419
60.863952789, 96.390, 1252.0, 35.3836
60.890213355, 96.390, 1321.0, 36.3456
60.916473920, 96.390, 1242.0, 35.2420
60.942734485, 96.390, 1283.0, 35.8190
60.968995051, 96.390, 1248.0, 35.3270
60.995255616, 96.390, 1245.0, 35.2846
61.021516181, 96.390, 1236.0, 35.1568
61.047776747, 96.390, 1222.0, 34.9571
61.074037312, 96.390, 1198.0, 34.6121
61.100297878, 96.390, 1156.0, 34.0000
61.126558443, 96.390, 1180.0, 34.3511
61.152819008, 96.390, 1219.0, 34.9142
61.179079574, 96.390, 1173.0, 34.2491
61.205340139, 96.390, 1261.0, 35.5106
61.231600704, 96.390, 1124.0, 33.5261
61.257861270, 96.390, 1152.0, 33.9411
61.284121835, 96.390, 1109.0, 33.3017
61.310382400, 96.390, 1018.0, 31.9061
61.336642966, 96.390, 1107.0, 33.2716
61.362903531, 96.390, 1056.0, 32.4962
61.389164096, 96.390, 1014.0, 31.8434
61.415424662, 96.390, 1041.0, 32.2645
61.441685227, 96.390, 1048.0, 32.3728
61.467945792, 96.390, 1006.0, 31.7175
61.494206358, 96.390, 973.0, 31.1929
61.520466923, 96.390, 978.0, 31.2730
61.546727489, 96.390, 1016.0, 31.8748
61.572988054, 96.390, 1026.0, 32.0312
61.599248619, 96.390, 958.0, 30.9516
61.625509185, 96.390, 1029.0, 32.0780
61.651769750, 96.390, 1006.0, 31.7175
61.678030315, 96.390, 1056.0, 32.4962
61.704290881, 96.390, 1066.0, 32.6497
61.730551446, 96.390, 1027.0, 32.0468
61.756812011, 96.390, 1049.0, 32.3883
61.783072577, 96.390, 1066.0, 32.6497
61.809333142, 96.390, 983.0, 31.3528
61.835593707, 96.390, 1061.0, 32.5730
61.861854273, 96.390, 1043.0, 32.2955
61.888114838, 96.390, 1125.0, 33.5410
61.914375404, 96.390, 1012.0, 31.8119
61.940635969, 96.390, 1040.0, 32.2490
61.966896534, 96.390, 1101.0, 33.1813
61.993157100, 96.390, 1034.0, 32.1559
62.019417665, 96.390, 1042.0, 32.2800
62.045678230, 96.390, 1146.0, 33.8526
62.071938796, 96.390, 1069.0, 32.6956
62.098199361, 96.390, 1119.0, 33.4515
62.124459926, 96.390, 1172.0, 34.2345
62.150720492, 96.390, 1067.0, 32.6650
62.176981057, 96.390, 1170.0, 34.2053
62.203241622, 96.390, 1163.0, 34.1028
62.229502188, 96.390, 1209.0, 34.7707
62.255762753, 96.390, 1165.0, 34.1321
62.282023318, 96.390, 1126.0, 33.5559
62.308283884, 96.390, 1053.0, 32.4500
62.334544449, 96.390, 1038.0, 32.2180
62.360805015, 96.390, 1013.0, 31.8277
62.387065580, 96.390, 1029.0, 32.0780
62.413326145, 96.390, 1061.0, 32.5730
62.439586711, 96.390, 953.0, 30.8707
62.465847276, 96.390, 977.0, 31.2570
62.492107841, 96.390, 971.0, 31.1609
62.518368407, 96.390, 982.0, 31.3369
62.544628972, 96.390, 945.0, 30.7409
62.570889537, 96.390, 941.0, 30.6757
62.597150103, 96.390, 857.0, 29.2746
62.623410668, 96.390, 938.0, 30.6268
62.649671233, 96.390, 902.0, 30.0333
62.675931799, 96.390, 944.0, 30.7246
62.702192364, 96.390, 932.0, 30.5287
62.728452930, 96.390, 874.0, 29.5635
62.754713495, 96.390, 892.0, 29.8664
62.780974060, 96.390, 847.0, 29.1033
62.807234626, 96.390, 845.0, 29.0689
62.833495191, 96.390, 854.0, 29.2233
62.859755756, 96.390, 822.0, 28.6705
62.886016322, 96.390, 870.0, 29.4958
62.912276887, 96.390, 789.0, 28.0891
62.938537452, 96.390, 803.0, 28.3373
62.964798018, 96.390, 697.0, 26.4008
62.991058583, 96.390, 731.0, 27.0370
63.017319148, 96.390, 724.0, 26.9072
63.043579714, 96.390, 678.0, 26.0384
63.069840279, 96.390, 749.0, 27.3679
63.096100844, 96.390, 724.0, 26.9072
63.122361410, 96.390, 713.0, 26.7021
63.148621975, 96.390, 724.0, 26.9072
63.174882541, 96.390, 725.0, 26.9258
63.201143106, 96.390, 714.0, 26.7208
63.227403671, 96.390, 672.0, 25.9230
63.253664237, 96.390, 672.0, 25.9230
63.279924802, 96.390, 699.0, 26.4386
63.306185367, 96.390, 671.0, 25.9037
63.332445933, 96.390, 725.0, 26.9258
63.358706498, 96.390, 750.0, 27.3861
63.384967063, 96.390, 784.0, 28.0000
63.411227629, 96.390, 747.0, 27.3313
63.437488194, 96.390, 754.0, 27.4591
63.463748759, 96.390, 751.0, 27.4044
63.490009325, 96.390, 715.0, 26.7395
63.516269890, 96.390, 698.0, 26.4197
63.542530455, 96.390, 707.0, 26.5895
63.568791021, 96.390, 712.0, 26.6833
63.595051586, 96.390, 733.0, 27.0740
63.621312152, 96.390, 703.0, 26.5141
63.647572717, 96.390, 691.0, 26.2869
63.673833282, 96.390, 683.0, 26.1343
63.700093848, 96.390, 711.0, 26.6646
63.726354413, 96.390, 730.0, 27.0185
63.752614978, 96.390, 766.0, 27.6767
63.778875544, 96.390, 695.0, 26.3629
63.805136109, 96.390, 683.0, 26.1343
63.831396674, 96.390, 716.0, 26.7582
63.857657240, 96.390, 728.0, 26.9815
63.883917805, 96.390, 797.0, 28.2312
63.910178370, 96.390, 750.0, 27.3861
63.936438936, 96.390, 781.0, 27.9464
63.962699501, 96.390, 883.0, 29.7153
63.988960067, 96.390, 876.0, 29.5973
64.015220632, 96.390, 917.0, 30.2820
64.041481197, 96.390, 795.0, 28.1957
64.067741763, 96.390, 808.0, 28.4253
64.094002328, 96.390, 824.0, 28.7054
64.120262893, 96.390, 854.0, 29.2233
64.146523459, 96.390, 834.0, 28.8791
64.172784024, 96.390, 832.0, 28.8444
64.199044589, 96.390, 752.0, 27.4226
64.225305155, 96.390, 766.0, 27.6767
64.251565720, 96.390, 749.0, 27.3679
64.277826285, 96.390, 772.0, 27.7849
64.304086851, 96.390, 773.0, 27.8029
64.330347416, 96.390, 747.0, 27.3313
64.356607981, 96.390, 783.0, 27.9821
64.382868547, 96.390, 695.0, 26.3629
64.409129112, 96.390, 682.0, 26.1151
64.435389678, 96.390, 680.0, 26.0768
64.461650243, 96.390, 664.0, 25.7682
64.487910808, 96.390, 698.0, 26.4197
64.514171374, 96.390, 660.0, 25.6905
64.540431939, 96.390, 666.0, 25.8070
64.566692504, 96.390, 686.0, 26.1916
64.592953070, 96.390, 665.0, 25.7876
64.619213635, 96.390, 643.0, 25.3574
64.645474200, 96.390, 687.0, 26.2107
64.671734766, 96.390, 636.0, 25.2190
64.697995331, 96.390, 712.0, 26.6833
64.724255896, 96.390, 698.0, 26.4197
64.750516462, 96.390, 677.0, 26.0192
64.776777027, 96.390, 682.0, 26.1151
64.803037593, 96.390, 719.0, 26.8142
64.829298158, 96.390, 671.0, 25.9037
64.855558723, 96.390, 648.0, 25.4558
64.881819289, 96.390, 642.0, 25.3377
64.908079854, 96.390, 706.0, 26.5707
64.934340419, 96.390, 713.0, 26.7021
64.960600985, 96.390, 716.0, 26.7582
64.986861550, 96.390, 730.0, 27.0185
