[Measurement conditions]
Sample identification,XRD_Centroid08Dec21_Act08Mar22_B2_0714M_NaOH_LS0160_2
Comment - 1,"Configuration=Stage for Flat Samples/Holders, Owner=User-1, Creation date=7/1/2020 9:53:24 AM"
Comment - 2,"Goniometer=Theta/Theta; Minimum step size 2Theta:0.0001; Minimum step size Omega:0.0001"
Comment - 3,"Sample stage=Stage for flat samples/holders"
Comment - 4,"Diffractometer system=EMPYREAN"
Comment - 5,"Measurement program=C:\Users\ibo5034\OneDrive - The Pennsylvania State University\NEUP\Zerobackground scan.xrdmp, Identifier={98A3B11C-88F9-4AA6-982C-73314A311EF5}"
Anode material,Cu
K-Alpha1 wavelength,1.5405980
K-Alpha2 wavelength,1.5444260
Ratio K-Alpha2/K-Alpha1,0.500
Divergence slit,Fixed,0.25
Monochromator used,NO
Generator voltage, 45
Tube current, 40
File date and time,11/Mar/2022 12:28
Unit cell,
h k l, 0 0 0
Scan axis,Gonio
Scan range,4.994599997,64.999991833
Scan step size,0.0262606
No. of points, 2285
Scan type,CONTINUOUS
Time per step,96.390
[Scan points]
Angle, TimePerStep, Intensity, ESD
5.007730280, 96.390, 4364.0, 66.0606
5.033990845, 96.390, 4463.0, 66.8057
5.060251411, 96.390, 4499.0, 67.0746
5.086511976, 96.390, 4498.0, 67.0671
5.112772541, 96.390, 4409.0, 66.4003
5.139033107, 96.390, 4397.0, 66.3099
5.165293672, 96.390, 4416.0, 66.4530
5.191554237, 96.390, 4342.0, 65.8939
5.217814803, 96.390, 4219.0, 64.9538
5.244075368, 96.390, 4197.0, 64.7843
5.270335934, 96.390, 4325.0, 65.7647
5.296596499, 96.390, 4183.0, 64.6761
5.322857064, 96.390, 4218.0, 64.9461
5.349117630, 96.390, 4246.0, 65.1613
5.375378195, 96.390, 4124.0, 64.2184
5.401638760, 96.390, 4152.0, 64.4360
5.427899326, 96.390, 4179.0, 64.6452
5.454159891, 96.390, 4044.0, 63.5925
5.480420456, 96.390, 4109.0, 64.1015
5.506681022, 96.390, 4090.0, 63.9531
5.532941587, 96.390, 4062.0, 63.7338
5.559202152, 96.390, 4093.0, 63.9766
5.585462718, 96.390, 4047.0, 63.6160
5.611723283, 96.390, 4029.0, 63.4744
5.637983849, 96.390, 4109.0, 64.1015
5.664244414, 96.390, 4101.0, 64.0391
5.690504979, 96.390, 3993.0, 63.1902
5.716765545, 96.390, 3901.0, 62.4580
5.743026110, 96.390, 4024.0, 63.4350
5.769286675, 96.390, 3944.0, 62.8013
5.795547241, 96.390, 4015.0, 63.3640
5.821807806, 96.390, 3952.0, 62.8649
5.848068371, 96.390, 3916.0, 62.5780
5.874328937, 96.390, 3964.0, 62.9603
5.900589502, 96.390, 3790.0, 61.5630
5.926850067, 96.390, 3956.0, 62.8967
5.953110633, 96.390, 3839.0, 61.9597
5.979371198, 96.390, 3846.0, 62.0161
6.005631763, 96.390, 3875.0, 62.2495
6.031892329, 96.390, 3870.0, 62.2093
6.058152894, 96.390, 3829.0, 61.8789
6.084413460, 96.390, 3779.0, 61.4736
6.110674025, 96.390, 3921.0, 62.6179
6.136934590, 96.390, 3912.0, 62.5460
6.163195156, 96.390, 3793.0, 61.5873
6.189455721, 96.390, 3871.0, 62.2174
6.215716286, 96.390, 3928.0, 62.6738
6.241976852, 96.390, 3796.0, 61.6117
6.268237417, 96.390, 3804.0, 61.6766
6.294497982, 96.390, 3716.0, 60.9590
6.320758548, 96.390, 3840.0, 61.9677
6.347019113, 96.390, 3657.0, 60.4731
6.373279678, 96.390, 3674.0, 60.6135
6.399540244, 96.390, 3706.0, 60.8769
6.425800809, 96.390, 3841.0, 61.9758
6.452061375, 96.390, 3713.0, 60.9344
6.478321940, 96.390, 3667.0, 60.5558
6.504582505, 96.390, 3721.0, 61.0000
6.530843071, 96.390, 3712.0, 60.9262
6.557103636, 96.390, 3684.0, 60.6960
6.583364201, 96.390, 3754.0, 61.2699
6.609624767, 96.390, 3817.0, 61.7819
6.635885332, 96.390, 3643.0, 60.3573
6.662145897, 96.390, 3652.0, 60.4318
6.688406463, 96.390, 3721.0, 61.0000
6.714667028, 96.390, 3738.0, 61.1392
6.740927593, 96.390, 3737.0, 61.1310
6.767188159, 96.390, 3607.0, 60.0583
6.793448724, 96.390, 3569.0, 59.7411
6.819709289, 96.390, 3699.0, 60.8194
6.845969855, 96.390, 3681.0, 60.6712
6.872230420, 96.390, 3667.0, 60.5558
6.898490986, 96.390, 3611.0, 60.0916
6.924751551, 96.390, 3641.0, 60.3407
6.951012116, 96.390, 3595.0, 59.9583
6.977272682, 96.390, 3668.0, 60.5640
7.003533247, 96.390, 3581.0, 59.8415
7.029793812, 96.390, 3629.0, 60.2412
7.056054378, 96.390, 3558.0, 59.6490
7.082314943, 96.390, 3554.0, 59.6154
7.108575508, 96.390, 3576.0, 59.7997
7.134836074, 96.390, 3556.0, 59.6322
7.161096639, 96.390, 3639.0, 60.3241
7.187357204, 96.390, 3629.0, 60.2412
7.213617770, 96.390, 3510.0, 59.2453
7.239878335, 96.390, 3514.0, 59.2790
7.266138900, 96.390, 3499.0, 59.1523
7.292399466, 96.390, 3648.0, 60.3987
7.318660031, 96.390, 3679.0, 60.6548
7.344920597, 96.390, 3491.0, 59.0847
7.371181162, 96.390, 3635.0, 60.2910
7.397441727, 96.390, 3610.0, 60.0833
7.423702293, 96.390, 3547.0, 59.5567
7.449962858, 96.390, 3535.0, 59.4559
7.476223423, 96.390, 3546.0, 59.5483
7.502483989, 96.390, 3647.0, 60.3904
7.528744554, 96.390, 3571.0, 59.7578
7.555005119, 96.390, 3518.0, 59.3127
7.581265685, 96.390, 3414.0, 58.4294
7.607526250, 96.390, 3467.0, 58.8812
7.633786815, 96.390, 3433.0, 58.5918
7.660047381, 96.390, 3503.0, 59.1861
7.686307946, 96.390, 3561.0, 59.6741
7.712568512, 96.390, 3573.0, 59.7746
7.738829077, 96.390, 3442.0, 58.6686
7.765089642, 96.390, 3431.0, 58.5747
7.791350208, 96.390, 3346.0, 57.8446
7.817610773, 96.390, 3403.0, 58.3352
7.843871338, 96.390, 3454.0, 58.7707
7.870131904, 96.390, 3425.0, 58.5235
7.896392469, 96.390, 3544.0, 59.5315
7.922653034, 96.390, 3503.0, 59.1861
7.948913600, 96.390, 3417.0, 58.4551
7.975174165, 96.390, 3505.0, 59.2030
8.001434730, 96.390, 3462.0, 58.8388
8.027695296, 96.390, 3521.0, 59.3380
8.053955861, 96.390, 3630.0, 60.2495
8.080216426, 96.390, 3552.0, 59.5987
8.106476992, 96.390, 3671.0, 60.5888
8.132737557, 96.390, 3710.0, 60.9098
8.158998123, 96.390, 3508.0, 59.2284
8.185258688, 96.390, 3570.0, 59.7495
8.211519253, 96.390, 3449.0, 58.7282
8.237779819, 96.390, 3431.0, 58.5747
8.264040384, 96.390, 3451.0, 58.7452
8.290300949, 96.390, 3500.0, 59.1608
8.316561515, 96.390, 3575.0, 59.7913
8.342822080, 96.390, 3344.0, 57.8273
8.369082645, 96.390, 3366.0, 58.0172
8.395343211, 96.390, 3378.0, 58.1206
8.421603776, 96.390, 3351.0, 57.8878
8.447864341, 96.390, 3516.0, 59.2959
8.474124907, 96.390, 3460.0, 58.8218
8.500385472, 96.390, 3364.0, 58.0000
8.526646038, 96.390, 3457.0, 58.7963
8.552906603, 96.390, 3393.0, 58.2495
8.579167168, 96.390, 3422.0, 58.4979
8.605427734, 96.390, 3403.0, 58.3352
8.631688299, 96.390, 3459.0, 58.8133
8.657948864, 96.390, 3454.0, 58.7707
8.684209430, 96.390, 3416.0, 58.4466
8.710469995, 96.390, 3326.0, 57.6715
8.736730560, 96.390, 3375.0, 58.0948
8.762991126, 96.390, 3444.0, 58.6856
8.789251691, 96.390, 3308.0, 57.5152
8.815512256, 96.390, 3309.0, 57.5239
8.841772822, 96.390, 3308.0, 57.5152
8.868033387, 96.390, 3322.0, 57.6368
8.894293952, 96.390, 3356.0, 57.9310
8.920554518, 96.390, 3450.0, 58.7367
8.946815083, 96.390, 3304.0, 57.4804
8.973075649, 96.390, 3292.0, 57.3760
8.999336214, 96.390, 3232.0, 56.8507
9.025596779, 96.390, 3419.0, 58.4722
9.051857345, 96.390, 3324.0, 57.6541
9.078117910, 96.390, 3335.0, 57.7495
9.104378475, 96.390, 3267.0, 57.1577
9.130639041, 96.390, 3305.0, 57.4891
9.156899606, 96.390, 3277.0, 57.2451
9.183160171, 96.390, 3352.0, 57.8965
9.209420737, 96.390, 3420.0, 58.4808
9.235681302, 96.390, 3310.0, 57.5326
9.261941867, 96.390, 3235.0, 56.8771
9.288202433, 96.390, 3244.0, 56.9561
9.314462998, 96.390, 3321.0, 57.6281
9.340723564, 96.390, 3321.0, 57.6281
9.366984129, 96.390, 3341.0, 57.8014
9.393244694, 96.390, 3317.0, 57.5934
9.419505260, 96.390, 3417.0, 58.4551
9.445765825, 96.390, 3326.0, 57.6715
9.472026390, 96.390, 3287.0, 57.3324
9.498286956, 96.390, 3415.0, 58.4380
9.524547521, 96.390, 3277.0, 57.2451
9.550808086, 96.390, 3307.0, 57.5065
9.577068652, 96.390, 3282.0, 57.2887
9.603329217, 96.390, 3361.0, 57.9741
9.629589782, 96.390, 3224.0, 56.7803
9.655850348, 96.390, 3163.0, 56.2406
9.682110913, 96.390, 3278.0, 57.2538
9.708371478, 96.390, 3312.0, 57.5500
9.734632044, 96.390, 3202.0, 56.5862
9.760892609, 96.390, 3232.0, 56.8507
9.787153175, 96.390, 3253.0, 57.0351
9.813413740, 96.390, 3416.0, 58.4466
9.839674305, 96.390, 3204.0, 56.6039
9.865934871, 96.390, 3279.0, 57.2626
9.892195436, 96.390, 3231.0, 56.8419
9.918456001, 96.390, 3380.0, 58.1378
9.944716567, 96.390, 3317.0, 57.5934
9.970977132, 96.390, 3248.0, 56.9912
9.997237697, 96.390, 3284.0, 57.3062
10.023498263, 96.390, 3181.0, 56.4004
10.049758828, 96.390, 3224.0, 56.7803
10.076019393, 96.390, 3244.0, 56.9561
10.102279959, 96.390, 3246.0, 56.9737
10.128540524, 96.390, 3240.0, 56.9210
10.154801090, 96.390, 3193.0, 56.5066
10.181061655, 96.390, 3323.0, 57.6455
10.207322220, 96.390, 3226.0, 56.7979
10.233582786, 96.390, 3274.0, 57.2189
10.259843351, 96.390, 3326.0, 57.6715
10.286103916, 96.390, 3204.0, 56.6039
10.312364482, 96.390, 3162.0, 56.2317
10.338625047, 96.390, 3263.0, 57.1227
10.364885612, 96.390, 3335.0, 57.7495
10.391146178, 96.390, 3339.0, 57.7841
10.417406743, 96.390, 3446.0, 58.7026
10.443667308, 96.390, 4071.0, 63.8044
10.469927874, 96.390, 3882.0, 62.3057
10.496188439, 96.390, 3387.0, 58.1979
10.522449004, 96.390, 3157.0, 56.1872
10.548709570, 96.390, 3248.0, 56.9912
10.574970135, 96.390, 3160.0, 56.2139
10.601230701, 96.390, 3261.0, 57.1052
10.627491266, 96.390, 3241.0, 56.9298
10.653751831, 96.390, 3261.0, 57.1052
10.680012397, 96.390, 3285.0, 57.3149
10.706272962, 96.390, 3150.0, 56.1249
10.732533527, 96.390, 3201.0, 56.5774
10.758794093, 96.390, 3206.0, 56.6216
10.785054658, 96.390, 3193.0, 56.5066
10.811315223, 96.390, 3236.0, 56.8859
10.837575789, 96.390, 3256.0, 57.0614
10.863836354, 96.390, 3215.0, 56.7010
10.890096919, 96.390, 3189.0, 56.4712
10.916357485, 96.390, 3204.0, 56.6039
10.942618050, 96.390, 3349.0, 57.8705
10.968878616, 96.390, 3756.0, 61.2862
10.995139181, 96.390, 3510.0, 59.2453
11.021399746, 96.390, 3327.0, 57.6802
11.047660312, 96.390, 3224.0, 56.7803
11.073920877, 96.390, 3190.0, 56.4801
11.100181442, 96.390, 3176.0, 56.3560
11.126442008, 96.390, 3097.0, 55.6507
11.152702573, 96.390, 3121.0, 55.8659
11.178963138, 96.390, 3057.0, 55.2901
11.205223704, 96.390, 3178.0, 56.3738
11.231484269, 96.390, 3214.0, 56.6922
11.257744834, 96.390, 3090.0, 55.5878
11.284005400, 96.390, 3074.0, 55.4437
11.310265965, 96.390, 2919.0, 54.0278
11.336526530, 96.390, 3090.0, 55.5878
11.362787096, 96.390, 3004.0, 54.8088
11.389047661, 96.390, 3105.0, 55.7225
11.415308227, 96.390, 3168.0, 56.2850
11.441568792, 96.390, 3078.0, 55.4797
11.467829357, 96.390, 3005.0, 54.8179
11.494089923, 96.390, 2985.0, 54.6352
11.520350488, 96.390, 2983.0, 54.6168
11.546611053, 96.390, 3023.0, 54.9818
11.572871619, 96.390, 3027.0, 55.0182
11.599132184, 96.390, 2892.0, 53.7773
11.625392749, 96.390, 3000.0, 54.7723
11.651653315, 96.390, 3022.0, 54.9727
11.677913880, 96.390, 2910.0, 53.9444
11.704174445, 96.390, 2924.0, 54.0740
11.730435011, 96.390, 3044.0, 55.1725
11.756695576, 96.390, 2851.0, 53.3948
11.782956141, 96.390, 3014.0, 54.8999
11.809216707, 96.390, 2987.0, 54.6535
11.835477272, 96.390, 2899.0, 53.8424
11.861737838, 96.390, 2991.0, 54.6900
11.887998403, 96.390, 2919.0, 54.0278
11.914258968, 96.390, 2838.0, 53.2729
11.940519534, 96.390, 2860.0, 53.4790
11.966780099, 96.390, 2870.0, 53.5724
11.993040664, 96.390, 2906.0, 53.9073
12.019301230, 96.390, 2885.0, 53.7122
12.045561795, 96.390, 2916.0, 54.0000
12.071822360, 96.390, 2882.0, 53.6843
12.098082926, 96.390, 2867.0, 53.5444
12.124343491, 96.390, 2700.0, 51.9615
12.150604056, 96.390, 2902.0, 53.8702
12.176864622, 96.390, 2809.0, 53.0000
12.203125187, 96.390, 2905.0, 53.8981
12.229385753, 96.390, 2806.0, 52.9717
12.255646318, 96.390, 2802.0, 52.9339
12.281906883, 96.390, 2816.0, 53.0660
12.308167449, 96.390, 2751.0, 52.4500
12.334428014, 96.390, 2820.0, 53.1037
12.360688579, 96.390, 2784.0, 52.7636
12.386949145, 96.390, 2881.0, 53.6749
12.413209710, 96.390, 2918.0, 54.0185
12.439470275, 96.390, 2810.0, 53.0094
12.465730841, 96.390, 2845.0, 53.3385
12.491991406, 96.390, 2803.0, 52.9434
12.518251971, 96.390, 2816.0, 53.0660
12.544512537, 96.390, 2851.0, 53.3948
12.570773102, 96.390, 2844.0, 53.3292
12.597033667, 96.390, 2877.0, 53.6377
12.623294233, 96.390, 2960.0, 54.4059
12.649554798, 96.390, 2888.0, 53.7401
12.675815364, 96.390, 2843.0, 53.3198
12.702075929, 96.390, 2888.0, 53.7401
12.728336494, 96.390, 2823.0, 53.1319
12.754597060, 96.390, 2796.0, 52.8772
12.780857625, 96.390, 2738.0, 52.3259
12.807118190, 96.390, 2707.0, 52.0288
12.833378756, 96.390, 2726.0, 52.2111
12.859639321, 96.390, 2626.0, 51.2445
12.885899886, 96.390, 2618.0, 51.1664
12.912160452, 96.390, 2666.0, 51.6333
12.938421017, 96.390, 2703.0, 51.9904
12.964681582, 96.390, 2535.0, 50.3488
12.990942148, 96.390, 2679.0, 51.7591
13.017202713, 96.390, 2606.0, 51.0490
13.043463279, 96.390, 2586.0, 50.8527
13.069723844, 96.390, 2538.0, 50.3786
13.095984409, 96.390, 2540.0, 50.3984
13.122244975, 96.390, 2579.0, 50.7839
13.148505540, 96.390, 2566.0, 50.6557
13.174766105, 96.390, 2581.0, 50.8035
13.201026671, 96.390, 2641.0, 51.3907
13.227287236, 96.390, 2626.0, 51.2445
13.253547801, 96.390, 2608.0, 51.0686
13.279808367, 96.390, 2551.0, 50.5074
13.306068932, 96.390, 2688.0, 51.8459
13.332329497, 96.390, 2627.0, 51.2543
13.358590063, 96.390, 2659.0, 51.5655
13.384850628, 96.390, 2513.0, 50.1298
13.411111193, 96.390, 2597.0, 50.9608
13.437371759, 96.390, 2693.0, 51.8941
13.463632324, 96.390, 2767.0, 52.6023
13.489892890, 96.390, 2724.0, 52.1920
13.516153455, 96.390, 2601.0, 51.0000
13.542414020, 96.390, 2651.0, 51.4879
13.568674586, 96.390, 2551.0, 50.5074
13.594935151, 96.390, 2602.0, 51.0098
13.621195716, 96.390, 2580.0, 50.7937
13.647456282, 96.390, 2583.0, 50.8232
13.673716847, 96.390, 2556.0, 50.5569
13.699977412, 96.390, 2656.0, 51.5364
13.726237978, 96.390, 2807.0, 52.9811
13.752498543, 96.390, 2793.0, 52.8488
13.778759108, 96.390, 2797.0, 52.8867
13.805019674, 96.390, 2650.0, 51.4782
13.831280239, 96.390, 2627.0, 51.2543
13.857540805, 96.390, 2626.0, 51.2445
13.883801370, 96.390, 2548.0, 50.4777
13.910061935, 96.390, 2453.0, 49.5278
13.936322501, 96.390, 2498.0, 49.9800
13.962583066, 96.390, 2451.0, 49.5076
13.988843631, 96.390, 2511.0, 50.1099
14.015104197, 96.390, 2573.0, 50.7247
14.041364762, 96.390, 2539.0, 50.3885
14.067625327, 96.390, 2516.0, 50.1597
14.093885893, 96.390, 2636.0, 51.3420
14.120146458, 96.390, 2559.0, 50.5866
14.146407023, 96.390, 2536.0, 50.3587
14.172667589, 96.390, 2796.0, 52.8772
14.198928154, 96.390, 2929.0, 54.1202
14.225188719, 96.390, 3467.0, 58.8812
14.251449285, 96.390, 3904.0, 62.4820
14.277709850, 96.390, 4848.0, 69.6276
14.303970416, 96.390, 3910.0, 62.5300
14.330230981, 96.390, 3091.0, 55.5968
14.356491546, 96.390, 2564.0, 50.6360
14.382752112, 96.390, 2547.0, 50.4678
14.409012677, 96.390, 2516.0, 50.1597
14.435273242, 96.390, 2642.0, 51.4004
14.461533808, 96.390, 2815.0, 53.0566
14.487794373, 96.390, 2968.0, 54.4794
14.514054938, 96.390, 3161.0, 56.2228
14.540315504, 96.390, 3119.0, 55.8480
14.566576069, 96.390, 2810.0, 53.0094
14.592836634, 96.390, 2464.0, 49.6387
14.619097200, 96.390, 2359.0, 48.5695
14.645357765, 96.390, 2290.0, 47.8539
14.671618331, 96.390, 2381.0, 48.7955
14.697878896, 96.390, 2397.0, 48.9592
14.724139461, 96.390, 2361.0, 48.5901
14.750400027, 96.390, 2357.0, 48.5489
14.776660592, 96.390, 2440.0, 49.3964
14.802921157, 96.390, 2308.0, 48.0416
14.829181723, 96.390, 2402.0, 49.0102
14.855442288, 96.390, 2308.0, 48.0416
14.881702853, 96.390, 2420.0, 49.1935
14.907963419, 96.390, 2370.0, 48.6826
14.934223984, 96.390, 2288.0, 47.8330
14.960484549, 96.390, 2383.0, 48.8160
14.986745115, 96.390, 2365.0, 48.6313
15.013005680, 96.390, 2367.0, 48.6518
15.039266245, 96.390, 2444.0, 49.4368
15.065526811, 96.390, 2469.0, 49.6890
15.091787376, 96.390, 2462.0, 49.6185
15.118047942, 96.390, 2599.0, 50.9804
15.144308507, 96.390, 2710.0, 52.0577
15.170569072, 96.390, 2848.0, 53.3667
15.196829638, 96.390, 2883.0, 53.6936
15.223090203, 96.390, 2950.0, 54.3139
15.249350768, 96.390, 2962.0, 54.4243
15.275611334, 96.390, 2912.0, 53.9630
15.301871899, 96.390, 2895.0, 53.8052
15.328132464, 96.390, 2691.0, 51.8748
15.354393030, 96.390, 2585.0, 50.8429
15.380653595, 96.390, 2510.0, 50.0999
15.406914160, 96.390, 2582.0, 50.8134
15.433174726, 96.390, 2397.0, 48.9592
15.459435291, 96.390, 2352.0, 48.4974
15.485695857, 96.390, 2392.0, 48.9081
15.511956422, 96.390, 2261.0, 47.5500
15.538216987, 96.390, 2314.0, 48.1041
15.564477553, 96.390, 2244.0, 47.3709
15.590738118, 96.390, 2267.0, 47.6130
15.616998683, 96.390, 2334.0, 48.3115
15.643259249, 96.390, 2336.0, 48.3322
15.669519814, 96.390, 2416.0, 49.1528
15.695780379, 96.390, 2313.0, 48.0937
15.722040945, 96.390, 2362.0, 48.6004
15.748301510, 96.390, 2336.0, 48.3322
15.774562075, 96.390, 2254.0, 47.4763
15.800822641, 96.390, 2280.0, 47.7493
15.827083206, 96.390, 2282.0, 47.7703
15.853343771, 96.390, 2200.0, 46.9042
15.879604337, 96.390, 2249.0, 47.4236
15.905864902, 96.390, 2210.0, 47.0106
15.932125468, 96.390, 2223.0, 47.1487
15.958386033, 96.390, 2286.0, 47.8121
15.984646598, 96.390, 2253.0, 47.4658
16.010907164, 96.390, 2250.0, 47.4342
16.037167729, 96.390, 2219.0, 47.1063
16.063428294, 96.390, 2274.0, 47.6865
16.089688860, 96.390, 2307.0, 48.0312
16.115949425, 96.390, 2175.0, 46.6369
16.142209990, 96.390, 2230.0, 47.2229
16.168470556, 96.390, 2369.0, 48.6724
16.194731121, 96.390, 2358.0, 48.5592
16.220991686, 96.390, 2308.0, 48.0416
16.247252252, 96.390, 2480.0, 49.7996
16.273512817, 96.390, 2616.0, 51.1468
16.299773382, 96.390, 2761.0, 52.5452
16.326033948, 96.390, 2745.0, 52.3927
16.352294513, 96.390, 2553.0, 50.5272
16.378555079, 96.390, 2394.0, 48.9285
16.404815644, 96.390, 2335.0, 48.3218
16.431076209, 96.390, 2283.0, 47.7807
16.457336775, 96.390, 2232.0, 47.2440
16.483597340, 96.390, 2258.0, 47.5184
16.509857905, 96.390, 2161.0, 46.4866
16.536118471, 96.390, 2255.0, 47.4868
16.562379036, 96.390, 2221.0, 47.1275
16.588639601, 96.390, 2097.0, 45.7930
16.614900167, 96.390, 2232.0, 47.2440
16.641160732, 96.390, 2234.0, 47.2652
16.667421297, 96.390, 2222.0, 47.1381
16.693681863, 96.390, 2203.0, 46.9361
16.719942428, 96.390, 2194.0, 46.8402
16.746202994, 96.390, 2248.0, 47.4131
16.772463559, 96.390, 2239.0, 47.3181
16.798724124, 96.390, 2216.0, 47.0744
16.824984690, 96.390, 2214.0, 47.0532
16.851245255, 96.390, 2196.0, 46.8615
16.877505820, 96.390, 2248.0, 47.4131
16.903766386, 96.390, 2189.0, 46.7868
16.930026951, 96.390, 2168.0, 46.5618
16.956287516, 96.390, 2229.0, 47.2123
16.982548082, 96.390, 2201.0, 46.9148
17.008808647, 96.390, 2178.0, 46.6690
17.035069212, 96.390, 2242.0, 47.3498
17.061329778, 96.390, 2144.0, 46.3033
17.087590343, 96.390, 2206.0, 46.9681
17.113850908, 96.390, 2268.0, 47.6235
17.140111474, 96.390, 2276.0, 47.7074
17.166372039, 96.390, 2178.0, 46.6690
17.192632605, 96.390, 2257.0, 47.5079
17.218893170, 96.390, 2155.0, 46.4220
17.245153735, 96.390, 2203.0, 46.9361
17.271414301, 96.390, 2261.0, 47.5500
17.297674866, 96.390, 2295.0, 47.9062
17.323935431, 96.390, 2300.0, 47.9583
17.350195997, 96.390, 2353.0, 48.5077
17.376456562, 96.390, 2324.0, 48.2079
17.402717127, 96.390, 2312.0, 48.0833
17.428977693, 96.390, 2293.0, 47.8853
17.455238258, 96.390, 2333.0, 48.3011
17.481498823, 96.390, 2175.0, 46.6369
17.507759389, 96.390, 2283.0, 47.7807
17.534019954, 96.390, 2228.0, 47.2017
17.560280520, 96.390, 2255.0, 47.4868
17.586541085, 96.390, 2292.0, 47.8748
17.612801650, 96.390, 2257.0, 47.5079
17.639062216, 96.390, 2161.0, 46.4866
17.665322781, 96.390, 2242.0, 47.3498
17.691583346, 96.390, 2170.0, 46.5833
17.717843912, 96.390, 2231.0, 47.2335
17.744104477, 96.390, 2157.0, 46.4435
17.770365042, 96.390, 2233.0, 47.2546
17.796625608, 96.390, 2232.0, 47.2440
17.822886173, 96.390, 2264.0, 47.5815
17.849146738, 96.390, 2261.0, 47.5500
17.875407304, 96.390, 2180.0, 46.6905
17.901667869, 96.390, 2217.0, 47.0850
17.927928434, 96.390, 2194.0, 46.8402
17.954189000, 96.390, 2218.0, 47.0956
17.980449565, 96.390, 2312.0, 48.0833
18.006710131, 96.390, 2276.0, 47.7074
18.032970696, 96.390, 2337.0, 48.3425
18.059231261, 96.390, 2418.0, 49.1732
18.085491827, 96.390, 2353.0, 48.5077
18.111752392, 96.390, 2363.0, 48.6107
18.138012957, 96.390, 2298.0, 47.9375
18.164273523, 96.390, 2394.0, 48.9285
18.190534088, 96.390, 2333.0, 48.3011
18.216794653, 96.390, 2372.0, 48.7032
18.243055219, 96.390, 2406.0, 49.0510
18.269315784, 96.390, 2463.0, 49.6286
18.295576349, 96.390, 2472.0, 49.7192
18.321836915, 96.390, 2362.0, 48.6004
18.348097480, 96.390, 2353.0, 48.5077
18.374358046, 96.390, 2361.0, 48.5901
18.400618611, 96.390, 2549.0, 50.4876
18.426879176, 96.390, 2570.0, 50.6952
18.453139742, 96.390, 2583.0, 50.8232
18.479400307, 96.390, 2523.0, 50.2295
18.505660872, 96.390, 2410.0, 49.0918
18.531921438, 96.390, 2305.0, 48.0104
18.558182003, 96.390, 2350.0, 48.4768
18.584442568, 96.390, 2290.0, 47.8539
18.610703134, 96.390, 2333.0, 48.3011
18.636963699, 96.390, 2358.0, 48.5592
18.663224264, 96.390, 2306.0, 48.0208
18.689484830, 96.390, 2421.0, 49.2037
18.715745395, 96.390, 2410.0, 49.0918
18.742005960, 96.390, 2426.0, 49.2544
18.768266526, 96.390, 2449.0, 49.4874
18.794527091, 96.390, 2520.0, 50.1996
18.820787657, 96.390, 2781.0, 52.7352
18.847048222, 96.390, 2882.0, 53.6843
18.873308787, 96.390, 2937.0, 54.1941
18.899569353, 96.390, 3012.0, 54.8817
18.925829918, 96.390, 3000.0, 54.7723
18.952090483, 96.390, 2976.0, 54.5527
18.978351049, 96.390, 3105.0, 55.7225
19.004611614, 96.390, 2945.0, 54.2679
19.030872179, 96.390, 2859.0, 53.4696
19.057132745, 96.390, 2735.0, 52.2972
19.083393310, 96.390, 2707.0, 52.0288
19.109653875, 96.390, 2646.0, 51.4393
19.135914441, 96.390, 2592.0, 50.9117
19.162175006, 96.390, 2444.0, 49.4368
19.188435572, 96.390, 2519.0, 50.1896
19.214696137, 96.390, 2490.0, 49.8999
19.240956702, 96.390, 2449.0, 49.4874
19.267217268, 96.390, 2502.0, 50.0200
19.293477833, 96.390, 2455.0, 49.5480
19.319738398, 96.390, 2543.0, 50.4282
19.345998964, 96.390, 2589.0, 50.8822
19.372259529, 96.390, 2593.0, 50.9215
19.398520094, 96.390, 2541.0, 50.4083
19.424780660, 96.390, 2567.0, 50.6656
19.451041225, 96.390, 2668.0, 51.6527
19.477301790, 96.390, 2502.0, 50.0200
19.503562356, 96.390, 2493.0, 49.9300
19.529822921, 96.390, 2445.0, 49.4469
19.556083486, 96.390, 2566.0, 50.6557
19.582344052, 96.390, 2551.0, 50.5074
19.608604617, 96.390, 2417.0, 49.1630
19.634865183, 96.390, 2568.0, 50.6754
19.661125748, 96.390, 2625.0, 51.2348
19.687386313, 96.390, 2590.0, 50.8920
19.713646879, 96.390, 2720.0, 52.1536
19.739907444, 96.390, 3043.0, 55.1634
19.766168009, 96.390, 3059.0, 55.3082
19.792428575, 96.390, 3007.0, 54.8361
19.818689140, 96.390, 2963.0, 54.4334
19.844949705, 96.390, 2831.0, 53.2071
19.871210271, 96.390, 2847.0, 53.3573
19.897470836, 96.390, 2785.0, 52.7731
19.923731401, 96.390, 3058.0, 55.2992
19.949991967, 96.390, 3201.0, 56.5774
19.976252532, 96.390, 3185.0, 56.4358
20.002513097, 96.390, 2943.0, 54.2494
20.028773663, 96.390, 3011.0, 54.8726
20.055034228, 96.390, 2772.0, 52.6498
20.081294794, 96.390, 2654.0, 51.5170
20.107555359, 96.390, 2518.0, 50.1797
20.133815924, 96.390, 2547.0, 50.4678
20.160076490, 96.390, 2531.0, 50.3090
20.186337055, 96.390, 2511.0, 50.1099
20.212597620, 96.390, 2647.0, 51.4490
20.238858186, 96.390, 2713.0, 52.0865
20.265118751, 96.390, 2555.0, 50.5470
20.291379316, 96.390, 2750.0, 52.4404
20.317639882, 96.390, 2713.0, 52.0865
20.343900447, 96.390, 2859.0, 53.4696
20.370161012, 96.390, 2938.0, 54.2033
20.396421578, 96.390, 3463.0, 58.8473
20.422682143, 96.390, 3591.0, 59.9250
20.448942709, 96.390, 3325.0, 57.6628
20.475203274, 96.390, 3282.0, 57.2887
20.501463839, 96.390, 3061.0, 55.3263
20.527724405, 96.390, 3313.0, 57.5587
20.553984970, 96.390, 3325.0, 57.6628
20.580245535, 96.390, 3267.0, 57.1577
20.606506101, 96.390, 3471.0, 58.9152
20.632766666, 96.390, 3711.0, 60.9180
20.659027231, 96.390, 4069.0, 63.7887
20.685287797, 96.390, 4256.0, 65.2380
20.711548362, 96.390, 3996.0, 63.2139
20.737808927, 96.390, 3861.0, 62.1369
20.764069493, 96.390, 3392.0, 58.2409
20.790330058, 96.390, 3005.0, 54.8179
20.816590623, 96.390, 2840.0, 53.2917
20.842851189, 96.390, 2815.0, 53.0566
20.869111754, 96.390, 2756.0, 52.4976
20.895372320, 96.390, 2829.0, 53.1883
20.921632885, 96.390, 2712.0, 52.0769
20.947893450, 96.390, 2799.0, 52.9056
20.974154016, 96.390, 2935.0, 54.1756
21.000414581, 96.390, 3055.0, 55.2721
21.026675146, 96.390, 2864.0, 53.5164
21.052935712, 96.390, 2859.0, 53.4696
21.079196277, 96.390, 2748.0, 52.4214
21.105456842, 96.390, 2698.0, 51.9423
21.131717408, 96.390, 2748.0, 52.4214
21.157977973, 96.390, 2683.0, 51.7977
21.184238538, 96.390, 2747.0, 52.4118
21.210499104, 96.390, 2858.0, 53.4603
21.236759669, 96.390, 2729.0, 52.2398
21.263020235, 96.390, 2817.0, 53.0754
21.289280800, 96.390, 2853.0, 53.4135
21.315541365, 96.390, 2864.0, 53.5164
21.341801931, 96.390, 2798.0, 52.8961
21.368062496, 96.390, 2791.0, 52.8299
21.394323061, 96.390, 2743.0, 52.3737
21.420583627, 96.390, 2753.0, 52.4690
21.446844192, 96.390, 2730.0, 52.2494
21.473104757, 96.390, 2635.0, 51.3323
21.499365323, 96.390, 2698.0, 51.9423
21.525625888, 96.390, 2788.0, 52.8015
21.551886453, 96.390, 2763.0, 52.5642
21.578147019, 96.390, 2921.0, 54.0463
21.604407584, 96.390, 3023.0, 54.9818
21.630668149, 96.390, 3063.0, 55.3444
21.656928715, 96.390, 3073.0, 55.4346
21.683189280, 96.390, 2992.0, 54.6992
21.709449846, 96.390, 2926.0, 54.0925
21.735710411, 96.390, 2824.0, 53.1413
21.761970976, 96.390, 2865.0, 53.5257
21.788231542, 96.390, 2655.0, 51.5267
21.814492107, 96.390, 2662.0, 51.5946
21.840752672, 96.390, 2554.0, 50.5371
21.867013238, 96.390, 2652.0, 51.4976
21.893273803, 96.390, 2578.0, 50.7740
21.919534368, 96.390, 2766.0, 52.5928
21.945794934, 96.390, 2664.0, 51.6140
21.972055499, 96.390, 2731.0, 52.2590
21.998316064, 96.390, 2644.0, 51.4198
22.024576630, 96.390, 2669.0, 51.6624
22.050837195, 96.390, 2658.0, 51.5558
22.077097761, 96.390, 2835.0, 53.2447
22.103358326, 96.390, 2765.0, 52.5833
22.129618891, 96.390, 2679.0, 51.7591
22.155879457, 96.390, 2757.0, 52.5071
22.182140022, 96.390, 2677.0, 51.7397
22.208400587, 96.390, 2552.0, 50.5173
22.234661153, 96.390, 2608.0, 51.0686
22.260921718, 96.390, 2625.0, 51.2348
22.287182283, 96.390, 2686.0, 51.8266
22.313442849, 96.390, 2669.0, 51.6624
22.339703414, 96.390, 2551.0, 50.5074
22.365963979, 96.390, 2613.0, 51.1175
22.392224545, 96.390, 2667.0, 51.6430
22.418485110, 96.390, 2638.0, 51.3615
22.444745675, 96.390, 2663.0, 51.6043
22.471006241, 96.390, 2696.0, 51.9230
22.497266806, 96.390, 2624.0, 51.2250
22.523527372, 96.390, 2795.0, 52.8678
22.549787937, 96.390, 2715.0, 52.1057
22.576048502, 96.390, 2804.0, 52.9528
22.602309068, 96.390, 2739.0, 52.3355
22.628569633, 96.390, 2727.0, 52.2207
22.654830198, 96.390, 2765.0, 52.5833
22.681090764, 96.390, 2703.0, 51.9904
22.707351329, 96.390, 2823.0, 53.1319
22.733611894, 96.390, 2760.0, 52.5357
22.759872460, 96.390, 2867.0, 53.5444
22.786133025, 96.390, 3016.0, 54.9181
22.812393590, 96.390, 3097.0, 55.6507
22.838654156, 96.390, 3018.0, 54.9363
22.864914721, 96.390, 3177.0, 56.3649
22.891175287, 96.390, 3078.0, 55.4797
22.917435852, 96.390, 3005.0, 54.8179
22.943696417, 96.390, 2913.0, 53.9722
22.969956983, 96.390, 2918.0, 54.0185
22.996217548, 96.390, 2897.0, 53.8238
23.022478113, 96.390, 2943.0, 54.2494
23.048738679, 96.390, 2942.0, 54.2402
23.074999244, 96.390, 2912.0, 53.9630
23.101259809, 96.390, 2962.0, 54.4243
23.127520375, 96.390, 3033.0, 55.0727
23.153780940, 96.390, 3129.0, 55.9375
23.180041505, 96.390, 3051.0, 55.2359
23.206302071, 96.390, 2999.0, 54.7631
23.232562636, 96.390, 2934.0, 54.1664
23.258823201, 96.390, 2884.0, 53.7029
23.285083767, 96.390, 2895.0, 53.8052
23.311344332, 96.390, 2746.0, 52.4023
23.337604898, 96.390, 3064.0, 55.3534
23.363865463, 96.390, 2934.0, 54.1664
23.390126028, 96.390, 3022.0, 54.9727
23.416386594, 96.390, 2799.0, 52.9056
23.442647159, 96.390, 2863.0, 53.5070
23.468907724, 96.390, 2916.0, 54.0000
23.495168290, 96.390, 3444.0, 58.6856
23.521428855, 96.390, 3598.0, 59.9833
23.547689420, 96.390, 3222.0, 56.7627
23.573949986, 96.390, 3254.0, 57.0438
23.600210551, 96.390, 2906.0, 53.9073
23.626471116, 96.390, 2737.0, 52.3163
23.652731682, 96.390, 2605.0, 51.0392
23.678992247, 96.390, 2623.0, 51.2152
23.705252813, 96.390, 2621.0, 51.1957
23.731513378, 96.390, 2484.0, 49.8397
23.757773943, 96.390, 2470.0, 49.6991
23.784034509, 96.390, 2563.0, 50.6261
23.810295074, 96.390, 2633.0, 51.3128
23.836555639, 96.390, 2599.0, 50.9804
23.862816205, 96.390, 2497.0, 49.9700
23.889076770, 96.390, 2498.0, 49.9800
23.915337335, 96.390, 2484.0, 49.8397
23.941597901, 96.390, 2449.0, 49.4874
23.967858466, 96.390, 2497.0, 49.9700
23.994119031, 96.390, 2514.0, 50.1398
24.020379597, 96.390, 2434.0, 49.3356
24.046640162, 96.390, 2583.0, 50.8232
24.072900727, 96.390, 2526.0, 50.2593
24.099161293, 96.390, 2597.0, 50.9608
24.125421858, 96.390, 2618.0, 51.1664
24.151682424, 96.390, 2774.0, 52.6688
24.177942989, 96.390, 2891.0, 53.7680
24.204203554, 96.390, 2866.0, 53.5350
24.230464120, 96.390, 2740.0, 52.3450
24.256724685, 96.390, 2698.0, 51.9423
24.282985250, 96.390, 2548.0, 50.4777
24.309245816, 96.390, 2535.0, 50.3488
24.335506381, 96.390, 2542.0, 50.4183
24.361766946, 96.390, 2416.0, 49.1528
24.388027512, 96.390, 2376.0, 48.7442
24.414288077, 96.390, 2385.0, 48.8365
24.440548642, 96.390, 2506.0, 50.0600
24.466809208, 96.390, 2411.0, 49.1019
24.493069773, 96.390, 2516.0, 50.1597
24.519330338, 96.390, 2987.0, 54.6535
24.545590904, 96.390, 3364.0, 58.0000
24.571851469, 96.390, 2871.0, 53.5817
24.598112035, 96.390, 2890.0, 53.7587
24.624372600, 96.390, 2720.0, 52.1536
24.650633165, 96.390, 2464.0, 49.6387
24.676893731, 96.390, 2372.0, 48.7032
24.703154296, 96.390, 2275.0, 47.6970
24.729414861, 96.390, 2442.0, 49.4166
24.755675427, 96.390, 2287.0, 47.8226
24.781935992, 96.390, 2302.0, 47.9792
24.808196557, 96.390, 2289.0, 47.8435
24.834457123, 96.390, 2225.0, 47.1699
24.860717688, 96.390, 2122.0, 46.0652
24.886978253, 96.390, 2253.0, 47.4658
24.913238819, 96.390, 2232.0, 47.2440
24.939499384, 96.390, 2248.0, 47.4131
24.965759950, 96.390, 2255.0, 47.4868
24.992020515, 96.390, 2162.0, 46.4973
25.018281080, 96.390, 2239.0, 47.3181
25.044541646, 96.390, 2305.0, 48.0104
25.070802211, 96.390, 2206.0, 46.9681
25.097062776, 96.390, 2139.0, 46.2493
25.123323342, 96.390, 2265.0, 47.5920
25.149583907, 96.390, 2184.0, 46.7333
25.175844472, 96.390, 2262.0, 47.5605
25.202105038, 96.390, 2191.0, 46.8081
25.228365603, 96.390, 2158.0, 46.4543
25.254626168, 96.390, 2260.0, 47.5395
25.280886734, 96.390, 2248.0, 47.4131
25.307147299, 96.390, 2289.0, 47.8435
25.333407864, 96.390, 2886.0, 53.7215
25.359668430, 96.390, 3388.0, 58.2065
25.385928995, 96.390, 2989.0, 54.6717
25.412189561, 96.390, 3010.0, 54.8635
25.438450126, 96.390, 2824.0, 53.1413
25.464710691, 96.390, 2479.0, 49.7896
25.490971257, 96.390, 2264.0, 47.5815
25.517231822, 96.390, 2245.0, 47.3814
25.543492387, 96.390, 2142.0, 46.2817
25.569752953, 96.390, 2181.0, 46.7012
25.596013518, 96.390, 2173.0, 46.6154
25.622274083, 96.390, 2051.0, 45.2880
25.648534649, 96.390, 2052.0, 45.2990
25.674795214, 96.390, 2114.0, 45.9783
25.701055779, 96.390, 2108.0, 45.9130
25.727316345, 96.390, 2043.0, 45.1996
25.753576910, 96.390, 2131.0, 46.1628
25.779837476, 96.390, 2061.0, 45.3982
25.806098041, 96.390, 2097.0, 45.7930
25.832358606, 96.390, 2158.0, 46.4543
25.858619172, 96.390, 2138.0, 46.2385
25.884879737, 96.390, 2085.0, 45.6618
25.911140302, 96.390, 2117.0, 46.0109
25.937400868, 96.390, 2048.0, 45.2548
25.963661433, 96.390, 2147.0, 46.3357
25.989921998, 96.390, 2074.0, 45.5412
26.016182564, 96.390, 2073.0, 45.5302
26.042443129, 96.390, 2013.0, 44.8665
26.068703694, 96.390, 1974.0, 44.4297
26.094964260, 96.390, 1919.0, 43.8064
26.121224825, 96.390, 1940.0, 44.0454
26.147485390, 96.390, 1937.0, 44.0114
26.173745956, 96.390, 1937.0, 44.0114
26.200006521, 96.390, 2067.0, 45.4643
26.226267087, 96.390, 2012.0, 44.8553
26.252527652, 96.390, 1980.0, 44.4972
26.278788217, 96.390, 2037.0, 45.1331
26.305048783, 96.390, 1991.0, 44.6206
26.331309348, 96.390, 2059.0, 45.3762
26.357569913, 96.390, 1948.0, 44.1362
26.383830479, 96.390, 2098.0, 45.8039
26.410091044, 96.390, 2129.0, 46.1411
26.436351609, 96.390, 2086.0, 45.6727
26.462612175, 96.390, 2067.0, 45.4643
26.488872740, 96.390, 2042.0, 45.1885
26.515133305, 96.390, 2043.0, 45.1996
26.541393871, 96.390, 2016.0, 44.8999
26.567654436, 96.390, 2022.0, 44.9667
26.593915002, 96.390, 2076.0, 45.5631
26.620175567, 96.390, 2045.0, 45.2217
26.646436132, 96.390, 2082.0, 45.6289
26.672696698, 96.390, 2105.0, 45.8803
26.698957263, 96.390, 2165.0, 46.5296
26.725217828, 96.390, 2235.0, 47.2758
26.751478394, 96.390, 2352.0, 48.4974
26.777738959, 96.390, 2476.0, 49.7594
26.803999524, 96.390, 2526.0, 50.2593
26.830260090, 96.390, 2396.0, 48.9490
26.856520655, 96.390, 2366.0, 48.6415
26.882781220, 96.390, 2272.0, 47.6655
26.909041786, 96.390, 2317.0, 48.1352
26.935302351, 96.390, 2299.0, 47.9479
26.961562916, 96.390, 2241.0, 47.3392
26.987823482, 96.390, 2439.0, 49.3862
27.014084047, 96.390, 2542.0, 50.4183
27.040344613, 96.390, 2608.0, 51.0686
27.066605178, 96.390, 2628.0, 51.2640
27.092865743, 96.390, 2715.0, 52.1057
27.119126309, 96.390, 2733.0, 52.2781
27.145386874, 96.390, 2889.0, 53.7494
27.171647439, 96.390, 3009.0, 54.8544
27.197908005, 96.390, 2976.0, 54.5527
27.224168570, 96.390, 2850.0, 53.3854
27.250429135, 96.390, 2597.0, 50.9608
27.276689701, 96.390, 2403.0, 49.0204
27.302950266, 96.390, 2228.0, 47.2017
27.329210831, 96.390, 2155.0, 46.4220
27.355471397, 96.390, 2065.0, 45.4423
27.381731962, 96.390, 2079.0, 45.5961
27.407992528, 96.390, 1969.0, 44.3734
27.434253093, 96.390, 1904.0, 43.6348
27.460513658, 96.390, 1962.0, 44.2945
27.486774224, 96.390, 1902.0, 43.6119
27.513034789, 96.390, 1950.0, 44.1588
27.539295354, 96.390, 1786.0, 42.2611
27.565555920, 96.390, 1937.0, 44.0114
27.591816485, 96.390, 1888.0, 43.4511
27.618077050, 96.390, 1850.0, 43.0116
27.644337616, 96.390, 1914.0, 43.7493
27.670598181, 96.390, 1927.0, 43.8976
27.696858746, 96.390, 1958.0, 44.2493
27.723119312, 96.390, 1920.0, 43.8178
27.749379877, 96.390, 1832.0, 42.8019
27.775640442, 96.390, 1865.0, 43.1856
27.801901008, 96.390, 1816.0, 42.6146
27.828161573, 96.390, 1857.0, 43.0929
27.854422139, 96.390, 1854.0, 43.0581
27.880682704, 96.390, 1834.0, 42.8252
27.906943269, 96.390, 1904.0, 43.6348
27.933203835, 96.390, 1920.0, 43.8178
27.959464400, 96.390, 1951.0, 44.1701
27.985724965, 96.390, 1848.0, 42.9884
28.011985531, 96.390, 1878.0, 43.3359
28.038246096, 96.390, 1945.0, 44.1022
28.064506661, 96.390, 2012.0, 44.8553
28.090767227, 96.390, 1930.0, 43.9318
28.117027792, 96.390, 1966.0, 44.3396
28.143288357, 96.390, 1952.0, 44.1814
28.169548923, 96.390, 1882.0, 43.3820
28.195809488, 96.390, 1925.0, 43.8748
28.222070054, 96.390, 2009.0, 44.8219
28.248330619, 96.390, 2078.0, 45.5851
28.274591184, 96.390, 1948.0, 44.1362
28.300851750, 96.390, 2020.0, 44.9444
28.327112315, 96.390, 2037.0, 45.1331
28.353372880, 96.390, 2046.0, 45.2327
28.379633446, 96.390, 2099.0, 45.8148
28.405894011, 96.390, 1921.0, 43.8292
28.432154576, 96.390, 1939.0, 44.0341
28.458415142, 96.390, 1922.0, 43.8406
28.484675707, 96.390, 1988.0, 44.5870
28.510936272, 96.390, 1925.0, 43.8748
28.537196838, 96.390, 1940.0, 44.0454
28.563457403, 96.390, 1924.0, 43.8634
28.589717968, 96.390, 1953.0, 44.1928
28.615978534, 96.390, 1878.0, 43.3359
28.642239099, 96.390, 1890.0, 43.4741
28.668499665, 96.390, 1871.0, 43.2551
28.694760230, 96.390, 1865.0, 43.1856
28.721020795, 96.390, 1896.0, 43.5431
28.747281361, 96.390, 2003.0, 44.7549
28.773541926, 96.390, 1980.0, 44.4972
28.799802491, 96.390, 1883.0, 43.3935
28.826063057, 96.390, 2113.0, 45.9674
28.852323622, 96.390, 1943.0, 44.0795
28.878584187, 96.390, 1998.0, 44.6990
28.904844753, 96.390, 1972.0, 44.4072
28.931105318, 96.390, 1995.0, 44.6654
28.957365883, 96.390, 2016.0, 44.8999
28.983626449, 96.390, 1912.0, 43.7264
29.009887014, 96.390, 2046.0, 45.2327
29.036147579, 96.390, 2024.0, 44.9889
29.062408145, 96.390, 2023.0, 44.9778
29.088668710, 96.390, 2152.0, 46.3897
29.114929276, 96.390, 2230.0, 47.2229
29.141189841, 96.390, 2303.0, 47.9896
29.167450406, 96.390, 2291.0, 47.8644
29.193710972, 96.390, 2267.0, 47.6130
29.219971537, 96.390, 2353.0, 48.5077
29.246232102, 96.390, 2428.0, 49.2747
29.272492668, 96.390, 2618.0, 51.1664
29.298753233, 96.390, 2572.0, 50.7149
29.325013798, 96.390, 2541.0, 50.4083
29.351274364, 96.390, 2426.0, 49.2544
29.377534929, 96.390, 2433.0, 49.3254
29.403795494, 96.390, 2449.0, 49.4874
29.430056060, 96.390, 2446.0, 49.4571
29.456316625, 96.390, 2434.0, 49.3356
29.482577191, 96.390, 2376.0, 48.7442
29.508837756, 96.390, 2368.0, 48.6621
29.535098321, 96.390, 2192.0, 46.8188
29.561358887, 96.390, 2097.0, 45.7930
29.587619452, 96.390, 2041.0, 45.1774
29.613880017, 96.390, 2084.0, 45.6508
29.640140583, 96.390, 2016.0, 44.8999
29.666401148, 96.390, 1986.0, 44.5646
29.692661713, 96.390, 2018.0, 44.9222
29.718922279, 96.390, 2051.0, 45.2880
29.745182844, 96.390, 2012.0, 44.8553
29.771443409, 96.390, 1928.0, 43.9090
29.797703975, 96.390, 1833.0, 42.8135
29.823964540, 96.390, 1898.0, 43.5660
29.850225105, 96.390, 1820.0, 42.6615
29.876485671, 96.390, 1874.0, 43.2897
29.902746236, 96.390, 1984.0, 44.5421
29.929006802, 96.390, 1867.0, 43.2088
29.955267367, 96.390, 1925.0, 43.8748
29.981527932, 96.390, 1920.0, 43.8178
30.007788498, 96.390, 1918.0, 43.7950
30.034049063, 96.390, 1819.0, 42.6497
30.060309628, 96.390, 1892.0, 43.4971
30.086570194, 96.390, 1917.0, 43.7836
30.112830759, 96.390, 1854.0, 43.0581
30.139091324, 96.390, 1822.0, 42.6849
30.165351890, 96.390, 1823.0, 42.6966
30.191612455, 96.390, 1930.0, 43.9318
30.217873020, 96.390, 1824.0, 42.7083
30.244133586, 96.390, 1922.0, 43.8406
30.270394151, 96.390, 1954.0, 44.2041
30.296654717, 96.390, 1918.0, 43.7950
30.322915282, 96.390, 1925.0, 43.8748
30.349175847, 96.390, 1930.0, 43.9318
30.375436413, 96.390, 1941.0, 44.0568
30.401696978, 96.390, 1981.0, 44.5084
30.427957543, 96.390, 1942.0, 44.0681
30.454218109, 96.390, 1993.0, 44.6430
30.480478674, 96.390, 2019.0, 44.9333
30.506739239, 96.390, 1940.0, 44.0454
30.532999805, 96.390, 1975.0, 44.4410
30.559260370, 96.390, 1944.0, 44.0908
30.585520935, 96.390, 2109.0, 45.9239
30.611781501, 96.390, 2146.0, 46.3249
30.638042066, 96.390, 2261.0, 47.5500
30.664302631, 96.390, 2318.0, 48.1456
30.690563197, 96.390, 2555.0, 50.5470
30.716823762, 96.390, 2957.0, 54.3783
30.743084328, 96.390, 2583.0, 50.8232
30.769344893, 96.390, 2421.0, 49.2037
30.795605458, 96.390, 2554.0, 50.5371
30.821866024, 96.390, 2331.0, 48.2804
30.848126589, 96.390, 2168.0, 46.5618
30.874387154, 96.390, 2146.0, 46.3249
30.900647720, 96.390, 2116.0, 46.0000
30.926908285, 96.390, 2070.0, 45.4973
30.953168850, 96.390, 1958.0, 44.2493
30.979429416, 96.390, 2033.0, 45.0888
31.005689981, 96.390, 2115.0, 45.9891
31.031950546, 96.390, 2021.0, 44.9555
31.058211112, 96.390, 2054.0, 45.3211
31.084471677, 96.390, 2131.0, 46.1628
31.110732243, 96.390, 2201.0, 46.9148
31.136992808, 96.390, 2185.0, 46.7440
31.163253373, 96.390, 2435.0, 49.3457
31.189513939, 96.390, 2644.0, 51.4198
31.215774504, 96.390, 2680.0, 51.7687
31.242035069, 96.390, 2671.0, 51.6817
31.268295635, 96.390, 2674.0, 51.7107
31.294556200, 96.390, 2772.0, 52.6498
31.320816765, 96.390, 2661.0, 51.5849
31.347077331, 96.390, 2535.0, 50.3488
31.373337896, 96.390, 2573.0, 50.7247
31.399598461, 96.390, 2493.0, 49.9300
31.425859027, 96.390, 2508.0, 50.0799
31.452119592, 96.390, 2551.0, 50.5074
31.478380157, 96.390, 2597.0, 50.9608
31.504640723, 96.390, 2374.0, 48.7237
31.530901288, 96.390, 2333.0, 48.3011
31.557161854, 96.390, 2261.0, 47.5500
31.583422419, 96.390, 2359.0, 48.5695
31.609682984, 96.390, 2298.0, 47.9375
31.635943550, 96.390, 2317.0, 48.1352
31.662204115, 96.390, 2460.0, 49.5984
31.688464680, 96.390, 3097.0, 55.6507
31.714725246, 96.390, 6977.0, 83.5284
31.740985811, 96.390, 4981.0, 70.5762
31.767246376, 96.390, 2961.0, 54.4151
31.793506942, 96.390, 4235.0, 65.0769
31.819767507, 96.390, 3588.0, 59.8999
31.846028072, 96.390, 2328.0, 48.2494
31.872288638, 96.390, 2155.0, 46.4220
31.898549203, 96.390, 2106.0, 45.8912
31.924809769, 96.390, 2161.0, 46.4866
31.951070334, 96.390, 2494.0, 49.9400
31.977330899, 96.390, 2539.0, 50.3885
32.003591465, 96.390, 2764.0, 52.5738
32.029852030, 96.390, 3096.0, 55.6417
32.056112595, 96.390, 3142.0, 56.0535
32.082373161, 96.390, 3013.0, 54.8908
32.108633726, 96.390, 2764.0, 52.5738
32.134894291, 96.390, 2665.0, 51.6236
32.161154857, 96.390, 2508.0, 50.0799
32.187415422, 96.390, 2432.0, 49.3153
32.213675987, 96.390, 2281.0, 47.7598
32.239936553, 96.390, 2294.0, 47.8957
32.266197118, 96.390, 2324.0, 48.2079
32.292457683, 96.390, 2307.0, 48.0312
32.318718249, 96.390, 2255.0, 47.4868
32.344978814, 96.390, 2070.0, 45.4973
32.371239380, 96.390, 2055.0, 45.3321
32.397499945, 96.390, 1916.0, 43.7721
32.423760510, 96.390, 1901.0, 43.6005
32.450021076, 96.390, 1808.0, 42.5206
32.476281641, 96.390, 1855.0, 43.0697
32.502542206, 96.390, 1831.0, 42.7902
32.528802772, 96.390, 1874.0, 43.2897
32.555063337, 96.390, 1777.0, 42.1545
32.581323902, 96.390, 1955.0, 44.2154
32.607584468, 96.390, 1840.0, 42.8952
32.633845033, 96.390, 1862.0, 43.1509
32.660105598, 96.390, 1909.0, 43.6921
32.686366164, 96.390, 1877.0, 43.3244
32.712626729, 96.390, 1987.0, 44.5758
32.738887295, 96.390, 1888.0, 43.4511
32.765147860, 96.390, 1882.0, 43.3820
32.791408425, 96.390, 1912.0, 43.7264
32.817668991, 96.390, 1919.0, 43.8064
32.843929556, 96.390, 1844.0, 42.9418
32.870190121, 96.390, 1881.0, 43.3705
32.896450687, 96.390, 1920.0, 43.8178
32.922711252, 96.390, 2023.0, 44.9778
32.948971817, 96.390, 2130.0, 46.1519
32.975232383, 96.390, 2145.0, 46.3141
33.001492948, 96.390, 2071.0, 45.5082
33.027753513, 96.390, 2223.0, 47.1487
33.054014079, 96.390, 2085.0, 45.6618
33.080274644, 96.390, 2202.0, 46.9255
33.106535209, 96.390, 2217.0, 47.0850
33.132795775, 96.390, 2243.0, 47.3603
33.159056340, 96.390, 2107.0, 45.9021
33.185316906, 96.390, 2078.0, 45.5851
33.211577471, 96.390, 2163.0, 46.5081
33.237838036, 96.390, 2112.0, 45.9565
33.264098602, 96.390, 2098.0, 45.8039
33.290359167, 96.390, 2210.0, 47.0106
33.316619732, 96.390, 2158.0, 46.4543
33.342880298, 96.390, 2067.0, 45.4643
33.369140863, 96.390, 2155.0, 46.4220
33.395401428, 96.390, 2191.0, 46.8081
33.421661994, 96.390, 2403.0, 49.0204
33.447922559, 96.390, 3733.0, 61.0983
33.474183124, 96.390, 3772.0, 61.4166
33.500443690, 96.390, 2711.0, 52.0673
33.526704255, 96.390, 2745.0, 52.3927
33.552964820, 96.390, 2988.0, 54.6626
33.579225386, 96.390, 2383.0, 48.8160
33.605485951, 96.390, 2114.0, 45.9783
33.631746517, 96.390, 1968.0, 44.3621
33.658007082, 96.390, 2001.0, 44.7325
33.684267647, 96.390, 2014.0, 44.8776
33.710528213, 96.390, 1913.0, 43.7379
33.736788778, 96.390, 2036.0, 45.1221
33.763049343, 96.390, 2099.0, 45.8148
33.789309909, 96.390, 2054.0, 45.3211
33.815570474, 96.390, 2049.0, 45.2659
33.841831039, 96.390, 2182.0, 46.7119
33.868091605, 96.390, 2207.0, 46.9787
33.894352170, 96.390, 2353.0, 48.5077
33.920612735, 96.390, 2421.0, 49.2037
33.946873301, 96.390, 2437.0, 49.3660
33.973133866, 96.390, 2582.0, 50.8134
33.999394432, 96.390, 2544.0, 50.4381
34.025654997, 96.390, 2403.0, 49.0204
34.051915562, 96.390, 2333.0, 48.3011
34.078176128, 96.390, 2318.0, 48.1456
34.104436693, 96.390, 2280.0, 47.7493
34.130697258, 96.390, 2298.0, 47.9375
34.156957824, 96.390, 2241.0, 47.3392
34.183218389, 96.390, 2246.0, 47.3920
34.209478954, 96.390, 2261.0, 47.5500
34.235739520, 96.390, 2367.0, 48.6518
34.262000085, 96.390, 2337.0, 48.3425
34.288260650, 96.390, 2360.0, 48.5798
34.314521216, 96.390, 2411.0, 49.1019
34.340781781, 96.390, 2491.0, 49.9099
34.367042346, 96.390, 2337.0, 48.3425
34.393302912, 96.390, 2438.0, 49.3761
34.419563477, 96.390, 2539.0, 50.3885
34.445824043, 96.390, 2596.0, 50.9510
34.472084608, 96.390, 2652.0, 51.4976
34.498345173, 96.390, 2755.0, 52.4881
34.524605739, 96.390, 2847.0, 53.3573
34.550866304, 96.390, 2897.0, 53.8238
34.577126869, 96.390, 2862.0, 53.4977
34.603387435, 96.390, 2854.0, 53.4228
34.629648000, 96.390, 2823.0, 53.1319
34.655908565, 96.390, 2738.0, 52.3259
34.682169131, 96.390, 2693.0, 51.8941
34.708429696, 96.390, 2495.0, 49.9500
34.734690261, 96.390, 2514.0, 50.1398
34.760950827, 96.390, 2472.0, 49.7192
34.787211392, 96.390, 2539.0, 50.3885
34.813471958, 96.390, 2440.0, 49.3964
34.839732523, 96.390, 2517.0, 50.1697
34.865993088, 96.390, 2474.0, 49.7393
34.892253654, 96.390, 2681.0, 51.7784
34.918514219, 96.390, 2840.0, 53.2917
34.944774784, 96.390, 2962.0, 54.4243
34.971035350, 96.390, 2937.0, 54.1941
34.997295915, 96.390, 2897.0, 53.8238
35.023556480, 96.390, 2722.0, 52.1728
35.049817046, 96.390, 2649.0, 51.4684
35.076077611, 96.390, 2528.0, 50.2792
35.102338176, 96.390, 2365.0, 48.6313
35.128598742, 96.390, 2448.0, 49.4773
35.154859307, 96.390, 2399.0, 48.9796
35.181119872, 96.390, 2438.0, 49.3761
35.207380438, 96.390, 2528.0, 50.2792
35.233641003, 96.390, 2528.0, 50.2792
35.259901569, 96.390, 2363.0, 48.6107
35.286162134, 96.390, 2360.0, 48.5798
35.312422699, 96.390, 2311.0, 48.0729
35.338683265, 96.390, 2154.0, 46.4112
35.364943830, 96.390, 2139.0, 46.2493
35.391204395, 96.390, 2060.0, 45.3872
35.417464961, 96.390, 2062.0, 45.4093
35.443725526, 96.390, 2097.0, 45.7930
35.469986091, 96.390, 2131.0, 46.1628
35.496246657, 96.390, 2040.0, 45.1664
35.522507222, 96.390, 2086.0, 45.6727
35.548767787, 96.390, 2047.0, 45.2438
35.575028353, 96.390, 2142.0, 46.2817
35.601288918, 96.390, 2137.0, 46.2277
35.627549484, 96.390, 2053.0, 45.3100
35.653810049, 96.390, 2114.0, 45.9783
35.680070614, 96.390, 2232.0, 47.2440
35.706331180, 96.390, 2120.0, 46.0435
35.732591745, 96.390, 2184.0, 46.7333
35.758852310, 96.390, 2099.0, 45.8148
35.785112876, 96.390, 2184.0, 46.7333
35.811373441, 96.390, 2249.0, 47.4236
35.837634006, 96.390, 2124.0, 46.0869
35.863894572, 96.390, 2213.0, 47.0425
35.890155137, 96.390, 2377.0, 48.7545
35.916415702, 96.390, 2523.0, 50.2295
35.942676268, 96.390, 2409.0, 49.0816
35.968936833, 96.390, 2508.0, 50.0799
35.995197398, 96.390, 2448.0, 49.4773
36.021457964, 96.390, 2478.0, 49.7795
36.047718529, 96.390, 2301.0, 47.9687
36.073979095, 96.390, 2326.0, 48.2286
36.100239660, 96.390, 2341.0, 48.3839
36.126500225, 96.390, 2381.0, 48.7955
36.152760791, 96.390, 2486.0, 49.8598
36.179021356, 96.390, 2503.0, 50.0300
36.205281921, 96.390, 2620.0, 51.1859
36.231542487, 96.390, 2368.0, 48.6621
36.257803052, 96.390, 2277.0, 47.7179
36.284063617, 96.390, 2185.0, 46.7440
36.310324183, 96.390, 2169.0, 46.5725
36.336584748, 96.390, 2199.0, 46.8935
36.362845313, 96.390, 2043.0, 45.1996
36.389105879, 96.390, 1915.0, 43.7607
36.415366444, 96.390, 1870.0, 43.2435
36.441627010, 96.390, 1884.0, 43.4051
36.467887575, 96.390, 1868.0, 43.2204
36.494148140, 96.390, 1848.0, 42.9884
36.520408706, 96.390, 1792.0, 42.3320
36.546669271, 96.390, 1780.0, 42.1900
36.572929836, 96.390, 1852.0, 43.0349
36.599190402, 96.390, 1855.0, 43.0697
36.625450967, 96.390, 2001.0, 44.7325
36.651711532, 96.390, 2019.0, 44.9333
36.677972098, 96.390, 1964.0, 44.3170
36.704232663, 96.390, 1891.0, 43.4856
36.730493228, 96.390, 1840.0, 42.8952
36.756753794, 96.390, 1811.0, 42.5558
36.783014359, 96.390, 1703.0, 41.2674
36.809274924, 96.390, 1746.0, 41.7852
36.835535490, 96.390, 1791.0, 42.3202
36.861796055, 96.390, 1792.0, 42.3320
36.888056621, 96.390, 1750.0, 41.8330
36.914317186, 96.390, 1718.0, 41.4488
36.940577751, 96.390, 1688.0, 41.0853
36.966838317, 96.390, 1669.0, 40.8534
36.993098882, 96.390, 1657.0, 40.7063
37.019359447, 96.390, 1775.0, 42.1307
37.045620013, 96.390, 1709.0, 41.3401
37.071880578, 96.390, 1708.0, 41.3280
37.098141143, 96.390, 1714.0, 41.4005
37.124401709, 96.390, 1741.0, 41.7253
37.150662274, 96.390, 1781.0, 42.2019
37.176922839, 96.390, 1836.0, 42.8486
37.203183405, 96.390, 1813.0, 42.5793
37.229443970, 96.390, 1809.0, 42.5323
37.255704535, 96.390, 1800.0, 42.4264
37.281965101, 96.390, 1886.0, 43.4281
37.308225666, 96.390, 1807.0, 42.5088
37.334486232, 96.390, 1820.0, 42.6615
37.360746797, 96.390, 1729.0, 41.5812
37.387007362, 96.390, 1876.0, 43.3128
37.413267928, 96.390, 1797.0, 42.3910
37.439528493, 96.390, 1834.0, 42.8252
37.465789058, 96.390, 1874.0, 43.2897
37.492049624, 96.390, 1889.0, 43.4626
37.518310189, 96.390, 1879.0, 43.3474
37.544570754, 96.390, 1876.0, 43.3128
37.570831320, 96.390, 1763.0, 41.9881
37.597091885, 96.390, 1811.0, 42.5558
37.623352450, 96.390, 1818.0, 42.6380
37.649613016, 96.390, 1870.0, 43.2435
37.675873581, 96.390, 1840.0, 42.8952
37.702134147, 96.390, 1923.0, 43.8520
37.728394712, 96.390, 1967.0, 44.3509
37.754655277, 96.390, 1941.0, 44.0568
37.780915843, 96.390, 2017.0, 44.9110
37.807176408, 96.390, 2107.0, 45.9021
37.833436973, 96.390, 2381.0, 48.7955
37.859697539, 96.390, 2272.0, 47.6655
37.885958104, 96.390, 2143.0, 46.2925
37.912218669, 96.390, 2001.0, 44.7325
37.938479235, 96.390, 2052.0, 45.2990
37.964739800, 96.390, 1986.0, 44.5646
37.991000365, 96.390, 1841.0, 42.9069
38.017260931, 96.390, 1853.0, 43.0465
38.043521496, 96.390, 1661.0, 40.7554
38.069782061, 96.390, 1792.0, 42.3320
38.096042627, 96.390, 1711.0, 41.3642
38.122303192, 96.390, 1745.0, 41.7732
38.148563758, 96.390, 1794.0, 42.3556
38.174824323, 96.390, 1763.0, 41.9881
38.201084888, 96.390, 1739.0, 41.7013
38.227345454, 96.390, 1813.0, 42.5793
38.253606019, 96.390, 1796.0, 42.3792
38.279866584, 96.390, 1657.0, 40.7063
38.306127150, 96.390, 1734.0, 41.6413
38.332387715, 96.390, 1642.0, 40.5216
38.358648280, 96.390, 1603.0, 40.0375
38.384908846, 96.390, 1632.0, 40.3980
38.411169411, 96.390, 1658.0, 40.7185
38.437429976, 96.390, 1539.0, 39.2301
38.463690542, 96.390, 1549.0, 39.3573
38.489951107, 96.390, 1634.0, 40.4228
38.516211673, 96.390, 1572.0, 39.6485
38.542472238, 96.390, 1633.0, 40.4104
38.568732803, 96.390, 1666.0, 40.8167
38.594993369, 96.390, 1670.0, 40.8656
38.621253934, 96.390, 1606.0, 40.0749
38.647514499, 96.390, 1756.0, 41.9047
38.673775065, 96.390, 1657.0, 40.7063
38.700035630, 96.390, 1588.0, 39.8497
38.726296195, 96.390, 1690.0, 41.1096
38.752556761, 96.390, 1660.0, 40.7431
38.778817326, 96.390, 1719.0, 41.4608
38.805077891, 96.390, 1708.0, 41.3280
38.831338457, 96.390, 1614.0, 40.1746
38.857599022, 96.390, 1633.0, 40.4104
38.883859587, 96.390, 1644.0, 40.5463
38.910120153, 96.390, 1569.0, 39.6106
38.936380718, 96.390, 1506.0, 38.8072
38.962641284, 96.390, 1421.0, 37.6962
38.988901849, 96.390, 1512.0, 38.8844
39.015162414, 96.390, 1450.0, 38.0789
39.041422980, 96.390, 1491.0, 38.6135
39.067683545, 96.390, 1508.0, 38.8330
39.093944110, 96.390, 1521.0, 39.0000
39.120204676, 96.390, 1494.0, 38.6523
39.146465241, 96.390, 1610.0, 40.1248
39.172725806, 96.390, 1639.0, 40.4846
39.198986372, 96.390, 1477.0, 38.4318
39.225246937, 96.390, 1619.0, 40.2368
39.251507502, 96.390, 1653.0, 40.6571
39.277768068, 96.390, 1635.0, 40.4351
39.304028633, 96.390, 1607.0, 40.0874
39.330289199, 96.390, 1609.0, 40.1123
39.356549764, 96.390, 1629.0, 40.3609
39.382810329, 96.390, 1585.0, 39.8121
39.409070895, 96.390, 1668.0, 40.8412
39.435331460, 96.390, 1703.0, 41.2674
39.461592025, 96.390, 1634.0, 40.4228
39.487852591, 96.390, 1614.0, 40.1746
39.514113156, 96.390, 1579.0, 39.7366
39.540373721, 96.390, 1581.0, 39.7618
39.566634287, 96.390, 1528.0, 39.0896
39.592894852, 96.390, 1550.0, 39.3700
39.619155417, 96.390, 1579.0, 39.7366
39.645415983, 96.390, 1564.0, 39.5474
39.671676548, 96.390, 1526.0, 39.0640
39.697937113, 96.390, 1550.0, 39.3700
39.724197679, 96.390, 1618.0, 40.2244
39.750458244, 96.390, 1550.0, 39.3700
39.776718810, 96.390, 1575.0, 39.6863
39.802979375, 96.390, 1575.0, 39.6863
39.829239940, 96.390, 1572.0, 39.6485
39.855500506, 96.390, 1497.0, 38.6911
39.881761071, 96.390, 1637.0, 40.4599
39.908021636, 96.390, 1563.0, 39.5348
39.934282202, 96.390, 1537.0, 39.2046
39.960542767, 96.390, 1549.0, 39.3573
39.986803332, 96.390, 1566.0, 39.5727
40.013063898, 96.390, 1574.0, 39.6737
40.039324463, 96.390, 1535.0, 39.1791
40.065585028, 96.390, 1529.0, 39.1024
40.091845594, 96.390, 1502.0, 38.7556
40.118106159, 96.390, 1471.0, 38.3536
40.144366725, 96.390, 1504.0, 38.7814
40.170627290, 96.390, 1522.0, 39.0128
40.196887855, 96.390, 1519.0, 38.9744
40.223148421, 96.390, 1453.0, 38.1182
40.249408986, 96.390, 1402.0, 37.4433
40.275669551, 96.390, 1362.0, 36.9053
40.301930117, 96.390, 1355.0, 36.8103
40.328190682, 96.390, 1384.0, 37.2022
40.354451247, 96.390, 1367.0, 36.9730
40.380711813, 96.390, 1371.0, 37.0270
40.406972378, 96.390, 1359.0, 36.8646
40.433232943, 96.390, 1404.0, 37.4700
40.459493509, 96.390, 1417.0, 37.6431
40.485754074, 96.390, 1466.0, 38.2884
40.512014639, 96.390, 1425.0, 37.7492
40.538275205, 96.390, 1502.0, 38.7556
40.564535770, 96.390, 1544.0, 39.2938
40.590796336, 96.390, 1462.0, 38.2361
40.617056901, 96.390, 1491.0, 38.6135
40.643317466, 96.390, 1467.0, 38.3014
40.669578032, 96.390, 1407.0, 37.5100
40.695838597, 96.390, 1393.0, 37.3229
40.722099162, 96.390, 1375.0, 37.0810
40.748359728, 96.390, 1409.0, 37.5366
40.774620293, 96.390, 1364.0, 36.9324
40.800880858, 96.390, 1305.0, 36.1248
40.827141424, 96.390, 1321.0, 36.3456
40.853401989, 96.390, 1335.0, 36.5377
40.879662554, 96.390, 1274.0, 35.6931
40.905923120, 96.390, 1286.0, 35.8608
40.932183685, 96.390, 1273.0, 35.6791
40.958444251, 96.390, 1335.0, 36.5377
40.984704816, 96.390, 1358.0, 36.8511
41.010965381, 96.390, 1340.0, 36.6060
41.037225947, 96.390, 1410.0, 37.5500
41.063486512, 96.390, 1469.0, 38.3275
41.089747077, 96.390, 1431.0, 37.8286
41.116007643, 96.390, 1379.0, 37.1349
41.142268208, 96.390, 1295.0, 35.9861
41.168528773, 96.390, 1399.0, 37.4032
41.194789339, 96.390, 1399.0, 37.4032
41.221049904, 96.390, 1405.0, 37.4833
41.247310469, 96.390, 1267.0, 35.5949
41.273571035, 96.390, 1309.0, 36.1801
41.299831600, 96.390, 1408.0, 37.5233
41.326092165, 96.390, 1354.0, 36.7967
41.352352731, 96.390, 1544.0, 39.2938
41.378613296, 96.390, 1627.0, 40.3361
41.404873862, 96.390, 1544.0, 39.2938
41.431134427, 96.390, 1419.0, 37.6696
41.457394992, 96.390, 1429.0, 37.8021
41.483655558, 96.390, 1394.0, 37.3363
41.509916123, 96.390, 1450.0, 38.0789
41.536176688, 96.390, 1418.0, 37.6563
41.562437254, 96.390, 1384.0, 37.2022
41.588697819, 96.390, 1379.0, 37.1349
41.614958384, 96.390, 1248.0, 35.3270
41.641218950, 96.390, 1294.0, 35.9722
41.667479515, 96.390, 1312.0, 36.2215
41.693740080, 96.390, 1336.0, 36.5513
41.720000646, 96.390, 1351.0, 36.7560
41.746261211, 96.390, 1301.0, 36.0694
41.772521776, 96.390, 1390.0, 37.2827
41.798782342, 96.390, 1334.0, 36.5240
41.825042907, 96.390, 1387.0, 37.2424
41.851303473, 96.390, 1276.0, 35.7211
41.877564038, 96.390, 1323.0, 36.3731
41.903824603, 96.390, 1307.0, 36.1525
41.930085169, 96.390, 1293.0, 35.9583
41.956345734, 96.390, 1259.0, 35.4824
41.982606299, 96.390, 1320.0, 36.3318
42.008866865, 96.390, 1317.0, 36.2905
42.035127430, 96.390, 1387.0, 37.2424
42.061387995, 96.390, 1458.0, 38.1838
42.087648561, 96.390, 1612.0, 40.1497
42.113909126, 96.390, 1694.0, 41.1582
42.140169691, 96.390, 1661.0, 40.7554
42.166430257, 96.390, 1611.0, 40.1373
42.192690822, 96.390, 1569.0, 39.6106
42.218951388, 96.390, 1522.0, 39.0128
42.245211953, 96.390, 1543.0, 39.2810
42.271472518, 96.390, 1407.0, 37.5100
42.297733084, 96.390, 1403.0, 37.4566
42.323993649, 96.390, 1368.0, 36.9865
42.350254214, 96.390, 1349.0, 36.7287
42.376514780, 96.390, 1287.0, 35.8748
42.402775345, 96.390, 1197.0, 34.5977
42.429035910, 96.390, 1239.0, 35.1994
42.455296476, 96.390, 1228.0, 35.0428
42.481557041, 96.390, 1301.0, 36.0694
42.507817606, 96.390, 1205.0, 34.7131
42.534078172, 96.390, 1261.0, 35.5106
42.560338737, 96.390, 1347.0, 36.7015
42.586599302, 96.390, 1367.0, 36.9730
42.612859868, 96.390, 1321.0, 36.3456
42.639120433, 96.390, 1363.0, 36.9188
42.665380999, 96.390, 1430.0, 37.8153
42.691641564, 96.390, 1342.0, 36.6333
42.717902129, 96.390, 1570.0, 39.6232
42.744162695, 96.390, 1935.0, 43.9886
42.770423260, 96.390, 1684.0, 41.0366
42.796683825, 96.390, 1391.0, 37.2961
42.822944391, 96.390, 1415.0, 37.6165
42.849204956, 96.390, 1598.0, 39.9750
42.875465521, 96.390, 1497.0, 38.6911
42.901726087, 96.390, 1380.0, 37.1484
42.927986652, 96.390, 1300.0, 36.0555
42.954247217, 96.390, 1321.0, 36.3456
42.980507783, 96.390, 1291.0, 35.9305
43.006768348, 96.390, 1226.0, 35.0143
43.033028914, 96.390, 1275.0, 35.7071
43.059289479, 96.390, 1264.0, 35.5528
43.085550044, 96.390, 1290.0, 35.9166
43.111810610, 96.390, 1273.0, 35.6791
43.138071175, 96.390, 1279.0, 35.7631
43.164331740, 96.390, 1204.0, 34.6987
43.190592306, 96.390, 1319.0, 36.3180
43.216852871, 96.390, 1228.0, 35.0428
43.243113436, 96.390, 1278.0, 35.7491
43.269374002, 96.390, 1212.0, 34.8138
43.295634567, 96.390, 1262.0, 35.5246
43.321895132, 96.390, 1157.0, 34.0147
43.348155698, 96.390, 1197.0, 34.5977
43.374416263, 96.390, 1220.0, 34.9285
43.400676828, 96.390, 1174.0, 34.2637
43.426937394, 96.390, 1162.0, 34.0881
43.453197959, 96.390, 1275.0, 35.7071
43.479458525, 96.390, 1180.0, 34.3511
43.505719090, 96.390, 1242.0, 35.2420
43.531979655, 96.390, 1180.0, 34.3511
43.558240221, 96.390, 1230.0, 35.0714
43.584500786, 96.390, 1231.0, 35.0856
43.610761351, 96.390, 1244.0, 35.2704
43.637021917, 96.390, 1245.0, 35.2846
43.663282482, 96.390, 1250.0, 35.3553
43.689543047, 96.390, 1258.0, 35.4683
43.715803613, 96.390, 1383.0, 37.1887
43.742064178, 96.390, 1328.0, 36.4417
43.768324743, 96.390, 1358.0, 36.8511
43.794585309, 96.390, 1376.0, 37.0945
43.820845874, 96.390, 1296.0, 36.0000
43.847106440, 96.390, 1313.0, 36.2353
43.873367005, 96.390, 1273.0, 35.6791
43.899627570, 96.390, 1288.0, 35.8887
43.925888136, 96.390, 1297.0, 36.0139
43.952148701, 96.390, 1275.0, 35.7071
43.978409266, 96.390, 1313.0, 36.2353
44.004669832, 96.390, 1273.0, 35.6791
44.030930397, 96.390, 1289.0, 35.9026
44.057190962, 96.390, 1182.0, 34.3802
44.083451528, 96.390, 1271.0, 35.6511
44.109712093, 96.390, 1210.0, 34.7851
44.135972658, 96.390, 1258.0, 35.4683
44.162233224, 96.390, 1249.0, 35.3412
44.188493789, 96.390, 1301.0, 36.0694
44.214754354, 96.390, 1307.0, 36.1525
44.241014920, 96.390, 1278.0, 35.7491
44.267275485, 96.390, 1294.0, 35.9722
44.293536051, 96.390, 1290.0, 35.9166
44.319796616, 96.390, 1331.0, 36.4829
44.346057181, 96.390, 1415.0, 37.6165
44.372317747, 96.390, 1388.0, 37.2559
44.398578312, 96.390, 1367.0, 36.9730
44.424838877, 96.390, 1356.0, 36.8239
44.451099443, 96.390, 1345.0, 36.6742
44.477360008, 96.390, 1341.0, 36.6197
44.503620573, 96.390, 1363.0, 36.9188
44.529881139, 96.390, 1349.0, 36.7287
44.556141704, 96.390, 1366.0, 36.9594
44.582402269, 96.390, 1276.0, 35.7211
44.608662835, 96.390, 1333.0, 36.5103
44.634923400, 96.390, 1354.0, 36.7967
44.661183966, 96.390, 1267.0, 35.5949
44.687444531, 96.390, 1427.0, 37.7757
44.713705096, 96.390, 1331.0, 36.4829
44.739965662, 96.390, 1340.0, 36.6060
44.766226227, 96.390, 1306.0, 36.1386
44.792486792, 96.390, 1411.0, 37.5633
44.818747358, 96.390, 1296.0, 36.0000
44.845007923, 96.390, 1406.0, 37.4967
44.871268488, 96.390, 1278.0, 35.7491
44.897529054, 96.390, 1358.0, 36.8511
44.923789619, 96.390, 1341.0, 36.6197
44.950050184, 96.390, 1310.0, 36.1939
44.976310750, 96.390, 1300.0, 36.0555
45.002571315, 96.390, 1402.0, 37.4433
45.028831880, 96.390, 1377.0, 37.1080
45.055092446, 96.390, 1350.0, 36.7423
45.081353011, 96.390, 1425.0, 37.7492
45.107613577, 96.390, 1508.0, 38.8330
45.133874142, 96.390, 1649.0, 40.6079
45.160134707, 96.390, 1592.0, 39.8999
45.186395273, 96.390, 1403.0, 37.4566
45.212655838, 96.390, 1467.0, 38.3014
45.238916403, 96.390, 1427.0, 37.7757
45.265176969, 96.390, 1473.0, 38.3797
45.291437534, 96.390, 1466.0, 38.2884
45.317698099, 96.390, 1375.0, 37.0810
45.343958665, 96.390, 1349.0, 36.7287
45.370219230, 96.390, 1318.0, 36.3043
45.396479795, 96.390, 1309.0, 36.1801
45.422740361, 96.390, 1241.0, 35.2278
45.449000926, 96.390, 1352.0, 36.7696
45.475261492, 96.390, 1358.0, 36.8511
45.501522057, 96.390, 1329.0, 36.4555
45.527782622, 96.390, 1257.0, 35.4542
45.554043188, 96.390, 1226.0, 35.0143
45.580303753, 96.390, 1287.0, 35.8748
45.606564318, 96.390, 1309.0, 36.1801
45.632824884, 96.390, 1270.0, 35.6371
45.659085449, 96.390, 1299.0, 36.0416
45.685346014, 96.390, 1341.0, 36.6197
45.711606580, 96.390, 1345.0, 36.6742
45.737867145, 96.390, 1369.0, 37.0000
45.764127710, 96.390, 1289.0, 35.9026
45.790388276, 96.390, 1286.0, 35.8608
45.816648841, 96.390, 1325.0, 36.4005
45.842909406, 96.390, 1292.0, 35.9444
45.869169972, 96.390, 1346.0, 36.6879
45.895430537, 96.390, 1250.0, 35.3553
45.921691103, 96.390, 1242.0, 35.2420
45.947951668, 96.390, 1283.0, 35.8190
45.974212233, 96.390, 1300.0, 36.0555
46.000472799, 96.390, 1260.0, 35.4965
46.026733364, 96.390, 1295.0, 35.9861
46.052993929, 96.390, 1319.0, 36.3180
46.079254495, 96.390, 1340.0, 36.6060
46.105515060, 96.390, 1362.0, 36.9053
46.131775625, 96.390, 1390.0, 37.2827
46.158036191, 96.390, 1464.0, 38.2623
46.184296756, 96.390, 1476.0, 38.4187
46.210557321, 96.390, 1526.0, 39.0640
46.236817887, 96.390, 1544.0, 39.2938
46.263078452, 96.390, 1728.0, 41.5692
46.289339017, 96.390, 1695.0, 41.1704
46.315599583, 96.390, 1613.0, 40.1622
46.341860148, 96.390, 1472.0, 38.3667
46.368120714, 96.390, 1524.0, 39.0384
46.394381279, 96.390, 1590.0, 39.8748
46.420641844, 96.390, 1520.0, 38.9872
46.446902410, 96.390, 1400.0, 37.4166
46.473162975, 96.390, 1405.0, 37.4833
46.499423540, 96.390, 1349.0, 36.7287
46.525684106, 96.390, 1427.0, 37.7757
46.551944671, 96.390, 1329.0, 36.4555
46.578205236, 96.390, 1324.0, 36.3868
46.604465802, 96.390, 1431.0, 37.8286
46.630726367, 96.390, 1456.0, 38.1576
46.656986932, 96.390, 1473.0, 38.3797
46.683247498, 96.390, 1325.0, 36.4005
46.709508063, 96.390, 1375.0, 37.0810
46.735768629, 96.390, 1367.0, 36.9730
46.762029194, 96.390, 1399.0, 37.4032
46.788289759, 96.390, 1352.0, 36.7696
46.814550325, 96.390, 1300.0, 36.0555
46.840810890, 96.390, 1381.0, 37.1618
46.867071455, 96.390, 1316.0, 36.2767
46.893332021, 96.390, 1284.0, 35.8329
46.919592586, 96.390, 1312.0, 36.2215
46.945853151, 96.390, 1376.0, 37.0945
46.972113717, 96.390, 1374.0, 37.0675
46.998374282, 96.390, 1440.0, 37.9473
47.024634847, 96.390, 1501.0, 38.7427
47.050895413, 96.390, 1358.0, 36.8511
47.077155978, 96.390, 1365.0, 36.9459
47.103416543, 96.390, 1366.0, 36.9594
47.129677109, 96.390, 1298.0, 36.0278
47.155937674, 96.390, 1388.0, 37.2559
47.182198240, 96.390, 1228.0, 35.0428
47.208458805, 96.390, 1226.0, 35.0143
47.234719370, 96.390, 1235.0, 35.1426
47.260979936, 96.390, 1327.0, 36.4280
47.287240501, 96.390, 1190.0, 34.4964
47.313501066, 96.390, 1248.0, 35.3270
47.339761632, 96.390, 1253.0, 35.3977
47.366022197, 96.390, 1192.0, 34.5254
47.392282762, 96.390, 1317.0, 36.2905
47.418543328, 96.390, 1257.0, 35.4542
47.444803893, 96.390, 1315.0, 36.2629
47.471064458, 96.390, 1295.0, 35.9861
47.497325024, 96.390, 1256.0, 35.4401
47.523585589, 96.390, 1277.0, 35.7351
47.549846155, 96.390, 1297.0, 36.0139
47.576106720, 96.390, 1309.0, 36.1801
47.602367285, 96.390, 1299.0, 36.0416
47.628627851, 96.390, 1241.0, 35.2278
47.654888416, 96.390, 1244.0, 35.2704
47.681148981, 96.390, 1273.0, 35.6791
47.707409547, 96.390, 1319.0, 36.3180
47.733670112, 96.390, 1292.0, 35.9444
47.759930677, 96.390, 1322.0, 36.3593
47.786191243, 96.390, 1318.0, 36.3043
47.812451808, 96.390, 1253.0, 35.3977
47.838712373, 96.390, 1293.0, 35.9583
47.864972939, 96.390, 1283.0, 35.8190
47.891233504, 96.390, 1301.0, 36.0694
47.917494069, 96.390, 1255.0, 35.4260
47.943754635, 96.390, 1335.0, 36.5377
47.970015200, 96.390, 1188.0, 34.4674
47.996275766, 96.390, 1211.0, 34.7994
48.022536331, 96.390, 1224.0, 34.9857
48.048796896, 96.390, 1269.0, 35.6230
48.075057462, 96.390, 1248.0, 35.3270
48.101318027, 96.390, 1200.0, 34.6410
48.127578592, 96.390, 1240.0, 35.2136
48.153839158, 96.390, 1203.0, 34.6843
48.180099723, 96.390, 1255.0, 35.4260
48.206360288, 96.390, 1244.0, 35.2704
48.232620854, 96.390, 1233.0, 35.1141
48.258881419, 96.390, 1218.0, 34.8999
48.285141984, 96.390, 1226.0, 35.0143
48.311402550, 96.390, 1197.0, 34.5977
48.337663115, 96.390, 1265.0, 35.5668
48.363923681, 96.390, 1329.0, 36.4555
48.390184246, 96.390, 1365.0, 36.9459
48.416444811, 96.390, 1396.0, 37.3631
48.442705377, 96.390, 1360.0, 36.8782
48.468965942, 96.390, 1390.0, 37.2827
48.495226507, 96.390, 1403.0, 37.4566
48.521487073, 96.390, 1325.0, 36.4005
48.547747638, 96.390, 1325.0, 36.4005
48.574008203, 96.390, 1208.0, 34.7563
48.600268769, 96.390, 1266.0, 35.5809
48.626529334, 96.390, 1282.0, 35.8050
48.652789899, 96.390, 1220.0, 34.9285
48.679050465, 96.390, 1166.0, 34.1467
48.705311030, 96.390, 1170.0, 34.2053
48.731571595, 96.390, 1185.0, 34.4238
48.757832161, 96.390, 1171.0, 34.2199
48.784092726, 96.390, 1185.0, 34.4238
48.810353292, 96.390, 1087.0, 32.9697
48.836613857, 96.390, 1121.0, 33.4813
48.862874422, 96.390, 1115.0, 33.3916
48.889134988, 96.390, 1138.0, 33.7343
48.915395553, 96.390, 1157.0, 34.0147
48.941656118, 96.390, 1131.0, 33.6303
48.967916684, 96.390, 1194.0, 34.5543
48.994177249, 96.390, 1169.0, 34.1906
49.020437814, 96.390, 1204.0, 34.6987
49.046698380, 96.390, 1108.0, 33.2866
49.072958945, 96.390, 1145.0, 33.8378
49.099219510, 96.390, 1275.0, 35.7071
49.125480076, 96.390, 1164.0, 34.1174
49.151740641, 96.390, 1220.0, 34.9285
49.178001207, 96.390, 1155.0, 33.9853
49.204261772, 96.390, 1174.0, 34.2637
49.230522337, 96.390, 1158.0, 34.0294
49.256782903, 96.390, 1122.0, 33.4963
49.283043468, 96.390, 1212.0, 34.8138
49.309304033, 96.390, 1164.0, 34.1174
49.335564599, 96.390, 1115.0, 33.3916
49.361825164, 96.390, 1081.0, 32.8786
49.388085729, 96.390, 1191.0, 34.5109
49.414346295, 96.390, 1124.0, 33.5261
49.440606860, 96.390, 1103.0, 33.2114
49.466867425, 96.390, 1088.0, 32.9848
49.493127991, 96.390, 1077.0, 32.8177
49.519388556, 96.390, 1073.0, 32.7567
49.545649121, 96.390, 1137.0, 33.7194
49.571909687, 96.390, 1111.0, 33.3317
49.598170252, 96.390, 1126.0, 33.5559
49.624430818, 96.390, 1225.0, 35.0000
49.650691383, 96.390, 1215.0, 34.8569
49.676951948, 96.390, 1167.0, 34.1614
49.703212514, 96.390, 1128.0, 33.5857
49.729473079, 96.390, 1128.0, 33.5857
49.755733644, 96.390, 1145.0, 33.8378
49.781994210, 96.390, 1143.0, 33.8083
49.808254775, 96.390, 1055.0, 32.4808
49.834515340, 96.390, 1041.0, 32.2645
49.860775906, 96.390, 1104.0, 33.2265
49.887036471, 96.390, 1082.0, 32.8938
49.913297036, 96.390, 1059.0, 32.5423
49.939557602, 96.390, 1119.0, 33.4515
49.965818167, 96.390, 1088.0, 32.9848
49.992078732, 96.390, 1109.0, 33.3017
50.018339298, 96.390, 1044.0, 32.3110
50.044599863, 96.390, 1030.0, 32.0936
50.070860429, 96.390, 1083.0, 32.9090
50.097120994, 96.390, 1018.0, 31.9061
50.123381559, 96.390, 1140.0, 33.7639
50.149642125, 96.390, 998.0, 31.5911
50.175902690, 96.390, 1070.0, 32.7109
50.202163255, 96.390, 1099.0, 33.1512
50.228423821, 96.390, 1119.0, 33.4515
50.254684386, 96.390, 1102.0, 33.1964
50.280944951, 96.390, 1124.0, 33.5261
50.307205517, 96.390, 1162.0, 34.0881
50.333466082, 96.390, 1165.0, 34.1321
50.359726647, 96.390, 1139.0, 33.7491
50.385987213, 96.390, 1185.0, 34.4238
50.412247778, 96.390, 1185.0, 34.4238
50.438508344, 96.390, 1197.0, 34.5977
50.464768909, 96.390, 1198.0, 34.6121
50.491029474, 96.390, 1177.0, 34.3074
50.517290040, 96.390, 1183.0, 34.3948
50.543550605, 96.390, 1132.0, 33.6452
50.569811170, 96.390, 1132.0, 33.6452
50.596071736, 96.390, 1120.0, 33.4664
50.622332301, 96.390, 1145.0, 33.8378
50.648592866, 96.390, 1075.0, 32.7872
50.674853432, 96.390, 1070.0, 32.7109
50.701113997, 96.390, 1031.0, 32.1092
50.727374562, 96.390, 1106.0, 33.2566
50.753635128, 96.390, 1074.0, 32.7719
50.779895693, 96.390, 1061.0, 32.5730
50.806156258, 96.390, 1064.0, 32.6190
50.832416824, 96.390, 1102.0, 33.1964
50.858677389, 96.390, 1115.0, 33.3916
50.884937955, 96.390, 1080.0, 32.8634
50.911198520, 96.390, 1044.0, 32.3110
50.937459085, 96.390, 972.0, 31.1769
50.963719651, 96.390, 1184.0, 34.4093
50.989980216, 96.390, 1245.0, 35.2846
51.016240781, 96.390, 1163.0, 34.1028
51.042501347, 96.390, 1143.0, 33.8083
51.068761912, 96.390, 1205.0, 34.7131
51.095022477, 96.390, 1119.0, 33.4515
51.121283043, 96.390, 1150.0, 33.9116
51.147543608, 96.390, 1104.0, 33.2265
51.173804173, 96.390, 1166.0, 34.1467
51.200064739, 96.390, 1104.0, 33.2265
51.226325304, 96.390, 1069.0, 32.6956
51.252585870, 96.390, 1099.0, 33.1512
51.278846435, 96.390, 1075.0, 32.7872
51.305107000, 96.390, 1028.0, 32.0624
51.331367566, 96.390, 951.0, 30.8383
51.357628131, 96.390, 984.0, 31.3688
51.383888696, 96.390, 1062.0, 32.5883
51.410149262, 96.390, 979.0, 31.2890
51.436409827, 96.390, 957.0, 30.9354
51.462670392, 96.390, 943.0, 30.7083
51.488930958, 96.390, 989.0, 31.4484
51.515191523, 96.390, 966.0, 31.0805
51.541452088, 96.390, 994.0, 31.5278
51.567712654, 96.390, 958.0, 30.9516
51.593973219, 96.390, 968.0, 31.1127
51.620233784, 96.390, 954.0, 30.8869
51.646494350, 96.390, 919.0, 30.3150
51.672754915, 96.390, 946.0, 30.7571
51.699015481, 96.390, 1021.0, 31.9531
51.725276046, 96.390, 955.0, 30.9031
51.751536611, 96.390, 994.0, 31.5278
51.777797177, 96.390, 998.0, 31.5911
51.804057742, 96.390, 1034.0, 32.1559
51.830318307, 96.390, 976.0, 31.2410
51.856578873, 96.390, 995.0, 31.5436
51.882839438, 96.390, 1010.0, 31.7805
51.909100003, 96.390, 1029.0, 32.0780
51.935360569, 96.390, 994.0, 31.5278
51.961621134, 96.390, 1010.0, 31.7805
51.987881699, 96.390, 972.0, 31.1769
52.014142265, 96.390, 1002.0, 31.6544
52.040402830, 96.390, 954.0, 30.8869
52.066663396, 96.390, 960.0, 30.9839
52.092923961, 96.390, 989.0, 31.4484
52.119184526, 96.390, 1008.0, 31.7490
52.145445092, 96.390, 1053.0, 32.4500
52.171705657, 96.390, 1009.0, 31.7648
52.197966222, 96.390, 990.0, 31.4643
52.224226788, 96.390, 988.0, 31.4325
52.250487353, 96.390, 1055.0, 32.4808
52.276747918, 96.390, 1048.0, 32.3728
52.303008484, 96.390, 949.0, 30.8058
52.329269049, 96.390, 972.0, 31.1769
52.355529614, 96.390, 1051.0, 32.4191
52.381790180, 96.390, 1021.0, 31.9531
52.408050745, 96.390, 1036.0, 32.1870
52.434311310, 96.390, 1001.0, 31.6386
52.460571876, 96.390, 959.0, 30.9677
52.486832441, 96.390, 956.0, 30.9192
52.513093007, 96.390, 974.0, 31.2090
52.539353572, 96.390, 970.0, 31.1448
52.565614137, 96.390, 979.0, 31.2890
52.591874703, 96.390, 943.0, 30.7083
52.618135268, 96.390, 943.0, 30.7083
52.644395833, 96.390, 936.0, 30.5941
52.670656399, 96.390, 948.0, 30.7896
52.696916964, 96.390, 1001.0, 31.6386
52.723177529, 96.390, 1185.0, 34.4238
52.749438095, 96.390, 1065.0, 32.6343
52.775698660, 96.390, 995.0, 31.5436
52.801959225, 96.390, 1012.0, 31.8119
52.828219791, 96.390, 976.0, 31.2410
52.854480356, 96.390, 999.0, 31.6070
52.880740922, 96.390, 1060.0, 32.5576
52.907001487, 96.390, 1005.0, 31.7017
52.933262052, 96.390, 984.0, 31.3688
52.959522618, 96.390, 968.0, 31.1127
52.985783183, 96.390, 950.0, 30.8221
53.012043748, 96.390, 1004.0, 31.6860
53.038304314, 96.390, 940.0, 30.6594
53.064564879, 96.390, 1006.0, 31.7175
53.090825444, 96.390, 1048.0, 32.3728
53.117086010, 96.390, 961.0, 31.0000
53.143346575, 96.390, 929.0, 30.4795
53.169607140, 96.390, 985.0, 31.3847
53.195867706, 96.390, 981.0, 31.3209
53.222128271, 96.390, 987.0, 31.4166
53.248388836, 96.390, 982.0, 31.3369
53.274649402, 96.390, 991.0, 31.4802
53.300909967, 96.390, 974.0, 31.2090
53.327170533, 96.390, 1003.0, 31.6702
53.353431098, 96.390, 963.0, 31.0322
53.379691663, 96.390, 972.0, 31.1769
53.405952229, 96.390, 974.0, 31.2090
53.432212794, 96.390, 904.0, 30.0666
53.458473359, 96.390, 946.0, 30.7571
53.484733925, 96.390, 952.0, 30.8545
53.510994490, 96.390, 918.0, 30.2985
53.537255055, 96.390, 901.0, 30.0167
53.563515621, 96.390, 935.0, 30.5778
53.589776186, 96.390, 919.0, 30.3150
53.616036751, 96.390, 956.0, 30.9192
53.642297317, 96.390, 952.0, 30.8545
53.668557882, 96.390, 909.0, 30.1496
53.694818448, 96.390, 908.0, 30.1330
53.721079013, 96.390, 878.0, 29.6311
53.747339578, 96.390, 953.0, 30.8707
53.773600144, 96.390, 898.0, 29.9666
53.799860709, 96.390, 915.0, 30.2490
53.826121274, 96.390, 963.0, 31.0322
53.852381840, 96.390, 1004.0, 31.6860
53.878642405, 96.390, 979.0, 31.2890
53.904902970, 96.390, 1057.0, 32.5115
53.931163536, 96.390, 965.0, 31.0644
53.957424101, 96.390, 1009.0, 31.7648
53.983684666, 96.390, 1038.0, 32.2180
54.009945232, 96.390, 1045.0, 32.3265
54.036205797, 96.390, 1036.0, 32.1870
54.062466362, 96.390, 1020.0, 31.9374
54.088726928, 96.390, 997.0, 31.5753
54.114987493, 96.390, 1065.0, 32.6343
54.141248059, 96.390, 1087.0, 32.9697
54.167508624, 96.390, 1005.0, 31.7017
54.193769189, 96.390, 1028.0, 32.0624
54.220029755, 96.390, 1086.0, 32.9545
54.246290320, 96.390, 1021.0, 31.9531
54.272550885, 96.390, 1033.0, 32.1403
54.298811451, 96.390, 966.0, 31.0805
54.325072016, 96.390, 980.0, 31.3050
54.351332581, 96.390, 1018.0, 31.9061
54.377593147, 96.390, 1047.0, 32.3574
54.403853712, 96.390, 994.0, 31.5278
54.430114277, 96.390, 989.0, 31.4484
54.456374843, 96.390, 997.0, 31.5753
54.482635408, 96.390, 983.0, 31.3528
54.508895973, 96.390, 920.0, 30.3315
54.535156539, 96.390, 919.0, 30.3150
54.561417104, 96.390, 919.0, 30.3150
54.587677670, 96.390, 875.0, 29.5804
54.613938235, 96.390, 911.0, 30.1828
54.640198800, 96.390, 912.0, 30.1993
54.666459366, 96.390, 852.0, 29.1890
54.692719931, 96.390, 875.0, 29.5804
54.718980496, 96.390, 798.0, 28.2489
54.745241062, 96.390, 911.0, 30.1828
54.771501627, 96.390, 847.0, 29.1033
54.797762192, 96.390, 889.0, 29.8161
54.824022758, 96.390, 893.0, 29.8831
54.850283323, 96.390, 873.0, 29.5466
54.876543888, 96.390, 914.0, 30.2324
54.902804454, 96.390, 879.0, 29.6479
54.929065019, 96.390, 883.0, 29.7153
54.955325585, 96.390, 909.0, 30.1496
54.981586150, 96.390, 885.0, 29.7489
55.007846715, 96.390, 867.0, 29.4449
55.034107281, 96.390, 909.0, 30.1496
55.060367846, 96.390, 868.0, 29.4618
55.086628411, 96.390, 913.0, 30.2159
55.112888977, 96.390, 829.0, 28.7924
55.139149542, 96.390, 917.0, 30.2820
55.165410107, 96.390, 893.0, 29.8831
55.191670673, 96.390, 840.0, 28.9828
55.217931238, 96.390, 838.0, 28.9482
55.244191803, 96.390, 873.0, 29.5466
55.270452369, 96.390, 877.0, 29.6142
55.296712934, 96.390, 857.0, 29.2746
55.322973499, 96.390, 834.0, 28.8791
55.349234065, 96.390, 861.0, 29.3428
55.375494630, 96.390, 933.0, 30.5450
55.401755196, 96.390, 907.0, 30.1164
55.428015761, 96.390, 934.0, 30.5614
55.454276326, 96.390, 886.0, 29.7658
55.480536892, 96.390, 852.0, 29.1890
55.506797457, 96.390, 915.0, 30.2490
55.533058022, 96.390, 829.0, 28.7924
55.559318588, 96.390, 886.0, 29.7658
55.585579153, 96.390, 870.0, 29.4958
55.611839718, 96.390, 874.0, 29.5635
55.638100284, 96.390, 854.0, 29.2233
55.664360849, 96.390, 872.0, 29.5296
55.690621414, 96.390, 814.0, 28.5307
55.716881980, 96.390, 831.0, 28.8271
55.743142545, 96.390, 855.0, 29.2404
55.769403111, 96.390, 838.0, 28.9482
55.795663676, 96.390, 831.0, 28.8271
55.821924241, 96.390, 843.0, 29.0345
55.848184807, 96.390, 820.0, 28.6356
55.874445372, 96.390, 877.0, 29.6142
55.900705937, 96.390, 920.0, 30.3315
55.926966503, 96.390, 832.0, 28.8444
55.953227068, 96.390, 881.0, 29.6816
55.979487633, 96.390, 895.0, 29.9166
56.005748199, 96.390, 860.0, 29.3258
56.032008764, 96.390, 894.0, 29.8998
56.058269329, 96.390, 928.0, 30.4631
56.084529895, 96.390, 947.0, 30.7734
56.110790460, 96.390, 894.0, 29.8998
56.137051025, 96.390, 979.0, 31.2890
56.163311591, 96.390, 889.0, 29.8161
56.189572156, 96.390, 844.0, 29.0517
56.215832722, 96.390, 946.0, 30.7571
56.242093287, 96.390, 828.0, 28.7750
56.268353852, 96.390, 874.0, 29.5635
56.294614418, 96.390, 824.0, 28.7054
56.320874983, 96.390, 861.0, 29.3428
56.347135548, 96.390, 923.0, 30.3809
56.373396114, 96.390, 890.0, 29.8329
56.399656679, 96.390, 836.0, 28.9137
56.425917244, 96.390, 912.0, 30.1993
56.452177810, 96.390, 913.0, 30.2159
56.478438375, 96.390, 869.0, 29.4788
56.504698940, 96.390, 839.0, 28.9655
56.530959506, 96.390, 846.0, 29.0861
56.557220071, 96.390, 888.0, 29.7993
56.583480637, 96.390, 843.0, 29.0345
56.609741202, 96.390, 807.0, 28.4077
56.636001767, 96.390, 869.0, 29.4788
56.662262333, 96.390, 881.0, 29.6816
56.688522898, 96.390, 834.0, 28.8791
56.714783463, 96.390, 831.0, 28.8271
56.741044029, 96.390, 841.0, 29.0000
56.767304594, 96.390, 849.0, 29.1376
56.793565159, 96.390, 834.0, 28.8791
56.819825725, 96.390, 834.0, 28.8791
56.846086290, 96.390, 820.0, 28.6356
56.872346855, 96.390, 827.0, 28.7576
56.898607421, 96.390, 885.0, 29.7489
56.924867986, 96.390, 809.0, 28.4429
56.951128551, 96.390, 847.0, 29.1033
56.977389117, 96.390, 818.0, 28.6007
57.003649682, 96.390, 854.0, 29.2233
57.029910248, 96.390, 821.0, 28.6531
57.056170813, 96.390, 839.0, 28.9655
57.082431378, 96.390, 836.0, 28.9137
57.108691944, 96.390, 833.0, 28.8617
57.134952509, 96.390, 847.0, 29.1033
57.161213074, 96.390, 914.0, 30.2324
57.187473640, 96.390, 808.0, 28.4253
57.213734205, 96.390, 850.0, 29.1548
57.239994770, 96.390, 840.0, 28.9828
57.266255336, 96.390, 856.0, 29.2575
57.292515901, 96.390, 776.0, 27.8568
57.318776466, 96.390, 875.0, 29.5804
57.345037032, 96.390, 946.0, 30.7571
57.371297597, 96.390, 913.0, 30.2159
57.397558163, 96.390, 864.0, 29.3939
57.423818728, 96.390, 839.0, 28.9655
57.450079293, 96.390, 887.0, 29.7825
57.476339859, 96.390, 875.0, 29.5804
57.502600424, 96.390, 855.0, 29.2404
57.528860989, 96.390, 834.0, 28.8791
57.555121555, 96.390, 887.0, 29.7825
57.581382120, 96.390, 874.0, 29.5635
57.607642685, 96.390, 885.0, 29.7489
57.633903251, 96.390, 856.0, 29.2575
57.660163816, 96.390, 891.0, 29.8496
57.686424381, 96.390, 851.0, 29.1719
57.712684947, 96.390, 860.0, 29.3258
57.738945512, 96.390, 823.0, 28.6880
57.765206077, 96.390, 815.0, 28.5482
57.791466643, 96.390, 866.0, 29.4279
57.817727208, 96.390, 859.0, 29.3087
57.843987774, 96.390, 872.0, 29.5296
57.870248339, 96.390, 900.0, 30.0000
57.896508904, 96.390, 865.0, 29.4109
57.922769470, 96.390, 812.0, 28.4956
57.949030035, 96.390, 876.0, 29.5973
57.975290600, 96.390, 895.0, 29.9166
58.001551166, 96.390, 915.0, 30.2490
58.027811731, 96.390, 907.0, 30.1164
58.054072296, 96.390, 1006.0, 31.7175
58.080332862, 96.390, 921.0, 30.3480
58.106593427, 96.390, 901.0, 30.0167
58.132853992, 96.390, 864.0, 29.3939
58.159114558, 96.390, 851.0, 29.1719
58.185375123, 96.390, 919.0, 30.3150
58.211635689, 96.390, 907.0, 30.1164
58.237896254, 96.390, 800.0, 28.2843
58.264156819, 96.390, 840.0, 28.9828
58.290417385, 96.390, 802.0, 28.3196
58.316677950, 96.390, 827.0, 28.7576
58.342938515, 96.390, 829.0, 28.7924
58.369199081, 96.390, 823.0, 28.6880
58.395459646, 96.390, 801.0, 28.3019
58.421720211, 96.390, 811.0, 28.4781
58.447980777, 96.390, 796.0, 28.2135
58.474241342, 96.390, 865.0, 29.4109
58.500501907, 96.390, 796.0, 28.2135
58.526762473, 96.390, 810.0, 28.4605
58.553023038, 96.390, 827.0, 28.7576
58.579283603, 96.390, 840.0, 28.9828
58.605544169, 96.390, 805.0, 28.3725
58.631804734, 96.390, 823.0, 28.6880
58.658065300, 96.390, 758.0, 27.5318
58.684325865, 96.390, 782.0, 27.9643
58.710586430, 96.390, 798.0, 28.2489
58.736846996, 96.390, 837.0, 28.9310
58.763107561, 96.390, 790.0, 28.1069
58.789368126, 96.390, 823.0, 28.6880
58.815628692, 96.390, 810.0, 28.4605
58.841889257, 96.390, 752.0, 27.4226
58.868149822, 96.390, 809.0, 28.4429
58.894410388, 96.390, 827.0, 28.7576
58.920670953, 96.390, 800.0, 28.2843
58.946931518, 96.390, 801.0, 28.3019
58.973192084, 96.390, 806.0, 28.3901
58.999452649, 96.390, 816.0, 28.5657
59.025713214, 96.390, 783.0, 27.9821
59.051973780, 96.390, 793.0, 28.1603
59.078234345, 96.390, 751.0, 27.4044
59.104494911, 96.390, 785.0, 28.0179
59.130755476, 96.390, 812.0, 28.4956
59.157016041, 96.390, 827.0, 28.7576
59.183276607, 96.390, 838.0, 28.9482
59.209537172, 96.390, 786.0, 28.0357
59.235797737, 96.390, 878.0, 29.6311
59.262058303, 96.390, 896.0, 29.9333
59.288318868, 96.390, 903.0, 30.0500
59.314579433, 96.390, 929.0, 30.4795
59.340839999, 96.390, 924.0, 30.3974
59.367100564, 96.390, 907.0, 30.1164
59.393361129, 96.390, 870.0, 29.4958
59.419621695, 96.390, 883.0, 29.7153
59.445882260, 96.390, 913.0, 30.2159
59.472142826, 96.390, 933.0, 30.5450
59.498403391, 96.390, 876.0, 29.5973
59.524663956, 96.390, 841.0, 29.0000
59.550924522, 96.390, 813.0, 28.5132
59.577185087, 96.390, 827.0, 28.7576
59.603445652, 96.390, 837.0, 28.9310
59.629706218, 96.390, 868.0, 29.4618
59.655966783, 96.390, 888.0, 29.7993
59.682227348, 96.390, 869.0, 29.4788
59.708487914, 96.390, 895.0, 29.9166
59.734748479, 96.390, 1137.0, 33.7194
59.761009044, 96.390, 1171.0, 34.2199
59.787269610, 96.390, 918.0, 30.2985
59.813530175, 96.390, 921.0, 30.3480
59.839790740, 96.390, 858.0, 29.2916
59.866051306, 96.390, 876.0, 29.5973
59.892311871, 96.390, 1038.0, 32.2180
59.918572437, 96.390, 1078.0, 32.8329
59.944833002, 96.390, 1016.0, 31.8748
59.971093567, 96.390, 958.0, 30.9516
59.997354133, 96.390, 926.0, 30.4302
60.023614698, 96.390, 844.0, 29.0517
60.049875263, 96.390, 913.0, 30.2159
60.076135829, 96.390, 925.0, 30.4138
60.102396394, 96.390, 923.0, 30.3809
60.128656959, 96.390, 940.0, 30.6594
60.154917525, 96.390, 921.0, 30.3480
60.181178090, 96.390, 954.0, 30.8869
60.207438655, 96.390, 954.0, 30.8869
60.233699221, 96.390, 917.0, 30.2820
60.259959786, 96.390, 997.0, 31.5753
60.286220352, 96.390, 976.0, 31.2410
60.312480917, 96.390, 989.0, 31.4484
60.338741482, 96.390, 991.0, 31.4802
60.365002048, 96.390, 976.0, 31.2410
60.391262613, 96.390, 995.0, 31.5436
60.417523178, 96.390, 979.0, 31.2890
60.443783744, 96.390, 1034.0, 32.1559
60.470044309, 96.390, 989.0, 31.4484
60.496304874, 96.390, 998.0, 31.5911
60.522565440, 96.390, 1031.0, 32.1092
60.548826005, 96.390, 1091.0, 33.0303
60.575086570, 96.390, 1122.0, 33.4963
60.601347136, 96.390, 1056.0, 32.4962
60.627607701, 96.390, 1079.0, 32.8481
60.653868266, 96.390, 1111.0, 33.3317
60.680128832, 96.390, 1028.0, 32.0624
60.706389397, 96.390, 1055.0, 32.4808
60.732649963, 96.390, 1147.0, 33.8674
60.758910528, 96.390, 1152.0, 33.9411
60.785171093, 96.390, 1170.0, 34.2053
60.811431659, 96.390, 1110.0, 33.3167
60.837692224, 96.390, 1185.0, 34.4238
60.863952789, 96.390, 1167.0, 34.1614
60.890213355, 96.390, 1192.0, 34.5254
60.916473920, 96.390, 1248.0, 35.3270
60.942734485, 96.390, 1204.0, 34.6987
60.968995051, 96.390, 1267.0, 35.5949
60.995255616, 96.390, 1242.0, 35.2420
61.021516181, 96.390, 1223.0, 34.9714
61.047776747, 96.390, 1243.0, 35.2562
61.074037312, 96.390, 1327.0, 36.4280
61.100297878, 96.390, 1245.0, 35.2846
61.126558443, 96.390, 1233.0, 35.1141
61.152819008, 96.390, 1319.0, 36.3180
61.179079574, 96.390, 1252.0, 35.3836
61.205340139, 96.390, 1316.0, 36.2767
61.231600704, 96.390, 1258.0, 35.4683
61.257861270, 96.390, 1324.0, 36.3868
61.284121835, 96.390, 1301.0, 36.0694
61.310382400, 96.390, 1240.0, 35.2136
61.336642966, 96.390, 1256.0, 35.4401
61.362903531, 96.390, 1204.0, 34.6987
61.389164096, 96.390, 1208.0, 34.7563
61.415424662, 96.390, 1262.0, 35.5246
61.441685227, 96.390, 1265.0, 35.5668
61.467945792, 96.390, 1223.0, 34.9714
61.494206358, 96.390, 1164.0, 34.1174
61.520466923, 96.390, 1207.0, 34.7419
61.546727489, 96.390, 1254.0, 35.4119
61.572988054, 96.390, 1172.0, 34.2345
61.599248619, 96.390, 1137.0, 33.7194
61.625509185, 96.390, 1180.0, 34.3511
61.651769750, 96.390, 1186.0, 34.4384
61.678030315, 96.390, 1205.0, 34.7131
61.704290881, 96.390, 1164.0, 34.1174
61.730551446, 96.390, 1155.0, 33.9853
61.756812011, 96.390, 1148.0, 33.8821
61.783072577, 96.390, 1133.0, 33.6601
61.809333142, 96.390, 1151.0, 33.9264
61.835593707, 96.390, 1110.0, 33.3167
61.861854273, 96.390, 1155.0, 33.9853
61.888114838, 96.390, 1171.0, 34.2199
61.914375404, 96.390, 1117.0, 33.4215
61.940635969, 96.390, 1128.0, 33.5857
61.966896534, 96.390, 1121.0, 33.4813
61.993157100, 96.390, 1069.0, 32.6956
62.019417665, 96.390, 1053.0, 32.4500
62.045678230, 96.390, 1151.0, 33.9264
62.071938796, 96.390, 1087.0, 32.9697
62.098199361, 96.390, 1114.0, 33.3766
62.124459926, 96.390, 1134.0, 33.6749
62.150720492, 96.390, 1033.0, 32.1403
62.176981057, 96.390, 1047.0, 32.3574
62.203241622, 96.390, 1055.0, 32.4808
62.229502188, 96.390, 1100.0, 33.1662
62.255762753, 96.390, 1040.0, 32.2490
62.282023318, 96.390, 1056.0, 32.4962
62.308283884, 96.390, 1095.0, 33.0908
62.334544449, 96.390, 1052.0, 32.4345
62.360805015, 96.390, 1012.0, 31.8119
62.387065580, 96.390, 1015.0, 31.8591
62.413326145, 96.390, 1036.0, 32.1870
62.439586711, 96.390, 1010.0, 31.7805
62.465847276, 96.390, 1000.0, 31.6228
62.492107841, 96.390, 966.0, 31.0805
62.518368407, 96.390, 992.0, 31.4960
62.544628972, 96.390, 1019.0, 31.9218
62.570889537, 96.390, 950.0, 30.8221
62.597150103, 96.390, 1021.0, 31.9531
62.623410668, 96.390, 956.0, 30.9192
62.649671233, 96.390, 1017.0, 31.8904
62.675931799, 96.390, 898.0, 29.9666
62.702192364, 96.390, 885.0, 29.7489
62.728452930, 96.390, 1023.0, 31.9844
62.754713495, 96.390, 965.0, 31.0644
62.780974060, 96.390, 933.0, 30.5450
62.807234626, 96.390, 889.0, 29.8161
62.833495191, 96.390, 952.0, 30.8545
62.859755756, 96.390, 915.0, 30.2490
62.886016322, 96.390, 863.0, 29.3769
62.912276887, 96.390, 878.0, 29.6311
62.938537452, 96.390, 871.0, 29.5127
62.964798018, 96.390, 864.0, 29.3939
62.991058583, 96.390, 899.0, 29.9833
63.017319148, 96.390, 869.0, 29.4788
63.043579714, 96.390, 819.0, 28.6182
63.069840279, 96.390, 913.0, 30.2159
63.096100844, 96.390, 846.0, 29.0861
63.122361410, 96.390, 867.0, 29.4449
63.148621975, 96.390, 886.0, 29.7658
63.174882541, 96.390, 763.0, 27.6225
63.201143106, 96.390, 811.0, 28.4781
63.227403671, 96.390, 800.0, 28.2843
63.253664237, 96.390, 843.0, 29.0345
63.279924802, 96.390, 849.0, 29.1376
63.306185367, 96.390, 811.0, 28.4781
63.332445933, 96.390, 817.0, 28.5832
63.358706498, 96.390, 898.0, 29.9666
63.384967063, 96.390, 959.0, 30.9677
63.411227629, 96.390, 927.0, 30.4467
63.437488194, 96.390, 896.0, 29.9333
63.463748759, 96.390, 904.0, 30.0666
63.490009325, 96.390, 844.0, 29.0517
63.516269890, 96.390, 824.0, 28.7054
63.542530455, 96.390, 938.0, 30.6268
63.568791021, 96.390, 873.0, 29.5466
63.595051586, 96.390, 809.0, 28.4429
63.621312152, 96.390, 838.0, 28.9482
63.647572717, 96.390, 839.0, 28.9655
63.673833282, 96.390, 816.0, 28.5657
63.700093848, 96.390, 817.0, 28.5832
63.726354413, 96.390, 809.0, 28.4429
63.752614978, 96.390, 827.0, 28.7576
63.778875544, 96.390, 788.0, 28.0713
63.805136109, 96.390, 820.0, 28.6356
63.831396674, 96.390, 822.0, 28.6705
63.857657240, 96.390, 805.0, 28.3725
63.883917805, 96.390, 770.0, 27.7489
63.910178370, 96.390, 812.0, 28.4956
63.936438936, 96.390, 753.0, 27.4408
63.962699501, 96.390, 835.0, 28.8964
63.988960067, 96.390, 806.0, 28.3901
64.015220632, 96.390, 829.0, 28.7924
64.041481197, 96.390, 805.0, 28.3725
64.067741763, 96.390, 775.0, 27.8388
64.094002328, 96.390, 831.0, 28.8271
64.120262893, 96.390, 752.0, 27.4226
64.146523459, 96.390, 820.0, 28.6356
64.172784024, 96.390, 782.0, 27.9643
64.199044589, 96.390, 775.0, 27.8388
64.225305155, 96.390, 696.0, 26.3818
64.251565720, 96.390, 757.0, 27.5136
64.277826285, 96.390, 763.0, 27.6225
64.304086851, 96.390, 773.0, 27.8029
64.330347416, 96.390, 748.0, 27.3496
64.356607981, 96.390, 722.0, 26.8701
64.382868547, 96.390, 771.0, 27.7669
64.409129112, 96.390, 718.0, 26.7955
64.435389678, 96.390, 826.0, 28.7402
64.461650243, 96.390, 737.0, 27.1477
64.487910808, 96.390, 744.0, 27.2764
64.514171374, 96.390, 708.0, 26.6083
64.540431939, 96.390, 711.0, 26.6646
64.566692504, 96.390, 734.0, 27.0924
64.592953070, 96.390, 720.0, 26.8328
64.619213635, 96.390, 701.0, 26.4764
64.645474200, 96.390, 693.0, 26.3249
64.671734766, 96.390, 734.0, 27.0924
64.697995331, 96.390, 732.0, 27.0555
64.724255896, 96.390, 745.0, 27.2947
64.750516462, 96.390, 666.0, 25.8070
64.776777027, 96.390, 741.0, 27.2213
64.803037593, 96.390, 766.0, 27.6767
64.829298158, 96.390, 723.0, 26.8887
64.855558723, 96.390, 697.0, 26.4008
64.881819289, 96.390, 685.0, 26.1725
64.908079854, 96.390, 681.0, 26.0960
64.934340419, 96.390, 722.0, 26.8701
64.960600985, 96.390, 765.0, 27.6586
64.986861550, 96.390, 721.0, 26.8514
