[Measurement conditions]
Sample identification,XRD_Centroid16Mar22_Act23Mar22_B1_0714M_NaOH_LS0172_1
Comment - 1,"Configuration=Stage for Flat Samples/Holders, Owner=User-1, Creation date=7/1/2020 9:53:24 AM"
Comment - 2,"Goniometer=Theta/Theta; Minimum step size 2Theta:0.0001; Minimum step size Omega:0.0001"
Comment - 3,"Sample stage=Stage for flat samples/holders"
Comment - 4,"Diffractometer system=EMPYREAN"
Comment - 5,"Measurement program=C:\Users\ibo5034\OneDrive - The Pennsylvania State University\NEUP\Zerobackground scan.xrdmp, Identifier={98A3B11C-88F9-4AA6-982C-73314A311EF5}"
Anode material,Cu
K-Alpha1 wavelength,1.5405980
K-Alpha2 wavelength,1.5444260
Ratio K-Alpha2/K-Alpha1,0.500
Divergence slit,Fixed,0.25
Monochromator used,NO
Generator voltage, 45
Tube current, 40
File date and time,01/Apr/2022 16:14
Unit cell,
h k l, 0 0 0
Scan axis,Gonio
Scan range,4.994599997,64.999991833
Scan step size,0.0262606
No. of points, 2285
Scan type,CONTINUOUS
Time per step,96.390
[Scan points]
Angle, TimePerStep, Intensity, ESD
5.007730280, 96.390, 4439.0, 66.6258
5.033990845, 96.390, 4424.0, 66.5132
5.060251411, 96.390, 4238.0, 65.0999
5.086511976, 96.390, 4331.0, 65.8103
5.112772541, 96.390, 4355.0, 65.9924
5.139033107, 96.390, 4268.0, 65.3299
5.165293672, 96.390, 4226.0, 65.0077
5.191554237, 96.390, 4449.0, 66.7008
5.217814803, 96.390, 4220.0, 64.9615
5.244075368, 96.390, 4285.0, 65.4599
5.270335934, 96.390, 4108.0, 64.0937
5.296596499, 96.390, 4216.0, 64.9307
5.322857064, 96.390, 4119.0, 64.1794
5.349117630, 96.390, 4247.0, 65.1690
5.375378195, 96.390, 4119.0, 64.1794
5.401638760, 96.390, 4147.0, 64.3972
5.427899326, 96.390, 4083.0, 63.8984
5.454159891, 96.390, 4008.0, 63.3088
5.480420456, 96.390, 4028.0, 63.4665
5.506681022, 96.390, 3955.0, 62.8888
5.532941587, 96.390, 3964.0, 62.9603
5.559202152, 96.390, 4049.0, 63.6318
5.585462718, 96.390, 4071.0, 63.8044
5.611723283, 96.390, 4081.0, 63.8827
5.637983849, 96.390, 3905.0, 62.4900
5.664244414, 96.390, 3883.0, 62.3137
5.690504979, 96.390, 3990.0, 63.1664
5.716765545, 96.390, 3973.0, 63.0317
5.743026110, 96.390, 3834.0, 61.9193
5.769286675, 96.390, 4009.0, 63.3167
5.795547241, 96.390, 3890.0, 62.3699
5.821807806, 96.390, 3949.0, 62.8411
5.848068371, 96.390, 3941.0, 62.7774
5.874328937, 96.390, 3926.0, 62.6578
5.900589502, 96.390, 3915.0, 62.5700
5.926850067, 96.390, 3901.0, 62.4580
5.953110633, 96.390, 3847.0, 62.0242
5.979371198, 96.390, 3912.0, 62.5460
6.005631763, 96.390, 3839.0, 61.9597
6.031892329, 96.390, 3871.0, 62.2174
6.058152894, 96.390, 3943.0, 62.7933
6.084413460, 96.390, 3833.0, 61.9112
6.110674025, 96.390, 3870.0, 62.2093
6.136934590, 96.390, 3964.0, 62.9603
6.163195156, 96.390, 3856.0, 62.0967
6.189455721, 96.390, 3900.0, 62.4500
6.215716286, 96.390, 3852.0, 62.0645
6.241976852, 96.390, 3775.0, 61.4410
6.268237417, 96.390, 3834.0, 61.9193
6.294497982, 96.390, 3856.0, 62.0967
6.320758548, 96.390, 3715.0, 60.9508
6.347019113, 96.390, 3792.0, 61.5792
6.373279678, 96.390, 3819.0, 61.7981
6.399540244, 96.390, 3827.0, 61.8628
6.425800809, 96.390, 3682.0, 60.6795
6.452061375, 96.390, 3753.0, 61.2617
6.478321940, 96.390, 3792.0, 61.5792
6.504582505, 96.390, 3819.0, 61.7981
6.530843071, 96.390, 3759.0, 61.3107
6.557103636, 96.390, 3814.0, 61.7576
6.583364201, 96.390, 3746.0, 61.2046
6.609624767, 96.390, 3798.0, 61.6279
6.635885332, 96.390, 3769.0, 61.3922
6.662145897, 96.390, 3726.0, 61.0410
6.688406463, 96.390, 3739.0, 61.1474
6.714667028, 96.390, 3661.0, 60.5062
6.740927593, 96.390, 3708.0, 60.8933
6.767188159, 96.390, 3676.0, 60.6300
6.793448724, 96.390, 3635.0, 60.2910
6.819709289, 96.390, 3678.0, 60.6465
6.845969855, 96.390, 3627.0, 60.2246
6.872230420, 96.390, 3708.0, 60.8933
6.898490986, 96.390, 3675.0, 60.6218
6.924751551, 96.390, 3682.0, 60.6795
6.951012116, 96.390, 3685.0, 60.7042
6.977272682, 96.390, 3561.0, 59.6741
7.003533247, 96.390, 3660.0, 60.4979
7.029793812, 96.390, 3655.0, 60.4566
7.056054378, 96.390, 3702.0, 60.8441
7.082314943, 96.390, 3671.0, 60.5888
7.108575508, 96.390, 3501.0, 59.1692
7.134836074, 96.390, 3613.0, 60.1082
7.161096639, 96.390, 3586.0, 59.8832
7.187357204, 96.390, 3624.0, 60.1997
7.213617770, 96.390, 3616.0, 60.1332
7.239878335, 96.390, 3617.0, 60.1415
7.266138900, 96.390, 3584.0, 59.8665
7.292399466, 96.390, 3588.0, 59.8999
7.318660031, 96.390, 3563.0, 59.6909
7.344920597, 96.390, 3647.0, 60.3904
7.371181162, 96.390, 3571.0, 59.7578
7.397441727, 96.390, 3695.0, 60.7865
7.423702293, 96.390, 3721.0, 61.0000
7.449962858, 96.390, 3688.0, 60.7289
7.476223423, 96.390, 3673.0, 60.6053
7.502483989, 96.390, 3653.0, 60.4401
7.528744554, 96.390, 3709.0, 60.9016
7.555005119, 96.390, 3582.0, 59.8498
7.581265685, 96.390, 3577.0, 59.8080
7.607526250, 96.390, 3455.0, 58.7792
7.633786815, 96.390, 3615.0, 60.1249
7.660047381, 96.390, 3613.0, 60.1082
7.686307946, 96.390, 3568.0, 59.7327
7.712568512, 96.390, 3641.0, 60.3407
7.738829077, 96.390, 3549.0, 59.5735
7.765089642, 96.390, 3523.0, 59.3549
7.791350208, 96.390, 3514.0, 59.2790
7.817610773, 96.390, 3529.0, 59.4054
7.843871338, 96.390, 3614.0, 60.1166
7.870131904, 96.390, 3587.0, 59.8916
7.896392469, 96.390, 3595.0, 59.9583
7.922653034, 96.390, 3547.0, 59.5567
7.948913600, 96.390, 3522.0, 59.3464
7.975174165, 96.390, 3559.0, 59.6574
8.001434730, 96.390, 3574.0, 59.7829
8.027695296, 96.390, 3573.0, 59.7746
8.053955861, 96.390, 3591.0, 59.9250
8.080216426, 96.390, 3494.0, 59.1101
8.106476992, 96.390, 3549.0, 59.5735
8.132737557, 96.390, 3609.0, 60.0750
8.158998123, 96.390, 3633.0, 60.2744
8.185258688, 96.390, 3589.0, 59.9083
8.211519253, 96.390, 3545.0, 59.5399
8.237779819, 96.390, 3574.0, 59.7829
8.264040384, 96.390, 3451.0, 58.7452
8.290300949, 96.390, 3415.0, 58.4380
8.316561515, 96.390, 3488.0, 59.0593
8.342822080, 96.390, 3497.0, 59.1354
8.369082645, 96.390, 3574.0, 59.7829
8.395343211, 96.390, 3407.0, 58.3695
8.421603776, 96.390, 3554.0, 59.6154
8.447864341, 96.390, 3564.0, 59.6992
8.474124907, 96.390, 3415.0, 58.4380
8.500385472, 96.390, 3491.0, 59.0847
8.526646038, 96.390, 3442.0, 58.6686
8.552906603, 96.390, 3452.0, 58.7537
8.579167168, 96.390, 3499.0, 59.1523
8.605427734, 96.390, 3511.0, 59.2537
8.631688299, 96.390, 3539.0, 59.4895
8.657948864, 96.390, 3364.0, 58.0000
8.684209430, 96.390, 3485.0, 59.0339
8.710469995, 96.390, 3575.0, 59.7913
8.736730560, 96.390, 3465.0, 58.8643
8.762991126, 96.390, 3518.0, 59.3127
8.789251691, 96.390, 3406.0, 58.3609
8.815512256, 96.390, 3411.0, 58.4038
8.841772822, 96.390, 3459.0, 58.8133
8.868033387, 96.390, 3313.0, 57.5587
8.894293952, 96.390, 3347.0, 57.8533
8.920554518, 96.390, 3432.0, 58.5833
8.946815083, 96.390, 3505.0, 59.2030
8.973075649, 96.390, 3297.0, 57.4195
8.999336214, 96.390, 3360.0, 57.9655
9.025596779, 96.390, 3496.0, 59.1270
9.051857345, 96.390, 3420.0, 58.4808
9.078117910, 96.390, 3448.0, 58.7197
9.104378475, 96.390, 3353.0, 57.9051
9.130639041, 96.390, 3434.0, 58.6003
9.156899606, 96.390, 3386.0, 58.1893
9.183160171, 96.390, 3341.0, 57.8014
9.209420737, 96.390, 3510.0, 59.2453
9.235681302, 96.390, 3343.0, 57.8187
9.261941867, 96.390, 3361.0, 57.9741
9.288202433, 96.390, 3431.0, 58.5747
9.314462998, 96.390, 3466.0, 58.8727
9.340723564, 96.390, 3320.0, 57.6194
9.366984129, 96.390, 3410.0, 58.3952
9.393244694, 96.390, 3420.0, 58.4808
9.419505260, 96.390, 3381.0, 58.1464
9.445765825, 96.390, 3374.0, 58.0861
9.472026390, 96.390, 3446.0, 58.7026
9.498286956, 96.390, 3431.0, 58.5747
9.524547521, 96.390, 3342.0, 57.8100
9.550808086, 96.390, 3512.0, 59.2621
9.577068652, 96.390, 3375.0, 58.0948
9.603329217, 96.390, 3447.0, 58.7112
9.629589782, 96.390, 3360.0, 57.9655
9.655850348, 96.390, 3349.0, 57.8705
9.682110913, 96.390, 3377.0, 58.1120
9.708371478, 96.390, 3307.0, 57.5065
9.734632044, 96.390, 3333.0, 57.7321
9.760892609, 96.390, 3262.0, 57.1139
9.787153175, 96.390, 3406.0, 58.3609
9.813413740, 96.390, 3383.0, 58.1636
9.839674305, 96.390, 3325.0, 57.6628
9.865934871, 96.390, 3273.0, 57.2101
9.892195436, 96.390, 3380.0, 58.1378
9.918456001, 96.390, 3367.0, 58.0259
9.944716567, 96.390, 3344.0, 57.8273
9.970977132, 96.390, 3356.0, 57.9310
9.997237697, 96.390, 3363.0, 57.9914
10.023498263, 96.390, 3343.0, 57.8187
10.049758828, 96.390, 3289.0, 57.3498
10.076019393, 96.390, 3303.0, 57.4717
10.102279959, 96.390, 3435.0, 58.6089
10.128540524, 96.390, 3346.0, 57.8446
10.154801090, 96.390, 3287.0, 57.3324
10.181061655, 96.390, 3268.0, 57.1664
10.207322220, 96.390, 3273.0, 57.2101
10.233582786, 96.390, 3259.0, 57.0877
10.259843351, 96.390, 3292.0, 57.3760
10.286103916, 96.390, 3326.0, 57.6715
10.312364482, 96.390, 3377.0, 58.1120
10.338625047, 96.390, 3366.0, 58.0172
10.364885612, 96.390, 3381.0, 58.1464
10.391146178, 96.390, 3590.0, 59.9166
10.417406743, 96.390, 3689.0, 60.7371
10.443667308, 96.390, 3797.0, 61.6198
10.469927874, 96.390, 3855.0, 62.0886
10.496188439, 96.390, 3559.0, 59.6574
10.522449004, 96.390, 3342.0, 57.8100
10.548709570, 96.390, 3321.0, 57.6281
10.574970135, 96.390, 3237.0, 56.8946
10.601230701, 96.390, 3317.0, 57.5934
10.627491266, 96.390, 3251.0, 57.0175
10.653751831, 96.390, 3228.0, 56.8155
10.680012397, 96.390, 3215.0, 56.7010
10.706272962, 96.390, 3226.0, 56.7979
10.732533527, 96.390, 3292.0, 57.3760
10.758794093, 96.390, 3240.0, 56.9210
10.785054658, 96.390, 3279.0, 57.2626
10.811315223, 96.390, 3237.0, 56.8946
10.837575789, 96.390, 3326.0, 57.6715
10.863836354, 96.390, 3290.0, 57.3585
10.890096919, 96.390, 3249.0, 57.0000
10.916357485, 96.390, 3393.0, 58.2495
10.942618050, 96.390, 3379.0, 58.1292
10.968878616, 96.390, 3525.0, 59.3717
10.995139181, 96.390, 3394.0, 58.2580
11.021399746, 96.390, 3485.0, 59.0339
11.047660312, 96.390, 3387.0, 58.1979
11.073920877, 96.390, 3284.0, 57.3062
11.100181442, 96.390, 3197.0, 56.5420
11.126442008, 96.390, 3212.0, 56.6745
11.152702573, 96.390, 3217.0, 56.7186
11.178963138, 96.390, 3165.0, 56.2583
11.205223704, 96.390, 3179.0, 56.3826
11.231484269, 96.390, 3106.0, 55.7315
11.257744834, 96.390, 3154.0, 56.1605
11.284005400, 96.390, 3245.0, 56.9649
11.310265965, 96.390, 3114.0, 55.8032
11.336526530, 96.390, 3116.0, 55.8211
11.362787096, 96.390, 3103.0, 55.7046
11.389047661, 96.390, 3135.0, 55.9911
11.415308227, 96.390, 3053.0, 55.2540
11.441568792, 96.390, 3088.0, 55.5698
11.467829357, 96.390, 3111.0, 55.7763
11.494089923, 96.390, 3073.0, 55.4346
11.520350488, 96.390, 3104.0, 55.7136
11.546611053, 96.390, 3144.0, 56.0714
11.572871619, 96.390, 2960.0, 54.4059
11.599132184, 96.390, 2969.0, 54.4885
11.625392749, 96.390, 2996.0, 54.7357
11.651653315, 96.390, 3055.0, 55.2721
11.677913880, 96.390, 3080.0, 55.4977
11.704174445, 96.390, 2939.0, 54.2125
11.730435011, 96.390, 2939.0, 54.2125
11.756695576, 96.390, 2996.0, 54.7357
11.782956141, 96.390, 3141.0, 56.0446
11.809216707, 96.390, 3013.0, 54.8908
11.835477272, 96.390, 3016.0, 54.9181
11.861737838, 96.390, 3038.0, 55.1181
11.887998403, 96.390, 2875.0, 53.6190
11.914258968, 96.390, 3015.0, 54.9090
11.940519534, 96.390, 2962.0, 54.4243
11.966780099, 96.390, 2953.0, 54.3415
11.993040664, 96.390, 2898.0, 53.8331
12.019301230, 96.390, 2998.0, 54.7540
12.045561795, 96.390, 2888.0, 53.7401
12.071822360, 96.390, 2913.0, 53.9722
12.098082926, 96.390, 2908.0, 53.9259
12.124343491, 96.390, 2841.0, 53.3010
12.150604056, 96.390, 2913.0, 53.9722
12.176864622, 96.390, 2878.0, 53.6470
12.203125187, 96.390, 2843.0, 53.3198
12.229385753, 96.390, 2799.0, 52.9056
12.255646318, 96.390, 2902.0, 53.8702
12.281906883, 96.390, 2919.0, 54.0278
12.308167449, 96.390, 2799.0, 52.9056
12.334428014, 96.390, 2773.0, 52.6593
12.360688579, 96.390, 2837.0, 53.2635
12.386949145, 96.390, 2812.0, 53.0283
12.413209710, 96.390, 2830.0, 53.1977
12.439470275, 96.390, 2806.0, 52.9717
12.465730841, 96.390, 2708.0, 52.0384
12.491991406, 96.390, 2802.0, 52.9339
12.518251971, 96.390, 2864.0, 53.5164
12.544512537, 96.390, 2816.0, 53.0660
12.570773102, 96.390, 2789.0, 52.8110
12.597033667, 96.390, 2921.0, 54.0463
12.623294233, 96.390, 2823.0, 53.1319
12.649554798, 96.390, 2905.0, 53.8981
12.675815364, 96.390, 2948.0, 54.2955
12.702075929, 96.390, 2968.0, 54.4794
12.728336494, 96.390, 2957.0, 54.3783
12.754597060, 96.390, 2789.0, 52.8110
12.780857625, 96.390, 2768.0, 52.6118
12.807118190, 96.390, 2714.0, 52.0961
12.833378756, 96.390, 2717.0, 52.1249
12.859639321, 96.390, 2601.0, 51.0000
12.885899886, 96.390, 2681.0, 51.7784
12.912160452, 96.390, 2677.0, 51.7397
12.938421017, 96.390, 2651.0, 51.4879
12.964681582, 96.390, 2534.0, 50.3389
12.990942148, 96.390, 2625.0, 51.2348
13.017202713, 96.390, 2665.0, 51.6236
13.043463279, 96.390, 2627.0, 51.2543
13.069723844, 96.390, 2606.0, 51.0490
13.095984409, 96.390, 2590.0, 50.8920
13.122244975, 96.390, 2575.0, 50.7445
13.148505540, 96.390, 2512.0, 50.1199
13.174766105, 96.390, 2613.0, 51.1175
13.201026671, 96.390, 2520.0, 50.1996
13.227287236, 96.390, 2649.0, 51.4684
13.253547801, 96.390, 2620.0, 51.1859
13.279808367, 96.390, 2566.0, 50.6557
13.306068932, 96.390, 2549.0, 50.4876
13.332329497, 96.390, 2637.0, 51.3517
13.358590063, 96.390, 2667.0, 51.6430
13.384850628, 96.390, 2581.0, 50.8035
13.411111193, 96.390, 2632.0, 51.3030
13.437371759, 96.390, 2674.0, 51.7107
13.463632324, 96.390, 2845.0, 53.3385
13.489892890, 96.390, 2928.0, 54.1110
13.516153455, 96.390, 2986.0, 54.6443
13.542414020, 96.390, 2819.0, 53.0943
13.568674586, 96.390, 2791.0, 52.8299
13.594935151, 96.390, 2790.0, 52.8205
13.621195716, 96.390, 2778.0, 52.7067
13.647456282, 96.390, 2634.0, 51.3225
13.673716847, 96.390, 2696.0, 51.9230
13.699977412, 96.390, 2599.0, 50.9804
13.726237978, 96.390, 2621.0, 51.1957
13.752498543, 96.390, 2701.0, 51.9711
13.778759108, 96.390, 2867.0, 53.5444
13.805019674, 96.390, 2898.0, 53.8331
13.831280239, 96.390, 2912.0, 53.9630
13.857540805, 96.390, 2936.0, 54.1849
13.883801370, 96.390, 2680.0, 51.7687
13.910061935, 96.390, 2736.0, 52.3068
13.936322501, 96.390, 2612.0, 51.1077
13.962583066, 96.390, 2592.0, 50.9117
13.988843631, 96.390, 2497.0, 49.9700
14.015104197, 96.390, 2597.0, 50.9608
14.041364762, 96.390, 2620.0, 51.1859
14.067625327, 96.390, 2517.0, 50.1697
14.093885893, 96.390, 2514.0, 50.1398
14.120146458, 96.390, 2667.0, 51.6430
14.146407023, 96.390, 2780.0, 52.7257
14.172667589, 96.390, 3061.0, 55.3263
14.198928154, 96.390, 3195.0, 56.5243
14.225188719, 96.390, 3893.0, 62.3939
14.251449285, 96.390, 4017.0, 63.3798
14.277709850, 96.390, 4740.0, 68.8477
14.303970416, 96.390, 5782.0, 76.0395
14.330230981, 96.390, 4651.0, 68.1982
14.356491546, 96.390, 3371.0, 58.0603
14.382752112, 96.390, 2475.0, 49.7494
14.409012677, 96.390, 2498.0, 49.9800
14.435273242, 96.390, 2428.0, 49.2747
14.461533808, 96.390, 2469.0, 49.6890
14.487794373, 96.390, 2522.0, 50.2195
14.514054938, 96.390, 2643.0, 51.4101
14.540315504, 96.390, 2634.0, 51.3225
14.566576069, 96.390, 2674.0, 51.7107
14.592836634, 96.390, 2613.0, 51.1175
14.619097200, 96.390, 2412.0, 49.1121
14.645357765, 96.390, 2375.0, 48.7340
14.671618331, 96.390, 2230.0, 47.2229
14.697878896, 96.390, 2301.0, 47.9687
14.724139461, 96.390, 2322.0, 48.1871
14.750400027, 96.390, 2344.0, 48.4149
14.776660592, 96.390, 2268.0, 47.6235
14.802921157, 96.390, 2203.0, 46.9361
14.829181723, 96.390, 2309.0, 48.0521
14.855442288, 96.390, 2305.0, 48.0104
14.881702853, 96.390, 2272.0, 47.6655
14.907963419, 96.390, 2285.0, 47.8017
14.934223984, 96.390, 2344.0, 48.4149
14.960484549, 96.390, 2313.0, 48.0937
14.986745115, 96.390, 2290.0, 47.8539
15.013005680, 96.390, 2364.0, 48.6210
15.039266245, 96.390, 2334.0, 48.3115
15.065526811, 96.390, 2330.0, 48.2701
15.091787376, 96.390, 2300.0, 47.9583
15.118047942, 96.390, 2333.0, 48.3011
15.144308507, 96.390, 2497.0, 49.9700
15.170569072, 96.390, 2561.0, 50.6063
15.196829638, 96.390, 2718.0, 52.1344
15.223090203, 96.390, 2807.0, 52.9811
15.249350768, 96.390, 3048.0, 55.2087
15.275611334, 96.390, 3195.0, 56.5243
15.301871899, 96.390, 3269.0, 57.1752
15.328132464, 96.390, 3064.0, 55.3534
15.354393030, 96.390, 2740.0, 52.3450
15.380653595, 96.390, 2762.0, 52.5547
15.406914160, 96.390, 2442.0, 49.4166
15.433174726, 96.390, 2416.0, 49.1528
15.459435291, 96.390, 2419.0, 49.1833
15.485695857, 96.390, 2290.0, 47.8539
15.511956422, 96.390, 2322.0, 48.1871
15.538216987, 96.390, 2311.0, 48.0729
15.564477553, 96.390, 2247.0, 47.4025
15.590738118, 96.390, 2204.0, 46.9468
15.616998683, 96.390, 2301.0, 47.9687
15.643259249, 96.390, 2244.0, 47.3709
15.669519814, 96.390, 2316.0, 48.1248
15.695780379, 96.390, 2317.0, 48.1352
15.722040945, 96.390, 2166.0, 46.5403
15.748301510, 96.390, 2212.0, 47.0319
15.774562075, 96.390, 2177.0, 46.6583
15.800822641, 96.390, 2226.0, 47.1805
15.827083206, 96.390, 2162.0, 46.4973
15.853343771, 96.390, 2282.0, 47.7703
15.879604337, 96.390, 2226.0, 47.1805
15.905864902, 96.390, 2224.0, 47.1593
15.932125468, 96.390, 2298.0, 47.9375
15.958386033, 96.390, 2215.0, 47.0638
15.984646598, 96.390, 2208.0, 46.9894
16.010907164, 96.390, 2219.0, 47.1063
16.037167729, 96.390, 2279.0, 47.7389
16.063428294, 96.390, 2250.0, 47.4342
16.089688860, 96.390, 2282.0, 47.7703
16.115949425, 96.390, 2182.0, 46.7119
16.142209990, 96.390, 2185.0, 46.7440
16.168470556, 96.390, 2257.0, 47.5079
16.194731121, 96.390, 2087.0, 45.6837
16.220991686, 96.390, 2160.0, 46.4758
16.247252252, 96.390, 2320.0, 48.1664
16.273512817, 96.390, 2282.0, 47.7703
16.299773382, 96.390, 2300.0, 47.9583
16.326033948, 96.390, 2423.0, 49.2240
16.352294513, 96.390, 2393.0, 48.9183
16.378555079, 96.390, 2280.0, 47.7493
16.404815644, 96.390, 2267.0, 47.6130
16.431076209, 96.390, 2263.0, 47.5710
16.457336775, 96.390, 2171.0, 46.5940
16.483597340, 96.390, 2225.0, 47.1699
16.509857905, 96.390, 2245.0, 47.3814
16.536118471, 96.390, 2161.0, 46.4866
16.562379036, 96.390, 2239.0, 47.3181
16.588639601, 96.390, 2240.0, 47.3286
16.614900167, 96.390, 2238.0, 47.3075
16.641160732, 96.390, 2127.0, 46.1194
16.667421297, 96.390, 2150.0, 46.3681
16.693681863, 96.390, 2222.0, 47.1381
16.719942428, 96.390, 2142.0, 46.2817
16.746202994, 96.390, 2101.0, 45.8367
16.772463559, 96.390, 2201.0, 46.9148
16.798724124, 96.390, 2188.0, 46.7761
16.824984690, 96.390, 2217.0, 47.0850
16.851245255, 96.390, 2209.0, 47.0000
16.877505820, 96.390, 2255.0, 47.4868
16.903766386, 96.390, 2212.0, 47.0319
16.930026951, 96.390, 2322.0, 48.1871
16.956287516, 96.390, 2300.0, 47.9583
16.982548082, 96.390, 2192.0, 46.8188
17.008808647, 96.390, 2251.0, 47.4447
17.035069212, 96.390, 2147.0, 46.3357
17.061329778, 96.390, 2157.0, 46.4435
17.087590343, 96.390, 2128.0, 46.1303
17.113850908, 96.390, 2111.0, 45.9456
17.140111474, 96.390, 2042.0, 45.1885
17.166372039, 96.390, 2192.0, 46.8188
17.192632605, 96.390, 2183.0, 46.7226
17.218893170, 96.390, 2217.0, 47.0850
17.245153735, 96.390, 2218.0, 47.0956
17.271414301, 96.390, 2216.0, 47.0744
17.297674866, 96.390, 2184.0, 46.7333
17.323935431, 96.390, 2313.0, 48.0937
17.350195997, 96.390, 2372.0, 48.7032
17.376456562, 96.390, 2338.0, 48.3529
17.402717127, 96.390, 2350.0, 48.4768
17.428977693, 96.390, 2233.0, 47.2546
17.455238258, 96.390, 2272.0, 47.6655
17.481498823, 96.390, 2230.0, 47.2229
17.507759389, 96.390, 2251.0, 47.4447
17.534019954, 96.390, 2204.0, 46.9468
17.560280520, 96.390, 2161.0, 46.4866
17.586541085, 96.390, 2190.0, 46.7974
17.612801650, 96.390, 2187.0, 46.7654
17.639062216, 96.390, 2211.0, 47.0213
17.665322781, 96.390, 2176.0, 46.6476
17.691583346, 96.390, 2195.0, 46.8508
17.717843912, 96.390, 2217.0, 47.0850
17.744104477, 96.390, 2148.0, 46.3465
17.770365042, 96.390, 2182.0, 46.7119
17.796625608, 96.390, 2130.0, 46.1519
17.822886173, 96.390, 2227.0, 47.1911
17.849146738, 96.390, 2201.0, 46.9148
17.875407304, 96.390, 2193.0, 46.8295
17.901667869, 96.390, 2251.0, 47.4447
17.927928434, 96.390, 2168.0, 46.5618
17.954189000, 96.390, 2261.0, 47.5500
17.980449565, 96.390, 2175.0, 46.6369
18.006710131, 96.390, 2135.0, 46.2061
18.032970696, 96.390, 2252.0, 47.4552
18.059231261, 96.390, 2295.0, 47.9062
18.085491827, 96.390, 2269.0, 47.6340
18.111752392, 96.390, 2279.0, 47.7389
18.138012957, 96.390, 2351.0, 48.4871
18.164273523, 96.390, 2319.0, 48.1560
18.190534088, 96.390, 2223.0, 47.1487
18.216794653, 96.390, 2266.0, 47.6025
18.243055219, 96.390, 2248.0, 47.4131
18.269315784, 96.390, 2408.0, 49.0714
18.295576349, 96.390, 2673.0, 51.7011
18.321836915, 96.390, 2655.0, 51.5267
18.348097480, 96.390, 2543.0, 50.4282
18.374358046, 96.390, 2391.0, 48.8979
18.400618611, 96.390, 2443.0, 49.4267
18.426879176, 96.390, 2470.0, 49.6991
18.453139742, 96.390, 2539.0, 50.3885
18.479400307, 96.390, 2660.0, 51.5752
18.505660872, 96.390, 2401.0, 49.0000
18.531921438, 96.390, 2432.0, 49.3153
18.558182003, 96.390, 2294.0, 47.8957
18.584442568, 96.390, 2377.0, 48.7545
18.610703134, 96.390, 2238.0, 47.3075
18.636963699, 96.390, 2385.0, 48.8365
18.663224264, 96.390, 2220.0, 47.1169
18.689484830, 96.390, 2316.0, 48.1248
18.715745395, 96.390, 2257.0, 47.5079
18.742005960, 96.390, 2368.0, 48.6621
18.768266526, 96.390, 2429.0, 49.2849
18.794527091, 96.390, 2405.0, 49.0408
18.820787657, 96.390, 2382.0, 48.8057
18.847048222, 96.390, 2467.0, 49.6689
18.873308787, 96.390, 2486.0, 49.8598
18.899569353, 96.390, 2687.0, 51.8363
18.925829918, 96.390, 2650.0, 51.4782
18.952090483, 96.390, 2688.0, 51.8459
18.978351049, 96.390, 2661.0, 51.5849
19.004611614, 96.390, 2864.0, 53.5164
19.030872179, 96.390, 2713.0, 52.0865
19.057132745, 96.390, 2698.0, 51.9423
19.083393310, 96.390, 2613.0, 51.1175
19.109653875, 96.390, 2566.0, 50.6557
19.135914441, 96.390, 2599.0, 50.9804
19.162175006, 96.390, 2516.0, 50.1597
19.188435572, 96.390, 2433.0, 49.3254
19.214696137, 96.390, 2481.0, 49.8096
19.240956702, 96.390, 2402.0, 49.0102
19.267217268, 96.390, 2393.0, 48.9183
19.293477833, 96.390, 2509.0, 50.0899
19.319738398, 96.390, 2506.0, 50.0600
19.345998964, 96.390, 2546.0, 50.4579
19.372259529, 96.390, 2782.0, 52.7447
19.398520094, 96.390, 2912.0, 53.9630
19.424780660, 96.390, 2922.0, 54.0555
19.451041225, 96.390, 2974.0, 54.5344
19.477301790, 96.390, 2987.0, 54.6535
19.503562356, 96.390, 2855.0, 53.4322
19.529822921, 96.390, 2762.0, 52.5547
19.556083486, 96.390, 2660.0, 51.5752
19.582344052, 96.390, 2545.0, 50.4480
19.608604617, 96.390, 2601.0, 51.0000
19.634865183, 96.390, 2548.0, 50.4777
19.661125748, 96.390, 2528.0, 50.2792
19.687386313, 96.390, 2680.0, 51.7687
19.713646879, 96.390, 2764.0, 52.5738
19.739907444, 96.390, 2916.0, 54.0000
19.766168009, 96.390, 3014.0, 54.8999
19.792428575, 96.390, 3179.0, 56.3826
19.818689140, 96.390, 3033.0, 55.0727
19.844949705, 96.390, 3009.0, 54.8544
19.871210271, 96.390, 2971.0, 54.5069
19.897470836, 96.390, 3068.0, 55.3895
19.923731401, 96.390, 3263.0, 57.1227
19.949991967, 96.390, 3489.0, 59.0678
19.976252532, 96.390, 3918.0, 62.5939
20.002513097, 96.390, 3905.0, 62.4900
20.028773663, 96.390, 3506.0, 59.2115
20.055034228, 96.390, 3162.0, 56.2317
20.081294794, 96.390, 2817.0, 53.0754
20.107555359, 96.390, 2621.0, 51.1957
20.133815924, 96.390, 2552.0, 50.5173
20.160076490, 96.390, 2558.0, 50.5767
20.186337055, 96.390, 2561.0, 50.6063
20.212597620, 96.390, 2474.0, 49.7393
20.238858186, 96.390, 2566.0, 50.6557
20.265118751, 96.390, 2547.0, 50.4678
20.291379316, 96.390, 2594.0, 50.9313
20.317639882, 96.390, 2751.0, 52.4500
20.343900447, 96.390, 2719.0, 52.1440
20.370161012, 96.390, 2933.0, 54.1572
20.396421578, 96.390, 3026.0, 55.0091
20.422682143, 96.390, 3345.0, 57.8360
20.448942709, 96.390, 3992.0, 63.1823
20.475203274, 96.390, 3359.0, 57.9569
20.501463839, 96.390, 3522.0, 59.3464
20.527724405, 96.390, 3256.0, 57.0614
20.553984970, 96.390, 3343.0, 57.8187
20.580245535, 96.390, 3591.0, 59.9250
20.606506101, 96.390, 3936.0, 62.7375
20.632766666, 96.390, 4386.0, 66.2269
20.659027231, 96.390, 4956.0, 70.3989
20.685287797, 96.390, 5576.0, 74.6726
20.711548362, 96.390, 6280.0, 79.2465
20.737808927, 96.390, 6248.0, 79.0443
20.764069493, 96.390, 5180.0, 71.9722
20.790330058, 96.390, 4113.0, 64.1327
20.816590623, 96.390, 3548.0, 59.5651
20.842851189, 96.390, 2957.0, 54.3783
20.869111754, 96.390, 2805.0, 52.9623
20.895372320, 96.390, 2781.0, 52.7352
20.921632885, 96.390, 2605.0, 51.0392
20.947893450, 96.390, 2755.0, 52.4881
20.974154016, 96.390, 2790.0, 52.8205
21.000414581, 96.390, 2795.0, 52.8678
21.026675146, 96.390, 2745.0, 52.3927
21.052935712, 96.390, 2745.0, 52.3927
21.079196277, 96.390, 2629.0, 51.2738
21.105456842, 96.390, 2659.0, 51.5655
21.131717408, 96.390, 2532.0, 50.3190
21.157977973, 96.390, 2645.0, 51.4296
21.184238538, 96.390, 2641.0, 51.3907
21.210499104, 96.390, 2617.0, 51.1566
21.236759669, 96.390, 2631.0, 51.2933
21.263020235, 96.390, 2612.0, 51.1077
21.289280800, 96.390, 2673.0, 51.7011
21.315541365, 96.390, 2661.0, 51.5849
21.341801931, 96.390, 2767.0, 52.6023
21.368062496, 96.390, 2668.0, 51.6527
21.394323061, 96.390, 2663.0, 51.6043
21.420583627, 96.390, 2632.0, 51.3030
21.446844192, 96.390, 2609.0, 51.0784
21.473104757, 96.390, 2530.0, 50.2991
21.499365323, 96.390, 2614.0, 51.1273
21.525625888, 96.390, 2617.0, 51.1566
21.551886453, 96.390, 2735.0, 52.2972
21.578147019, 96.390, 2887.0, 53.7308
21.604407584, 96.390, 2869.0, 53.5630
21.630668149, 96.390, 2822.0, 53.1225
21.656928715, 96.390, 2846.0, 53.3479
21.683189280, 96.390, 2815.0, 53.0566
21.709449846, 96.390, 2663.0, 51.6043
21.735710411, 96.390, 2604.0, 51.0294
21.761970976, 96.390, 2677.0, 51.7397
21.788231542, 96.390, 2576.0, 50.7543
21.814492107, 96.390, 2710.0, 52.0577
21.840752672, 96.390, 2593.0, 50.9215
21.867013238, 96.390, 2645.0, 51.4296
21.893273803, 96.390, 2558.0, 50.5767
21.919534368, 96.390, 2635.0, 51.3323
21.945794934, 96.390, 2531.0, 50.3090
21.972055499, 96.390, 2603.0, 51.0196
21.998316064, 96.390, 2621.0, 51.1957
22.024576630, 96.390, 2619.0, 51.1762
22.050837195, 96.390, 2797.0, 52.8867
22.077097761, 96.390, 2712.0, 52.0769
22.103358326, 96.390, 2703.0, 51.9904
22.129618891, 96.390, 2855.0, 53.4322
22.155879457, 96.390, 2788.0, 52.8015
22.182140022, 96.390, 2693.0, 51.8941
22.208400587, 96.390, 2665.0, 51.6236
22.234661153, 96.390, 2687.0, 51.8363
22.260921718, 96.390, 2668.0, 51.6527
22.287182283, 96.390, 2696.0, 51.9230
22.313442849, 96.390, 2708.0, 52.0384
22.339703414, 96.390, 2653.0, 51.5073
22.365963979, 96.390, 2633.0, 51.3128
22.392224545, 96.390, 2660.0, 51.5752
22.418485110, 96.390, 2598.0, 50.9706
22.444745675, 96.390, 2683.0, 51.7977
22.471006241, 96.390, 2649.0, 51.4684
22.497266806, 96.390, 2600.0, 50.9902
22.523527372, 96.390, 2695.0, 51.9134
22.549787937, 96.390, 2859.0, 53.4696
22.576048502, 96.390, 2826.0, 53.1601
22.602309068, 96.390, 2820.0, 53.1037
22.628569633, 96.390, 2818.0, 53.0848
22.654830198, 96.390, 2684.0, 51.8073
22.681090764, 96.390, 2721.0, 52.1632
22.707351329, 96.390, 2722.0, 52.1728
22.733611894, 96.390, 2650.0, 51.4782
22.759872460, 96.390, 2669.0, 51.6624
22.786133025, 96.390, 2774.0, 52.6688
22.812393590, 96.390, 2846.0, 53.3479
22.838654156, 96.390, 2877.0, 53.6377
22.864914721, 96.390, 2795.0, 52.8678
22.891175287, 96.390, 2926.0, 54.0925
22.917435852, 96.390, 2968.0, 54.4794
22.943696417, 96.390, 2751.0, 52.4500
22.969956983, 96.390, 2790.0, 52.8205
22.996217548, 96.390, 2870.0, 53.5724
23.022478113, 96.390, 2750.0, 52.4404
23.048738679, 96.390, 2860.0, 53.4790
23.074999244, 96.390, 2792.0, 52.8394
23.101259809, 96.390, 2713.0, 52.0865
23.127520375, 96.390, 2808.0, 52.9906
23.153780940, 96.390, 2806.0, 52.9717
23.180041505, 96.390, 2841.0, 53.3010
23.206302071, 96.390, 2791.0, 52.8299
23.232562636, 96.390, 2875.0, 53.6190
23.258823201, 96.390, 2746.0, 52.4023
23.285083767, 96.390, 2725.0, 52.2015
23.311344332, 96.390, 2782.0, 52.7447
23.337604898, 96.390, 2686.0, 51.8266
23.363865463, 96.390, 2817.0, 53.0754
23.390126028, 96.390, 2672.0, 51.6914
23.416386594, 96.390, 2844.0, 53.3292
23.442647159, 96.390, 2714.0, 52.0961
23.468907724, 96.390, 2776.0, 52.6878
23.495168290, 96.390, 2772.0, 52.6498
23.521428855, 96.390, 2933.0, 54.1572
23.547689420, 96.390, 3540.0, 59.4979
23.573949986, 96.390, 3268.0, 57.1664
23.600210551, 96.390, 3131.0, 55.9553
23.626471116, 96.390, 2938.0, 54.2033
23.652731682, 96.390, 2683.0, 51.7977
23.678992247, 96.390, 2600.0, 50.9902
23.705252813, 96.390, 2515.0, 50.1498
23.731513378, 96.390, 2535.0, 50.3488
23.757773943, 96.390, 2557.0, 50.5668
23.784034509, 96.390, 2596.0, 50.9510
23.810295074, 96.390, 2493.0, 49.9300
23.836555639, 96.390, 2569.0, 50.6853
23.862816205, 96.390, 2375.0, 48.7340
23.889076770, 96.390, 2455.0, 49.5480
23.915337335, 96.390, 2476.0, 49.7594
23.941597901, 96.390, 2566.0, 50.6557
23.967858466, 96.390, 2517.0, 50.1697
23.994119031, 96.390, 2457.0, 49.5681
24.020379597, 96.390, 2469.0, 49.6890
24.046640162, 96.390, 2552.0, 50.5173
24.072900727, 96.390, 2625.0, 51.2348
24.099161293, 96.390, 2510.0, 50.0999
24.125421858, 96.390, 2599.0, 50.9804
24.151682424, 96.390, 2767.0, 52.6023
24.177942989, 96.390, 2753.0, 52.4690
24.204203554, 96.390, 2887.0, 53.7308
24.230464120, 96.390, 3034.0, 55.0818
24.256724685, 96.390, 2911.0, 53.9537
24.282985250, 96.390, 2799.0, 52.9056
24.309245816, 96.390, 2722.0, 52.1728
24.335506381, 96.390, 2866.0, 53.5350
24.361766946, 96.390, 2695.0, 51.9134
24.388027512, 96.390, 2473.0, 49.7293
24.414288077, 96.390, 2620.0, 51.1859
24.440548642, 96.390, 2417.0, 49.1630
24.466809208, 96.390, 2440.0, 49.3964
24.493069773, 96.390, 2557.0, 50.5668
24.519330338, 96.390, 2665.0, 51.6236
24.545590904, 96.390, 3428.0, 58.5491
24.571851469, 96.390, 4152.0, 64.4360
24.598112035, 96.390, 4516.0, 67.2012
24.624372600, 96.390, 3075.0, 55.4527
24.650633165, 96.390, 3532.0, 59.4306
24.676893731, 96.390, 2550.0, 50.4975
24.703154296, 96.390, 2404.0, 49.0306
24.729414861, 96.390, 2283.0, 47.7807
24.755675427, 96.390, 2253.0, 47.4658
24.781935992, 96.390, 2267.0, 47.6130
24.808196557, 96.390, 2291.0, 47.8644
24.834457123, 96.390, 2218.0, 47.0956
24.860717688, 96.390, 2302.0, 47.9792
24.886978253, 96.390, 2213.0, 47.0425
24.913238819, 96.390, 2233.0, 47.2546
24.939499384, 96.390, 2311.0, 48.0729
24.965759950, 96.390, 2210.0, 47.0106
24.992020515, 96.390, 2269.0, 47.6340
25.018281080, 96.390, 2328.0, 48.2494
25.044541646, 96.390, 2370.0, 48.6826
25.070802211, 96.390, 2318.0, 48.1456
25.097062776, 96.390, 2190.0, 46.7974
25.123323342, 96.390, 2229.0, 47.2123
25.149583907, 96.390, 2215.0, 47.0638
25.175844472, 96.390, 2274.0, 47.6865
25.202105038, 96.390, 2207.0, 46.9787
25.228365603, 96.390, 2112.0, 45.9565
25.254626168, 96.390, 2135.0, 46.2061
25.280886734, 96.390, 2169.0, 46.5725
25.307147299, 96.390, 2208.0, 46.9894
25.333407864, 96.390, 2258.0, 47.5184
25.359668430, 96.390, 2441.0, 49.4065
25.385928995, 96.390, 2596.0, 50.9510
25.412189561, 96.390, 2809.0, 53.0000
25.438450126, 96.390, 2990.0, 54.6809
25.464710691, 96.390, 2971.0, 54.5069
25.490971257, 96.390, 2825.0, 53.1507
25.517231822, 96.390, 2601.0, 51.0000
25.543492387, 96.390, 2416.0, 49.1528
25.569752953, 96.390, 2269.0, 47.6340
25.596013518, 96.390, 2188.0, 46.7761
25.622274083, 96.390, 2115.0, 45.9891
25.648534649, 96.390, 2152.0, 46.3897
25.674795214, 96.390, 2060.0, 45.3872
25.701055779, 96.390, 2126.0, 46.1086
25.727316345, 96.390, 2025.0, 45.0000
25.753576910, 96.390, 2036.0, 45.1221
25.779837476, 96.390, 2110.0, 45.9347
25.806098041, 96.390, 2062.0, 45.4093
25.832358606, 96.390, 2090.0, 45.7165
25.858619172, 96.390, 2122.0, 46.0652
25.884879737, 96.390, 2153.0, 46.4004
25.911140302, 96.390, 2111.0, 45.9456
25.937400868, 96.390, 2132.0, 46.1736
25.963661433, 96.390, 2055.0, 45.3321
25.989921998, 96.390, 2185.0, 46.7440
26.016182564, 96.390, 1988.0, 44.5870
26.042443129, 96.390, 2042.0, 45.1885
26.068703694, 96.390, 2026.0, 45.0111
26.094964260, 96.390, 2022.0, 44.9667
26.121224825, 96.390, 1964.0, 44.3170
26.147485390, 96.390, 1994.0, 44.6542
26.173745956, 96.390, 2009.0, 44.8219
26.200006521, 96.390, 1969.0, 44.3734
26.226267087, 96.390, 2014.0, 44.8776
26.252527652, 96.390, 1966.0, 44.3396
26.278788217, 96.390, 2019.0, 44.9333
26.305048783, 96.390, 2021.0, 44.9555
26.331309348, 96.390, 2028.0, 45.0333
26.357569913, 96.390, 2002.0, 44.7437
26.383830479, 96.390, 2058.0, 45.3652
26.410091044, 96.390, 2016.0, 44.8999
26.436351609, 96.390, 1987.0, 44.5758
26.462612175, 96.390, 2107.0, 45.9021
26.488872740, 96.390, 2110.0, 45.9347
26.515133305, 96.390, 1993.0, 44.6430
26.541393871, 96.390, 2044.0, 45.2106
26.567654436, 96.390, 2069.0, 45.4863
26.593915002, 96.390, 1956.0, 44.2267
26.620175567, 96.390, 1997.0, 44.6878
26.646436132, 96.390, 2173.0, 46.6154
26.672696698, 96.390, 2043.0, 45.1996
26.698957263, 96.390, 2055.0, 45.3321
26.725217828, 96.390, 2025.0, 45.0000
26.751478394, 96.390, 2085.0, 45.6618
26.777738959, 96.390, 2079.0, 45.5961
26.803999524, 96.390, 2199.0, 46.8935
26.830260090, 96.390, 2133.0, 46.1844
26.856520655, 96.390, 2133.0, 46.1844
26.882781220, 96.390, 2158.0, 46.4543
26.909041786, 96.390, 2125.0, 46.0977
26.935302351, 96.390, 2065.0, 45.4423
26.961562916, 96.390, 2133.0, 46.1844
26.987823482, 96.390, 2147.0, 46.3357
27.014084047, 96.390, 2282.0, 47.7703
27.040344613, 96.390, 2390.0, 48.8876
27.066605178, 96.390, 2352.0, 48.4974
27.092865743, 96.390, 2531.0, 50.3090
27.119126309, 96.390, 2733.0, 52.2781
27.145386874, 96.390, 2794.0, 52.8583
27.171647439, 96.390, 3070.0, 55.4076
27.197908005, 96.390, 3345.0, 57.8360
27.224168570, 96.390, 3227.0, 56.8067
27.250429135, 96.390, 2889.0, 53.7494
27.276689701, 96.390, 2656.0, 51.5364
27.302950266, 96.390, 2493.0, 49.9300
27.329210831, 96.390, 2485.0, 49.8498
27.355471397, 96.390, 2464.0, 49.6387
27.381731962, 96.390, 2228.0, 47.2017
27.407992528, 96.390, 2175.0, 46.6369
27.434253093, 96.390, 2054.0, 45.3211
27.460513658, 96.390, 1902.0, 43.6119
27.486774224, 96.390, 1850.0, 43.0116
27.513034789, 96.390, 1916.0, 43.7721
27.539295354, 96.390, 1831.0, 42.7902
27.565555920, 96.390, 1809.0, 42.5323
27.591816485, 96.390, 1886.0, 43.4281
27.618077050, 96.390, 1964.0, 44.3170
27.644337616, 96.390, 2022.0, 44.9667
27.670598181, 96.390, 1909.0, 43.6921
27.696858746, 96.390, 1946.0, 44.1135
27.723119312, 96.390, 1995.0, 44.6654
27.749379877, 96.390, 1962.0, 44.2945
27.775640442, 96.390, 1897.0, 43.5546
27.801901008, 96.390, 1958.0, 44.2493
27.828161573, 96.390, 1847.0, 42.9767
27.854422139, 96.390, 1971.0, 44.3959
27.880682704, 96.390, 1919.0, 43.8064
27.906943269, 96.390, 1909.0, 43.6921
27.933203835, 96.390, 1946.0, 44.1135
27.959464400, 96.390, 1818.0, 42.6380
27.985724965, 96.390, 1848.0, 42.9884
28.011985531, 96.390, 1959.0, 44.2606
28.038246096, 96.390, 1889.0, 43.4626
28.064506661, 96.390, 1946.0, 44.1135
28.090767227, 96.390, 1949.0, 44.1475
28.117027792, 96.390, 1960.0, 44.2719
28.143288357, 96.390, 1950.0, 44.1588
28.169548923, 96.390, 1889.0, 43.4626
28.195809488, 96.390, 1907.0, 43.6692
28.222070054, 96.390, 2026.0, 45.0111
28.248330619, 96.390, 1952.0, 44.1814
28.274591184, 96.390, 1980.0, 44.4972
28.300851750, 96.390, 1878.0, 43.3359
28.327112315, 96.390, 1918.0, 43.7950
28.353372880, 96.390, 1972.0, 44.4072
28.379633446, 96.390, 1936.0, 44.0000
28.405894011, 96.390, 1882.0, 43.3820
28.432154576, 96.390, 1838.0, 42.8719
28.458415142, 96.390, 1854.0, 43.0581
28.484675707, 96.390, 1936.0, 44.0000
28.510936272, 96.390, 1893.0, 43.5086
28.537196838, 96.390, 1910.0, 43.7035
28.563457403, 96.390, 1973.0, 44.4185
28.589717968, 96.390, 1897.0, 43.5546
28.615978534, 96.390, 1859.0, 43.1161
28.642239099, 96.390, 1790.0, 42.3084
28.668499665, 96.390, 1924.0, 43.8634
28.694760230, 96.390, 1942.0, 44.0681
28.721020795, 96.390, 2020.0, 44.9444
28.747281361, 96.390, 1932.0, 43.9545
28.773541926, 96.390, 2121.0, 46.0543
28.799802491, 96.390, 2117.0, 46.0109
28.826063057, 96.390, 2046.0, 45.2327
28.852323622, 96.390, 2072.0, 45.5192
28.878584187, 96.390, 2026.0, 45.0111
28.904844753, 96.390, 1993.0, 44.6430
28.931105318, 96.390, 1918.0, 43.7950
28.957365883, 96.390, 1912.0, 43.7264
28.983626449, 96.390, 2027.0, 45.0222
29.009887014, 96.390, 1945.0, 44.1022
29.036147579, 96.390, 2040.0, 45.1664
29.062408145, 96.390, 2201.0, 46.9148
29.088668710, 96.390, 2157.0, 46.4435
29.114929276, 96.390, 2297.0, 47.9270
29.141189841, 96.390, 2367.0, 48.6518
29.167450406, 96.390, 2329.0, 48.2597
29.193710972, 96.390, 2284.0, 47.7912
29.219971537, 96.390, 2156.0, 46.4327
29.246232102, 96.390, 2132.0, 46.1736
29.272492668, 96.390, 2187.0, 46.7654
29.298753233, 96.390, 2180.0, 46.6905
29.325013798, 96.390, 2253.0, 47.4658
29.351274364, 96.390, 2224.0, 47.1593
29.377534929, 96.390, 2139.0, 46.2493
29.403795494, 96.390, 2197.0, 46.8722
29.430056060, 96.390, 2081.0, 45.6180
29.456316625, 96.390, 2147.0, 46.3357
29.482577191, 96.390, 2108.0, 45.9130
29.508837756, 96.390, 2150.0, 46.3681
29.535098321, 96.390, 2063.0, 45.4203
29.561358887, 96.390, 2068.0, 45.4753
29.587619452, 96.390, 2051.0, 45.2880
29.613880017, 96.390, 2084.0, 45.6508
29.640140583, 96.390, 2038.0, 45.1442
29.666401148, 96.390, 1922.0, 43.8406
29.692661713, 96.390, 1911.0, 43.7150
29.718922279, 96.390, 2026.0, 45.0111
29.745182844, 96.390, 1846.0, 42.9651
29.771443409, 96.390, 1930.0, 43.9318
29.797703975, 96.390, 1895.0, 43.5316
29.823964540, 96.390, 1896.0, 43.5431
29.850225105, 96.390, 1812.0, 42.5676
29.876485671, 96.390, 1923.0, 43.8520
29.902746236, 96.390, 1814.0, 42.5911
29.929006802, 96.390, 1833.0, 42.8135
29.955267367, 96.390, 1816.0, 42.6146
29.981527932, 96.390, 1909.0, 43.6921
30.007788498, 96.390, 1890.0, 43.4741
30.034049063, 96.390, 1850.0, 43.0116
30.060309628, 96.390, 1791.0, 42.3202
30.086570194, 96.390, 1825.0, 42.7200
30.112830759, 96.390, 1864.0, 43.1741
30.139091324, 96.390, 1874.0, 43.2897
30.165351890, 96.390, 1824.0, 42.7083
30.191612455, 96.390, 1807.0, 42.5088
30.217873020, 96.390, 1901.0, 43.6005
30.244133586, 96.390, 1810.0, 42.5441
30.270394151, 96.390, 1955.0, 44.2154
30.296654717, 96.390, 1895.0, 43.5316
30.322915282, 96.390, 1865.0, 43.1856
30.349175847, 96.390, 1862.0, 43.1509
30.375436413, 96.390, 1882.0, 43.3820
30.401696978, 96.390, 1938.0, 44.0227
30.427957543, 96.390, 1947.0, 44.1248
30.454218109, 96.390, 2194.0, 46.8402
30.480478674, 96.390, 2180.0, 46.6905
30.506739239, 96.390, 2107.0, 45.9021
30.532999805, 96.390, 2148.0, 46.3465
30.559260370, 96.390, 2214.0, 47.0532
30.585520935, 96.390, 2132.0, 46.1736
30.611781501, 96.390, 2244.0, 47.3709
30.638042066, 96.390, 2326.0, 48.2286
30.664302631, 96.390, 2625.0, 51.2348
30.690563197, 96.390, 2763.0, 52.5642
30.716823762, 96.390, 2883.0, 53.6936
30.743084328, 96.390, 2904.0, 53.8888
30.769344893, 96.390, 2750.0, 52.4404
30.795605458, 96.390, 2624.0, 51.2250
30.821866024, 96.390, 2514.0, 50.1398
30.848126589, 96.390, 2330.0, 48.2701
30.874387154, 96.390, 2250.0, 47.4342
30.900647720, 96.390, 2120.0, 46.0435
30.926908285, 96.390, 2122.0, 46.0652
30.953168850, 96.390, 2071.0, 45.5082
30.979429416, 96.390, 1994.0, 44.6542
31.005689981, 96.390, 1911.0, 43.7150
31.031950546, 96.390, 1974.0, 44.4297
31.058211112, 96.390, 1969.0, 44.3734
31.084471677, 96.390, 2020.0, 44.9444
31.110732243, 96.390, 2111.0, 45.9456
31.136992808, 96.390, 2211.0, 47.0213
31.163253373, 96.390, 2449.0, 49.4874
31.189513939, 96.390, 2642.0, 51.4004
31.215774504, 96.390, 2956.0, 54.3691
31.242035069, 96.390, 2957.0, 54.3783
31.268295635, 96.390, 2763.0, 52.5642
31.294556200, 96.390, 2665.0, 51.6236
31.320816765, 96.390, 2609.0, 51.0784
31.347077331, 96.390, 2493.0, 49.9300
31.373337896, 96.390, 2409.0, 49.0816
31.399598461, 96.390, 2367.0, 48.6518
31.425859027, 96.390, 2372.0, 48.7032
31.452119592, 96.390, 2221.0, 47.1275
31.478380157, 96.390, 2400.0, 48.9898
31.504640723, 96.390, 2538.0, 50.3786
31.530901288, 96.390, 2480.0, 49.7996
31.557161854, 96.390, 2443.0, 49.4267
31.583422419, 96.390, 2368.0, 48.6621
31.609682984, 96.390, 2517.0, 50.1697
31.635943550, 96.390, 2736.0, 52.3068
31.662204115, 96.390, 2877.0, 53.6377
31.688464680, 96.390, 2824.0, 53.1413
31.714725246, 96.390, 4119.0, 64.1794
31.740985811, 96.390, 3383.0, 58.1636
31.767246376, 96.390, 2828.0, 53.1789
31.793506942, 96.390, 2939.0, 54.2125
31.819767507, 96.390, 2706.0, 52.0192
31.846028072, 96.390, 2255.0, 47.4868
31.872288638, 96.390, 2086.0, 45.6727
31.898549203, 96.390, 2283.0, 47.7807
31.924809769, 96.390, 2344.0, 48.4149
31.951070334, 96.390, 2516.0, 50.1597
31.977330899, 96.390, 2810.0, 53.0094
32.003591465, 96.390, 3292.0, 57.3760
32.029852030, 96.390, 4080.0, 63.8749
32.056112595, 96.390, 4723.0, 68.7241
32.082373161, 96.390, 5039.0, 70.9859
32.108633726, 96.390, 4702.0, 68.5711
32.134894291, 96.390, 4158.0, 64.4826
32.161154857, 96.390, 3689.0, 60.7371
32.187415422, 96.390, 3176.0, 56.3560
32.213675987, 96.390, 2690.0, 51.8652
32.239936553, 96.390, 2391.0, 48.8979
32.266197118, 96.390, 2326.0, 48.2286
32.292457683, 96.390, 2196.0, 46.8615
32.318718249, 96.390, 2067.0, 45.4643
32.344978814, 96.390, 2025.0, 45.0000
32.371239380, 96.390, 1968.0, 44.3621
32.397499945, 96.390, 1917.0, 43.7836
32.423760510, 96.390, 1901.0, 43.6005
32.450021076, 96.390, 1907.0, 43.6692
32.476281641, 96.390, 1795.0, 42.3674
32.502542206, 96.390, 1801.0, 42.4382
32.528802772, 96.390, 1786.0, 42.2611
32.555063337, 96.390, 1853.0, 43.0465
32.581323902, 96.390, 1820.0, 42.6615
32.607584468, 96.390, 1867.0, 43.2088
32.633845033, 96.390, 1845.0, 42.9535
32.660105598, 96.390, 1888.0, 43.4511
32.686366164, 96.390, 1914.0, 43.7493
32.712626729, 96.390, 2106.0, 45.8912
32.738887295, 96.390, 2004.0, 44.7661
32.765147860, 96.390, 1893.0, 43.5086
32.791408425, 96.390, 1923.0, 43.8520
32.817668991, 96.390, 1879.0, 43.3474
32.843929556, 96.390, 1788.0, 42.2847
32.870190121, 96.390, 1824.0, 42.7083
32.896450687, 96.390, 1920.0, 43.8178
32.922711252, 96.390, 1949.0, 44.1475
32.948971817, 96.390, 2055.0, 45.3321
32.975232383, 96.390, 2108.0, 45.9130
33.001492948, 96.390, 2012.0, 44.8553
33.027753513, 96.390, 2090.0, 45.7165
33.054014079, 96.390, 2152.0, 46.3897
33.080274644, 96.390, 2235.0, 47.2758
33.106535209, 96.390, 2222.0, 47.1381
33.132795775, 96.390, 2186.0, 46.7547
33.159056340, 96.390, 2134.0, 46.1952
33.185316906, 96.390, 2277.0, 47.7179
33.211577471, 96.390, 2146.0, 46.3249
33.237838036, 96.390, 2108.0, 45.9130
33.264098602, 96.390, 2061.0, 45.3982
33.290359167, 96.390, 2011.0, 44.8442
33.316619732, 96.390, 1976.0, 44.4522
33.342880298, 96.390, 2047.0, 45.2438
33.369140863, 96.390, 2047.0, 45.2438
33.395401428, 96.390, 2132.0, 46.1736
33.421661994, 96.390, 2346.0, 48.4355
33.447922559, 96.390, 2803.0, 52.9434
33.474183124, 96.390, 2524.0, 50.2394
33.500443690, 96.390, 2361.0, 48.5901
33.526704255, 96.390, 2353.0, 48.5077
33.552964820, 96.390, 2211.0, 47.0213
33.579225386, 96.390, 2049.0, 45.2659
33.605485951, 96.390, 1896.0, 43.5431
33.631746517, 96.390, 1851.0, 43.0232
33.658007082, 96.390, 1844.0, 42.9418
33.684267647, 96.390, 1819.0, 42.6497
33.710528213, 96.390, 1769.0, 42.0595
33.736788778, 96.390, 1853.0, 43.0465
33.763049343, 96.390, 1796.0, 42.3792
33.789309909, 96.390, 1826.0, 42.7317
33.815570474, 96.390, 1867.0, 43.2088
33.841831039, 96.390, 1951.0, 44.1701
33.868091605, 96.390, 2160.0, 46.4758
33.894352170, 96.390, 2341.0, 48.3839
33.920612735, 96.390, 2505.0, 50.0500
33.946873301, 96.390, 2867.0, 53.5444
33.973133866, 96.390, 2890.0, 53.7587
33.999394432, 96.390, 3003.0, 54.7996
34.025654997, 96.390, 2615.0, 51.1371
34.051915562, 96.390, 2555.0, 50.5470
34.078176128, 96.390, 2428.0, 49.2747
34.104436693, 96.390, 2191.0, 46.8081
34.130697258, 96.390, 2123.0, 46.0760
34.156957824, 96.390, 2049.0, 45.2659
34.183218389, 96.390, 2030.0, 45.0555
34.209478954, 96.390, 2002.0, 44.7437
34.235739520, 96.390, 1986.0, 44.5646
34.262000085, 96.390, 2120.0, 46.0435
34.288260650, 96.390, 2206.0, 46.9681
34.314521216, 96.390, 2152.0, 46.3897
34.340781781, 96.390, 2319.0, 48.1560
34.367042346, 96.390, 2260.0, 47.5395
34.393302912, 96.390, 2378.0, 48.7647
34.419563477, 96.390, 2349.0, 48.4665
34.445824043, 96.390, 2412.0, 49.1121
34.472084608, 96.390, 2589.0, 50.8822
34.498345173, 96.390, 2560.0, 50.5964
34.524605739, 96.390, 2635.0, 51.3323
34.550866304, 96.390, 2628.0, 51.2640
34.577126869, 96.390, 2712.0, 52.0769
34.603387435, 96.390, 2719.0, 52.1440
34.629648000, 96.390, 2705.0, 52.0096
34.655908565, 96.390, 2703.0, 51.9904
34.682169131, 96.390, 2681.0, 51.7784
34.708429696, 96.390, 2657.0, 51.5461
34.734690261, 96.390, 2501.0, 50.0100
34.760950827, 96.390, 2505.0, 50.0500
34.787211392, 96.390, 2475.0, 49.7494
34.813471958, 96.390, 2542.0, 50.4183
34.839732523, 96.390, 2589.0, 50.8822
34.865993088, 96.390, 2628.0, 51.2640
34.892253654, 96.390, 2932.0, 54.1479
34.918514219, 96.390, 3176.0, 56.3560
34.944774784, 96.390, 3239.0, 56.9122
34.971035350, 96.390, 3403.0, 58.3352
34.997295915, 96.390, 3215.0, 56.7010
35.023556480, 96.390, 3176.0, 56.3560
35.049817046, 96.390, 3023.0, 54.9818
35.076077611, 96.390, 2770.0, 52.6308
35.102338176, 96.390, 2697.0, 51.9326
35.128598742, 96.390, 2664.0, 51.6140
35.154859307, 96.390, 2402.0, 49.0102
35.181119872, 96.390, 2415.0, 49.1426
35.207380438, 96.390, 2521.0, 50.2096
35.233641003, 96.390, 2495.0, 49.9500
35.259901569, 96.390, 2402.0, 49.0102
35.286162134, 96.390, 2327.0, 48.2390
35.312422699, 96.390, 2377.0, 48.7545
35.338683265, 96.390, 2229.0, 47.2123
35.364943830, 96.390, 2177.0, 46.6583
35.391204395, 96.390, 2134.0, 46.1952
35.417464961, 96.390, 2096.0, 45.7821
35.443725526, 96.390, 2028.0, 45.0333
35.469986091, 96.390, 2089.0, 45.7056
35.496246657, 96.390, 2027.0, 45.0222
35.522507222, 96.390, 2156.0, 46.4327
35.548767787, 96.390, 2151.0, 46.3789
35.575028353, 96.390, 2114.0, 45.9783
35.601288918, 96.390, 2141.0, 46.2709
35.627549484, 96.390, 2148.0, 46.3465
35.653810049, 96.390, 2101.0, 45.8367
35.680070614, 96.390, 2166.0, 46.5403
35.706331180, 96.390, 2070.0, 45.4973
35.732591745, 96.390, 2177.0, 46.6583
35.758852310, 96.390, 2199.0, 46.8935
35.785112876, 96.390, 2078.0, 45.5851
35.811373441, 96.390, 2067.0, 45.4643
35.837634006, 96.390, 2094.0, 45.7602
35.863894572, 96.390, 2226.0, 47.1805
35.890155137, 96.390, 2245.0, 47.3814
35.916415702, 96.390, 2158.0, 46.4543
35.942676268, 96.390, 2345.0, 48.4252
35.968936833, 96.390, 2269.0, 47.6340
35.995197398, 96.390, 2173.0, 46.6154
36.021457964, 96.390, 2249.0, 47.4236
36.047718529, 96.390, 2405.0, 49.0408
36.073979095, 96.390, 2126.0, 46.1086
36.100239660, 96.390, 2125.0, 46.0977
36.126500225, 96.390, 2124.0, 46.0869
36.152760791, 96.390, 2077.0, 45.5741
36.179021356, 96.390, 2137.0, 46.2277
36.205281921, 96.390, 2126.0, 46.1086
36.231542487, 96.390, 2181.0, 46.7012
36.257803052, 96.390, 2141.0, 46.2709
36.284063617, 96.390, 2050.0, 45.2769
36.310324183, 96.390, 2036.0, 45.1221
36.336584748, 96.390, 2095.0, 45.7712
36.362845313, 96.390, 2131.0, 46.1628
36.389105879, 96.390, 2132.0, 46.1736
36.415366444, 96.390, 1964.0, 44.3170
36.441627010, 96.390, 1924.0, 43.8634
36.467887575, 96.390, 1967.0, 44.3509
36.494148140, 96.390, 1853.0, 43.0465
36.520408706, 96.390, 1839.0, 42.8836
36.546669271, 96.390, 1779.0, 42.1782
36.572929836, 96.390, 1767.0, 42.0357
36.599190402, 96.390, 1749.0, 41.8210
36.625450967, 96.390, 1681.0, 41.0000
36.651711532, 96.390, 1777.0, 42.1545
36.677972098, 96.390, 1833.0, 42.8135
36.704232663, 96.390, 1852.0, 43.0349
36.730493228, 96.390, 1793.0, 42.3438
36.756753794, 96.390, 1761.0, 41.9643
36.783014359, 96.390, 1756.0, 41.9047
36.809274924, 96.390, 1754.0, 41.8808
36.835535490, 96.390, 1666.0, 40.8167
36.861796055, 96.390, 1685.0, 41.0488
36.888056621, 96.390, 1656.0, 40.6940
36.914317186, 96.390, 1609.0, 40.1123
36.940577751, 96.390, 1662.0, 40.7676
36.966838317, 96.390, 1629.0, 40.3609
36.993098882, 96.390, 1703.0, 41.2674
37.019359447, 96.390, 1658.0, 40.7185
37.045620013, 96.390, 1739.0, 41.7013
37.071880578, 96.390, 1645.0, 40.5586
37.098141143, 96.390, 1604.0, 40.0500
37.124401709, 96.390, 1597.0, 39.9625
37.150662274, 96.390, 1653.0, 40.6571
37.176922839, 96.390, 1667.0, 40.8289
37.203183405, 96.390, 1612.0, 40.1497
37.229443970, 96.390, 1687.0, 41.0731
37.255704535, 96.390, 1649.0, 40.6079
37.281965101, 96.390, 1617.0, 40.2119
37.308225666, 96.390, 1656.0, 40.6940
37.334486232, 96.390, 1645.0, 40.5586
37.360746797, 96.390, 1709.0, 41.3401
37.387007362, 96.390, 1725.0, 41.5331
37.413267928, 96.390, 1662.0, 40.7676
37.439528493, 96.390, 1649.0, 40.6079
37.465789058, 96.390, 1708.0, 41.3280
37.492049624, 96.390, 1731.0, 41.6053
37.518310189, 96.390, 1724.0, 41.5211
37.544570754, 96.390, 1720.0, 41.4729
37.570831320, 96.390, 1793.0, 42.3438
37.597091885, 96.390, 1732.0, 41.6173
37.623352450, 96.390, 1899.0, 43.5775
37.649613016, 96.390, 1803.0, 42.4617
37.675873581, 96.390, 1888.0, 43.4511
37.702134147, 96.390, 1920.0, 43.8178
37.728394712, 96.390, 2098.0, 45.8039
37.754655277, 96.390, 2149.0, 46.3573
37.780915843, 96.390, 2033.0, 45.0888
37.807176408, 96.390, 2004.0, 44.7661
37.833436973, 96.390, 2051.0, 45.2880
37.859697539, 96.390, 2025.0, 45.0000
37.885958104, 96.390, 1940.0, 44.0454
37.912218669, 96.390, 1904.0, 43.6348
37.938479235, 96.390, 1778.0, 42.1663
37.964739800, 96.390, 1738.0, 41.6893
37.991000365, 96.390, 1765.0, 42.0119
38.017260931, 96.390, 1673.0, 40.9023
38.043521496, 96.390, 1690.0, 41.1096
38.069782061, 96.390, 1660.0, 40.7431
38.096042627, 96.390, 1704.0, 41.2795
38.122303192, 96.390, 1760.0, 41.9524
38.148563758, 96.390, 1779.0, 42.1782
38.174824323, 96.390, 1769.0, 42.0595
38.201084888, 96.390, 1870.0, 43.2435
38.227345454, 96.390, 1818.0, 42.6380
38.253606019, 96.390, 1833.0, 42.8135
38.279866584, 96.390, 1799.0, 42.4146
38.306127150, 96.390, 1824.0, 42.7083
38.332387715, 96.390, 1738.0, 41.6893
38.358648280, 96.390, 1693.0, 41.1461
38.384908846, 96.390, 1597.0, 39.9625
38.411169411, 96.390, 1611.0, 40.1373
38.437429976, 96.390, 1719.0, 41.4608
38.463690542, 96.390, 1684.0, 41.0366
38.489951107, 96.390, 1626.0, 40.3237
38.516211673, 96.390, 1609.0, 40.1123
38.542472238, 96.390, 1658.0, 40.7185
38.568732803, 96.390, 1680.0, 40.9878
38.594993369, 96.390, 1603.0, 40.0375
38.621253934, 96.390, 1632.0, 40.3980
38.647514499, 96.390, 1567.0, 39.5854
38.673775065, 96.390, 1707.0, 41.3159
38.700035630, 96.390, 1826.0, 42.7317
38.726296195, 96.390, 1728.0, 41.5692
38.752556761, 96.390, 1825.0, 42.7200
38.778817326, 96.390, 1889.0, 43.4626
38.805077891, 96.390, 1920.0, 43.8178
38.831338457, 96.390, 1839.0, 42.8836
38.857599022, 96.390, 1706.0, 41.3038
38.883859587, 96.390, 1709.0, 41.3401
38.910120153, 96.390, 1647.0, 40.5832
38.936380718, 96.390, 1589.0, 39.8623
38.962641284, 96.390, 1550.0, 39.3700
38.988901849, 96.390, 1513.0, 38.8973
39.015162414, 96.390, 1508.0, 38.8330
39.041422980, 96.390, 1425.0, 37.7492
39.067683545, 96.390, 1478.0, 38.4448
39.093944110, 96.390, 1475.0, 38.4057
39.120204676, 96.390, 1394.0, 37.3363
39.146465241, 96.390, 1468.0, 38.3145
39.172725806, 96.390, 1498.0, 38.7040
39.198986372, 96.390, 1585.0, 39.8121
39.225246937, 96.390, 1641.0, 40.5093
39.251507502, 96.390, 1627.0, 40.3361
39.277768068, 96.390, 1590.0, 39.8748
39.304028633, 96.390, 1662.0, 40.7676
39.330289199, 96.390, 1702.0, 41.2553
39.356549764, 96.390, 1681.0, 41.0000
39.382810329, 96.390, 1784.0, 42.2374
39.409070895, 96.390, 1876.0, 43.3128
39.435331460, 96.390, 2000.0, 44.7214
39.461592025, 96.390, 1934.0, 43.9773
39.487852591, 96.390, 1827.0, 42.7434
39.514113156, 96.390, 1764.0, 42.0000
39.540373721, 96.390, 1816.0, 42.6146
39.566634287, 96.390, 1654.0, 40.6694
39.592894852, 96.390, 1625.0, 40.3113
39.619155417, 96.390, 1592.0, 39.8999
39.645415983, 96.390, 1553.0, 39.4081
39.671676548, 96.390, 1480.0, 38.4708
39.697937113, 96.390, 1509.0, 38.8458
39.724197679, 96.390, 1552.0, 39.3954
39.750458244, 96.390, 1554.0, 39.4208
39.776718810, 96.390, 1581.0, 39.7618
39.802979375, 96.390, 1648.0, 40.5956
39.829239940, 96.390, 1575.0, 39.6863
39.855500506, 96.390, 1521.0, 39.0000
39.881761071, 96.390, 1575.0, 39.6863
39.908021636, 96.390, 1494.0, 38.6523
39.934282202, 96.390, 1511.0, 38.8716
39.960542767, 96.390, 1555.0, 39.4335
39.986803332, 96.390, 1454.0, 38.1314
40.013063898, 96.390, 1545.0, 39.3065
40.039324463, 96.390, 1536.0, 39.1918
40.065585028, 96.390, 1546.0, 39.3192
40.091845594, 96.390, 1507.0, 38.8201
40.118106159, 96.390, 1605.0, 40.0625
40.144366725, 96.390, 1593.0, 39.9124
40.170627290, 96.390, 1597.0, 39.9625
40.196887855, 96.390, 1483.0, 38.5097
40.223148421, 96.390, 1408.0, 37.5233
40.249408986, 96.390, 1369.0, 37.0000
40.275669551, 96.390, 1460.0, 38.2099
40.301930117, 96.390, 1364.0, 36.9324
40.328190682, 96.390, 1402.0, 37.4433
40.354451247, 96.390, 1381.0, 37.1618
40.380711813, 96.390, 1412.0, 37.5766
40.406972378, 96.390, 1333.0, 36.5103
40.433232943, 96.390, 1291.0, 35.9305
40.459493509, 96.390, 1277.0, 35.7351
40.485754074, 96.390, 1303.0, 36.0971
40.512014639, 96.390, 1388.0, 37.2559
40.538275205, 96.390, 1372.0, 37.0405
40.564535770, 96.390, 1429.0, 37.8021
40.590796336, 96.390, 1539.0, 39.2301
40.617056901, 96.390, 1509.0, 38.8458
40.643317466, 96.390, 1553.0, 39.4081
40.669578032, 96.390, 1480.0, 38.4708
40.695838597, 96.390, 1436.0, 37.8946
40.722099162, 96.390, 1461.0, 38.2230
40.748359728, 96.390, 1415.0, 37.6165
40.774620293, 96.390, 1348.0, 36.7151
40.800880858, 96.390, 1304.0, 36.1109
40.827141424, 96.390, 1190.0, 34.4964
40.853401989, 96.390, 1298.0, 36.0278
40.879662554, 96.390, 1293.0, 35.9583
40.905923120, 96.390, 1194.0, 34.5543
40.932183685, 96.390, 1304.0, 36.1109
40.958444251, 96.390, 1311.0, 36.2077
40.984704816, 96.390, 1324.0, 36.3868
41.010965381, 96.390, 1260.0, 35.4965
41.037225947, 96.390, 1315.0, 36.2629
41.063486512, 96.390, 1329.0, 36.4555
41.089747077, 96.390, 1422.0, 37.7094
41.116007643, 96.390, 1388.0, 37.2559
41.142268208, 96.390, 1305.0, 36.1248
41.168528773, 96.390, 1278.0, 35.7491
41.194789339, 96.390, 1340.0, 36.6060
41.221049904, 96.390, 1277.0, 35.7351
41.247310469, 96.390, 1296.0, 36.0000
41.273571035, 96.390, 1381.0, 37.1618
41.299831600, 96.390, 1369.0, 37.0000
41.326092165, 96.390, 1556.0, 39.4462
41.352352731, 96.390, 1634.0, 40.4228
41.378613296, 96.390, 1738.0, 41.6893
41.404873862, 96.390, 1863.0, 43.1625
41.431134427, 96.390, 1740.0, 41.7133
41.457394992, 96.390, 1658.0, 40.7185
41.483655558, 96.390, 1562.0, 39.5221
41.509916123, 96.390, 1620.0, 40.2492
41.536176688, 96.390, 1554.0, 39.4208
41.562437254, 96.390, 1419.0, 37.6696
41.588697819, 96.390, 1346.0, 36.6879
41.614958384, 96.390, 1278.0, 35.7491
41.641218950, 96.390, 1326.0, 36.4143
41.667479515, 96.390, 1302.0, 36.0832
41.693740080, 96.390, 1302.0, 36.0832
41.720000646, 96.390, 1294.0, 35.9722
41.746261211, 96.390, 1261.0, 35.5106
41.772521776, 96.390, 1226.0, 35.0143
41.798782342, 96.390, 1218.0, 34.8999
41.825042907, 96.390, 1271.0, 35.6511
41.851303473, 96.390, 1342.0, 36.6333
41.877564038, 96.390, 1286.0, 35.8608
41.903824603, 96.390, 1249.0, 35.3412
41.930085169, 96.390, 1229.0, 35.0571
41.956345734, 96.390, 1313.0, 36.2353
41.982606299, 96.390, 1352.0, 36.7696
42.008866865, 96.390, 1304.0, 36.1109
42.035127430, 96.390, 1295.0, 35.9861
42.061387995, 96.390, 1388.0, 37.2559
42.087648561, 96.390, 1506.0, 38.8072
42.113909126, 96.390, 1655.0, 40.6817
42.140169691, 96.390, 1910.0, 43.7035
42.166430257, 96.390, 2015.0, 44.8888
42.192690822, 96.390, 1648.0, 40.5956
42.218951388, 96.390, 1644.0, 40.5463
42.245211953, 96.390, 1643.0, 40.5339
42.271472518, 96.390, 1646.0, 40.5709
42.297733084, 96.390, 1426.0, 37.7624
42.323993649, 96.390, 1406.0, 37.4967
42.350254214, 96.390, 1353.0, 36.7831
42.376514780, 96.390, 1300.0, 36.0555
42.402775345, 96.390, 1249.0, 35.3412
42.429035910, 96.390, 1279.0, 35.7631
42.455296476, 96.390, 1270.0, 35.6371
42.481557041, 96.390, 1369.0, 37.0000
42.507817606, 96.390, 1373.0, 37.0540
42.534078172, 96.390, 1337.0, 36.5650
42.560338737, 96.390, 1374.0, 37.0675
42.586599302, 96.390, 1458.0, 38.1838
42.612859868, 96.390, 1449.0, 38.0657
42.639120433, 96.390, 1397.0, 37.3765
42.665380999, 96.390, 1380.0, 37.1484
42.691641564, 96.390, 1415.0, 37.6165
42.717902129, 96.390, 1426.0, 37.7624
42.744162695, 96.390, 1385.0, 37.2156
42.770423260, 96.390, 1359.0, 36.8646
42.796683825, 96.390, 1256.0, 35.4401
42.822944391, 96.390, 1320.0, 36.3318
42.849204956, 96.390, 1309.0, 36.1801
42.875465521, 96.390, 1265.0, 35.5668
42.901726087, 96.390, 1154.0, 33.9706
42.927986652, 96.390, 1160.0, 34.0588
42.954247217, 96.390, 1262.0, 35.5246
42.980507783, 96.390, 1219.0, 34.9142
43.006768348, 96.390, 1159.0, 34.0441
43.033028914, 96.390, 1188.0, 34.4674
43.059289479, 96.390, 1225.0, 35.0000
43.085550044, 96.390, 1284.0, 35.8329
43.111810610, 96.390, 1290.0, 35.9166
43.138071175, 96.390, 1198.0, 34.6121
43.164331740, 96.390, 1254.0, 35.4119
43.190592306, 96.390, 1141.0, 33.7787
43.216852871, 96.390, 1210.0, 34.7851
43.243113436, 96.390, 1147.0, 33.8674
43.269374002, 96.390, 1159.0, 34.0441
43.295634567, 96.390, 1232.0, 35.0999
43.321895132, 96.390, 1195.0, 34.5688
43.348155698, 96.390, 1240.0, 35.2136
43.374416263, 96.390, 1133.0, 33.6601
43.400676828, 96.390, 1109.0, 33.3017
43.426937394, 96.390, 1230.0, 35.0714
43.453197959, 96.390, 1171.0, 34.2199
43.479458525, 96.390, 1186.0, 34.4384
43.505719090, 96.390, 1168.0, 34.1760
43.531979655, 96.390, 1162.0, 34.0881
43.558240221, 96.390, 1203.0, 34.6843
43.584500786, 96.390, 1190.0, 34.4964
43.610761351, 96.390, 1264.0, 35.5528
43.637021917, 96.390, 1258.0, 35.4683
43.663282482, 96.390, 1210.0, 34.7851
43.689543047, 96.390, 1427.0, 37.7757
43.715803613, 96.390, 1439.0, 37.9342
43.742064178, 96.390, 1475.0, 38.4057
43.768324743, 96.390, 1663.0, 40.7799
43.794585309, 96.390, 1631.0, 40.3856
43.820845874, 96.390, 1612.0, 40.1497
43.847106440, 96.390, 1480.0, 38.4708
43.873367005, 96.390, 1507.0, 38.8201
43.899627570, 96.390, 1573.0, 39.6611
43.925888136, 96.390, 1426.0, 37.7624
43.952148701, 96.390, 1356.0, 36.8239
43.978409266, 96.390, 1339.0, 36.5923
44.004669832, 96.390, 1300.0, 36.0555
44.030930397, 96.390, 1294.0, 35.9722
44.057190962, 96.390, 1224.0, 34.9857
44.083451528, 96.390, 1253.0, 35.3977
44.109712093, 96.390, 1216.0, 34.8712
44.135972658, 96.390, 1222.0, 34.9571
44.162233224, 96.390, 1205.0, 34.7131
44.188493789, 96.390, 1269.0, 35.6230
44.214754354, 96.390, 1314.0, 36.2491
44.241014920, 96.390, 1409.0, 37.5366
44.267275485, 96.390, 1392.0, 37.3095
44.293536051, 96.390, 1358.0, 36.8511
44.319796616, 96.390, 1414.0, 37.6032
44.346057181, 96.390, 1505.0, 38.7943
44.372317747, 96.390, 1469.0, 38.3275
44.398578312, 96.390, 1575.0, 39.6863
44.424838877, 96.390, 1507.0, 38.8201
44.451099443, 96.390, 1523.0, 39.0256
44.477360008, 96.390, 1423.0, 37.7227
44.503620573, 96.390, 1396.0, 37.3631
44.529881139, 96.390, 1445.0, 38.0132
44.556141704, 96.390, 1362.0, 36.9053
44.582402269, 96.390, 1333.0, 36.5103
44.608662835, 96.390, 1295.0, 35.9861
44.634923400, 96.390, 1281.0, 35.7911
44.661183966, 96.390, 1321.0, 36.3456
44.687444531, 96.390, 1353.0, 36.7831
44.713705096, 96.390, 1345.0, 36.6742
44.739965662, 96.390, 1354.0, 36.7967
44.766226227, 96.390, 1447.0, 38.0395
44.792486792, 96.390, 1353.0, 36.7831
44.818747358, 96.390, 1354.0, 36.7967
44.845007923, 96.390, 1433.0, 37.8550
44.871268488, 96.390, 1415.0, 37.6165
44.897529054, 96.390, 1380.0, 37.1484
44.923789619, 96.390, 1369.0, 37.0000
44.950050184, 96.390, 1311.0, 36.2077
44.976310750, 96.390, 1319.0, 36.3180
45.002571315, 96.390, 1386.0, 37.2290
45.028831880, 96.390, 1338.0, 36.5787
45.055092446, 96.390, 1379.0, 37.1349
45.081353011, 96.390, 1476.0, 38.4187
45.107613577, 96.390, 1560.0, 39.4968
45.133874142, 96.390, 1633.0, 40.4104
45.160134707, 96.390, 1598.0, 39.9750
45.186395273, 96.390, 1557.0, 39.4588
45.212655838, 96.390, 1546.0, 39.3192
45.238916403, 96.390, 1523.0, 39.0256
45.265176969, 96.390, 1523.0, 39.0256
45.291437534, 96.390, 1561.0, 39.5095
45.317698099, 96.390, 1466.0, 38.2884
45.343958665, 96.390, 1573.0, 39.6611
45.370219230, 96.390, 1559.0, 39.4842
45.396479795, 96.390, 1484.0, 38.5227
45.422740361, 96.390, 1530.0, 39.1152
45.449000926, 96.390, 1568.0, 39.5980
45.475261492, 96.390, 1626.0, 40.3237
45.501522057, 96.390, 1604.0, 40.0500
45.527782622, 96.390, 1579.0, 39.7366
45.554043188, 96.390, 1526.0, 39.0640
45.580303753, 96.390, 1417.0, 37.6431
45.606564318, 96.390, 1371.0, 37.0270
45.632824884, 96.390, 1407.0, 37.5100
45.659085449, 96.390, 1451.0, 38.0920
45.685346014, 96.390, 1340.0, 36.6060
45.711606580, 96.390, 1351.0, 36.7560
45.737867145, 96.390, 1314.0, 36.2491
45.764127710, 96.390, 1372.0, 37.0405
45.790388276, 96.390, 1304.0, 36.1109
45.816648841, 96.390, 1266.0, 35.5809
45.842909406, 96.390, 1212.0, 34.8138
45.869169972, 96.390, 1323.0, 36.3731
45.895430537, 96.390, 1242.0, 35.2420
45.921691103, 96.390, 1272.0, 35.6651
45.947951668, 96.390, 1332.0, 36.4966
45.974212233, 96.390, 1310.0, 36.1939
46.000472799, 96.390, 1328.0, 36.4417
46.026733364, 96.390, 1312.0, 36.2215
46.052993929, 96.390, 1346.0, 36.6879
46.079254495, 96.390, 1343.0, 36.6470
46.105515060, 96.390, 1331.0, 36.4829
46.131775625, 96.390, 1399.0, 37.4032
46.158036191, 96.390, 1489.0, 38.5876
46.184296756, 96.390, 1449.0, 38.0657
46.210557321, 96.390, 1472.0, 38.3667
46.236817887, 96.390, 1583.0, 39.7869
46.263078452, 96.390, 1679.0, 40.9756
46.289339017, 96.390, 1677.0, 40.9512
46.315599583, 96.390, 1700.0, 41.2311
46.341860148, 96.390, 1680.0, 40.9878
46.368120714, 96.390, 1699.0, 41.2189
46.394381279, 96.390, 1906.0, 43.6578
46.420641844, 96.390, 1903.0, 43.6234
46.446902410, 96.390, 1628.0, 40.3485
46.473162975, 96.390, 1550.0, 39.3700
46.499423540, 96.390, 1511.0, 38.8716
46.525684106, 96.390, 1528.0, 39.0896
46.551944671, 96.390, 1557.0, 39.4588
46.578205236, 96.390, 1350.0, 36.7423
46.604465802, 96.390, 1347.0, 36.7015
46.630726367, 96.390, 1363.0, 36.9188
46.656986932, 96.390, 1372.0, 37.0405
46.683247498, 96.390, 1367.0, 36.9730
46.709508063, 96.390, 1362.0, 36.9053
46.735768629, 96.390, 1342.0, 36.6333
46.762029194, 96.390, 1344.0, 36.6606
46.788289759, 96.390, 1358.0, 36.8511
46.814550325, 96.390, 1323.0, 36.3731
46.840810890, 96.390, 1296.0, 36.0000
46.867071455, 96.390, 1296.0, 36.0000
46.893332021, 96.390, 1290.0, 35.9166
46.919592586, 96.390, 1332.0, 36.4966
46.945853151, 96.390, 1336.0, 36.5513
46.972113717, 96.390, 1434.0, 37.8682
46.998374282, 96.390, 1346.0, 36.6879
47.024634847, 96.390, 1407.0, 37.5100
47.050895413, 96.390, 1350.0, 36.7423
47.077155978, 96.390, 1341.0, 36.6197
47.103416543, 96.390, 1318.0, 36.3043
47.129677109, 96.390, 1287.0, 35.8748
47.155937674, 96.390, 1324.0, 36.3868
47.182198240, 96.390, 1217.0, 34.8855
47.208458805, 96.390, 1268.0, 35.6090
47.234719370, 96.390, 1210.0, 34.7851
47.260979936, 96.390, 1260.0, 35.4965
47.287240501, 96.390, 1229.0, 35.0571
47.313501066, 96.390, 1271.0, 35.6511
47.339761632, 96.390, 1262.0, 35.5246
47.366022197, 96.390, 1266.0, 35.5809
47.392282762, 96.390, 1300.0, 36.0555
47.418543328, 96.390, 1208.0, 34.7563
47.444803893, 96.390, 1267.0, 35.5949
47.471064458, 96.390, 1310.0, 36.1939
47.497325024, 96.390, 1267.0, 35.5949
47.523585589, 96.390, 1245.0, 35.2846
47.549846155, 96.390, 1266.0, 35.5809
47.576106720, 96.390, 1259.0, 35.4824
47.602367285, 96.390, 1275.0, 35.7071
47.628627851, 96.390, 1220.0, 34.9285
47.654888416, 96.390, 1213.0, 34.8281
47.681148981, 96.390, 1233.0, 35.1141
47.707409547, 96.390, 1284.0, 35.8329
47.733670112, 96.390, 1270.0, 35.6371
47.759930677, 96.390, 1214.0, 34.8425
47.786191243, 96.390, 1264.0, 35.5528
47.812451808, 96.390, 1266.0, 35.5809
47.838712373, 96.390, 1222.0, 34.9571
47.864972939, 96.390, 1250.0, 35.3553
47.891233504, 96.390, 1247.0, 35.3129
47.917494069, 96.390, 1227.0, 35.0286
47.943754635, 96.390, 1200.0, 34.6410
47.970015200, 96.390, 1155.0, 33.9853
47.996275766, 96.390, 1208.0, 34.7563
48.022536331, 96.390, 1188.0, 34.4674
48.048796896, 96.390, 1262.0, 35.5246
48.075057462, 96.390, 1350.0, 36.7423
48.101318027, 96.390, 1268.0, 35.6090
48.127578592, 96.390, 1333.0, 36.5103
48.153839158, 96.390, 1375.0, 37.0810
48.180099723, 96.390, 1262.0, 35.5246
48.206360288, 96.390, 1283.0, 35.8190
48.232620854, 96.390, 1333.0, 36.5103
48.258881419, 96.390, 1259.0, 35.4824
48.285141984, 96.390, 1243.0, 35.2562
48.311402550, 96.390, 1216.0, 34.8712
48.337663115, 96.390, 1230.0, 35.0714
48.363923681, 96.390, 1225.0, 35.0000
48.390184246, 96.390, 1282.0, 35.8050
48.416444811, 96.390, 1307.0, 36.1525
48.442705377, 96.390, 1331.0, 36.4829
48.468965942, 96.390, 1408.0, 37.5233
48.495226507, 96.390, 1414.0, 37.6032
48.521487073, 96.390, 1375.0, 37.0810
48.547747638, 96.390, 1439.0, 37.9342
48.574008203, 96.390, 1340.0, 36.6060
48.600268769, 96.390, 1317.0, 36.2905
48.626529334, 96.390, 1243.0, 35.2562
48.652789899, 96.390, 1228.0, 35.0428
48.679050465, 96.390, 1244.0, 35.2704
48.705311030, 96.390, 1165.0, 34.1321
48.731571595, 96.390, 1152.0, 33.9411
48.757832161, 96.390, 1091.0, 33.0303
48.784092726, 96.390, 1147.0, 33.8674
48.810353292, 96.390, 1253.0, 35.3977
48.836613857, 96.390, 1189.0, 34.4819
48.862874422, 96.390, 1083.0, 32.9090
48.889134988, 96.390, 1109.0, 33.3017
48.915395553, 96.390, 1191.0, 34.5109
48.941656118, 96.390, 1118.0, 33.4365
48.967916684, 96.390, 1082.0, 32.8938
48.994177249, 96.390, 1162.0, 34.0881
49.020437814, 96.390, 1150.0, 33.9116
49.046698380, 96.390, 1189.0, 34.4819
49.072958945, 96.390, 1150.0, 33.9116
49.099219510, 96.390, 1169.0, 34.1906
49.125480076, 96.390, 1192.0, 34.5254
49.151740641, 96.390, 1185.0, 34.4238
49.178001207, 96.390, 1174.0, 34.2637
49.204261772, 96.390, 1044.0, 32.3110
49.230522337, 96.390, 1120.0, 33.4664
49.256782903, 96.390, 1065.0, 32.6343
49.283043468, 96.390, 1119.0, 33.4515
49.309304033, 96.390, 1000.0, 31.6228
49.335564599, 96.390, 1060.0, 32.5576
49.361825164, 96.390, 1057.0, 32.5115
49.388085729, 96.390, 1177.0, 34.3074
49.414346295, 96.390, 1112.0, 33.3467
49.440606860, 96.390, 1163.0, 34.1028
49.466867425, 96.390, 1121.0, 33.4813
49.493127991, 96.390, 1066.0, 32.6497
49.519388556, 96.390, 1122.0, 33.4963
49.545649121, 96.390, 1200.0, 34.6410
49.571909687, 96.390, 1092.0, 33.0454
49.598170252, 96.390, 1129.0, 33.6006
49.624430818, 96.390, 1138.0, 33.7343
49.650691383, 96.390, 1114.0, 33.3766
49.676951948, 96.390, 1150.0, 33.9116
49.703212514, 96.390, 1218.0, 34.8999
49.729473079, 96.390, 1125.0, 33.5410
49.755733644, 96.390, 1092.0, 33.0454
49.781994210, 96.390, 1140.0, 33.7639
49.808254775, 96.390, 1148.0, 33.8821
49.834515340, 96.390, 1095.0, 33.0908
49.860775906, 96.390, 1046.0, 32.3419
49.887036471, 96.390, 1096.0, 33.1059
49.913297036, 96.390, 1030.0, 32.0936
49.939557602, 96.390, 1025.0, 32.0156
49.965818167, 96.390, 1005.0, 31.7017
49.992078732, 96.390, 1005.0, 31.7017
50.018339298, 96.390, 1050.0, 32.4037
50.044599863, 96.390, 1045.0, 32.3265
50.070860429, 96.390, 1034.0, 32.1559
50.097120994, 96.390, 1030.0, 32.0936
50.123381559, 96.390, 1001.0, 31.6386
50.149642125, 96.390, 997.0, 31.5753
50.175902690, 96.390, 1074.0, 32.7719
50.202163255, 96.390, 1190.0, 34.4964
50.228423821, 96.390, 1194.0, 34.5543
50.254684386, 96.390, 1238.0, 35.1852
50.280944951, 96.390, 1287.0, 35.8748
50.307205517, 96.390, 1221.0, 34.9428
50.333466082, 96.390, 1204.0, 34.6987
50.359726647, 96.390, 1215.0, 34.8569
50.385987213, 96.390, 1230.0, 35.0714
50.412247778, 96.390, 1130.0, 33.6155
50.438508344, 96.390, 1161.0, 34.0735
50.464768909, 96.390, 1166.0, 34.1467
50.491029474, 96.390, 1126.0, 33.5559
50.517290040, 96.390, 1072.0, 32.7414
50.543550605, 96.390, 1108.0, 33.2866
50.569811170, 96.390, 1060.0, 32.5576
50.596071736, 96.390, 1066.0, 32.6497
50.622332301, 96.390, 1023.0, 31.9844
50.648592866, 96.390, 1073.0, 32.7567
50.674853432, 96.390, 1084.0, 32.9242
50.701113997, 96.390, 1014.0, 31.8434
50.727374562, 96.390, 1027.0, 32.0468
50.753635128, 96.390, 1052.0, 32.4345
50.779895693, 96.390, 1066.0, 32.6497
50.806156258, 96.390, 999.0, 31.6070
50.832416824, 96.390, 984.0, 31.3688
50.858677389, 96.390, 1005.0, 31.7017
50.884937955, 96.390, 1015.0, 31.8591
50.911198520, 96.390, 1027.0, 32.0468
50.937459085, 96.390, 1066.0, 32.6497
50.963719651, 96.390, 1018.0, 31.9061
50.989980216, 96.390, 1065.0, 32.6343
51.016240781, 96.390, 1188.0, 34.4674
51.042501347, 96.390, 1254.0, 35.4119
51.068761912, 96.390, 1204.0, 34.6987
51.095022477, 96.390, 1091.0, 33.0303
51.121283043, 96.390, 1136.0, 33.7046
51.147543608, 96.390, 1189.0, 34.4819
51.173804173, 96.390, 1184.0, 34.4093
51.200064739, 96.390, 1191.0, 34.5109
51.226325304, 96.390, 1121.0, 33.4813
51.252585870, 96.390, 1088.0, 32.9848
51.278846435, 96.390, 1106.0, 33.2566
51.305107000, 96.390, 1076.0, 32.8024
51.331367566, 96.390, 1016.0, 31.8748
51.357628131, 96.390, 1056.0, 32.4962
51.383888696, 96.390, 1073.0, 32.7567
51.410149262, 96.390, 1046.0, 32.3419
51.436409827, 96.390, 1037.0, 32.2025
51.462670392, 96.390, 986.0, 31.4006
51.488930958, 96.390, 1007.0, 31.7333
51.515191523, 96.390, 936.0, 30.5941
51.541452088, 96.390, 969.0, 31.1288
51.567712654, 96.390, 944.0, 30.7246
51.593973219, 96.390, 966.0, 31.0805
51.620233784, 96.390, 886.0, 29.7658
51.646494350, 96.390, 937.0, 30.6105
51.672754915, 96.390, 885.0, 29.7489
51.699015481, 96.390, 962.0, 31.0161
51.725276046, 96.390, 980.0, 31.3050
51.751536611, 96.390, 983.0, 31.3528
51.777797177, 96.390, 1057.0, 32.5115
51.804057742, 96.390, 978.0, 31.2730
51.830318307, 96.390, 984.0, 31.3688
51.856578873, 96.390, 988.0, 31.4325
51.882839438, 96.390, 1026.0, 32.0312
51.909100003, 96.390, 974.0, 31.2090
51.935360569, 96.390, 1009.0, 31.7648
51.961621134, 96.390, 968.0, 31.1127
51.987881699, 96.390, 986.0, 31.4006
52.014142265, 96.390, 1068.0, 32.6803
52.040402830, 96.390, 941.0, 30.6757
52.066663396, 96.390, 1063.0, 32.6037
52.092923961, 96.390, 980.0, 31.3050
52.119184526, 96.390, 1064.0, 32.6190
52.145445092, 96.390, 1011.0, 31.7962
52.171705657, 96.390, 1060.0, 32.5576
52.197966222, 96.390, 1124.0, 33.5261
52.224226788, 96.390, 1106.0, 33.2566
52.250487353, 96.390, 1136.0, 33.7046
52.276747918, 96.390, 1236.0, 35.1568
52.303008484, 96.390, 1203.0, 34.6843
52.329269049, 96.390, 1299.0, 36.0416
52.355529614, 96.390, 1313.0, 36.2353
52.381790180, 96.390, 1176.0, 34.2929
52.408050745, 96.390, 1118.0, 33.4365
52.434311310, 96.390, 1117.0, 33.4215
52.460571876, 96.390, 1147.0, 33.8674
52.486832441, 96.390, 1114.0, 33.3766
52.513093007, 96.390, 1062.0, 32.5883
52.539353572, 96.390, 997.0, 31.5753
52.565614137, 96.390, 994.0, 31.5278
52.591874703, 96.390, 952.0, 30.8545
52.618135268, 96.390, 917.0, 30.2820
52.644395833, 96.390, 928.0, 30.4631
52.670656399, 96.390, 923.0, 30.3809
52.696916964, 96.390, 1006.0, 31.7175
52.723177529, 96.390, 945.0, 30.7409
52.749438095, 96.390, 936.0, 30.5941
52.775698660, 96.390, 950.0, 30.8221
52.801959225, 96.390, 954.0, 30.8869
52.828219791, 96.390, 954.0, 30.8869
52.854480356, 96.390, 989.0, 31.4484
52.880740922, 96.390, 1013.0, 31.8277
52.907001487, 96.390, 1045.0, 32.3265
52.933262052, 96.390, 1062.0, 32.5883
52.959522618, 96.390, 989.0, 31.4484
52.985783183, 96.390, 973.0, 31.1929
53.012043748, 96.390, 928.0, 30.4631
53.038304314, 96.390, 938.0, 30.6268
53.064564879, 96.390, 1017.0, 31.8904
53.090825444, 96.390, 981.0, 31.3209
53.117086010, 96.390, 994.0, 31.5278
53.143346575, 96.390, 992.0, 31.4960
53.169607140, 96.390, 1025.0, 32.0156
53.195867706, 96.390, 1044.0, 32.3110
53.222128271, 96.390, 1019.0, 31.9218
53.248388836, 96.390, 954.0, 30.8869
53.274649402, 96.390, 1005.0, 31.7017
53.300909967, 96.390, 945.0, 30.7409
53.327170533, 96.390, 936.0, 30.5941
53.353431098, 96.390, 1009.0, 31.7648
53.379691663, 96.390, 1007.0, 31.7333
53.405952229, 96.390, 1010.0, 31.7805
53.432212794, 96.390, 872.0, 29.5296
53.458473359, 96.390, 948.0, 30.7896
53.484733925, 96.390, 931.0, 30.5123
53.510994490, 96.390, 909.0, 30.1496
53.537255055, 96.390, 915.0, 30.2490
53.563515621, 96.390, 939.0, 30.6431
53.589776186, 96.390, 931.0, 30.5123
53.616036751, 96.390, 845.0, 29.0689
53.642297317, 96.390, 913.0, 30.2159
53.668557882, 96.390, 927.0, 30.4467
53.694818448, 96.390, 889.0, 29.8161
53.721079013, 96.390, 864.0, 29.3939
53.747339578, 96.390, 856.0, 29.2575
53.773600144, 96.390, 902.0, 30.0333
53.799860709, 96.390, 885.0, 29.7489
53.826121274, 96.390, 893.0, 29.8831
53.852381840, 96.390, 987.0, 31.4166
53.878642405, 96.390, 1033.0, 32.1403
53.904902970, 96.390, 1072.0, 32.7414
53.931163536, 96.390, 1010.0, 31.7805
53.957424101, 96.390, 896.0, 29.9333
53.983684666, 96.390, 1039.0, 32.2335
54.009945232, 96.390, 992.0, 31.4960
54.036205797, 96.390, 1050.0, 32.4037
54.062466362, 96.390, 1017.0, 31.8904
54.088726928, 96.390, 1052.0, 32.4345
54.114987493, 96.390, 1070.0, 32.7109
54.141248059, 96.390, 1134.0, 33.6749
54.167508624, 96.390, 1109.0, 33.3017
54.193769189, 96.390, 1087.0, 32.9697
54.220029755, 96.390, 1034.0, 32.1559
54.246290320, 96.390, 1019.0, 31.9218
54.272550885, 96.390, 1105.0, 33.2415
54.298811451, 96.390, 1063.0, 32.6037
54.325072016, 96.390, 1053.0, 32.4500
54.351332581, 96.390, 984.0, 31.3688
54.377593147, 96.390, 1035.0, 32.1714
54.403853712, 96.390, 960.0, 30.9839
54.430114277, 96.390, 985.0, 31.3847
54.456374843, 96.390, 953.0, 30.8707
54.482635408, 96.390, 954.0, 30.8869
54.508895973, 96.390, 902.0, 30.0333
54.535156539, 96.390, 938.0, 30.6268
54.561417104, 96.390, 960.0, 30.9839
54.587677670, 96.390, 974.0, 31.2090
54.613938235, 96.390, 893.0, 29.8831
54.640198800, 96.390, 992.0, 31.4960
54.666459366, 96.390, 900.0, 30.0000
54.692719931, 96.390, 879.0, 29.6479
54.718980496, 96.390, 949.0, 30.8058
54.745241062, 96.390, 841.0, 29.0000
54.771501627, 96.390, 931.0, 30.5123
54.797762192, 96.390, 901.0, 30.0167
54.824022758, 96.390, 979.0, 31.2890
54.850283323, 96.390, 932.0, 30.5287
54.876543888, 96.390, 888.0, 29.7993
54.902804454, 96.390, 879.0, 29.6479
54.929065019, 96.390, 978.0, 31.2730
54.955325585, 96.390, 1080.0, 32.8634
54.981586150, 96.390, 1060.0, 32.5576
55.007846715, 96.390, 883.0, 29.7153
55.034107281, 96.390, 873.0, 29.5466
55.060367846, 96.390, 892.0, 29.8664
55.086628411, 96.390, 904.0, 30.0666
55.112888977, 96.390, 957.0, 30.9354
55.139149542, 96.390, 936.0, 30.5941
55.165410107, 96.390, 846.0, 29.0861
55.191670673, 96.390, 898.0, 29.9666
55.217931238, 96.390, 831.0, 28.8271
55.244191803, 96.390, 849.0, 29.1376
55.270452369, 96.390, 819.0, 28.6182
55.296712934, 96.390, 810.0, 28.4605
55.322973499, 96.390, 855.0, 29.2404
55.349234065, 96.390, 777.0, 27.8747
55.375494630, 96.390, 806.0, 28.3901
55.401755196, 96.390, 882.0, 29.6985
55.428015761, 96.390, 869.0, 29.4788
55.454276326, 96.390, 842.0, 29.0172
55.480536892, 96.390, 871.0, 29.5127
55.506797457, 96.390, 873.0, 29.5466
55.533058022, 96.390, 851.0, 29.1719
55.559318588, 96.390, 886.0, 29.7658
55.585579153, 96.390, 866.0, 29.4279
55.611839718, 96.390, 937.0, 30.6105
55.638100284, 96.390, 852.0, 29.1890
55.664360849, 96.390, 892.0, 29.8664
55.690621414, 96.390, 888.0, 29.7993
55.716881980, 96.390, 867.0, 29.4449
55.743142545, 96.390, 883.0, 29.7153
55.769403111, 96.390, 938.0, 30.6268
55.795663676, 96.390, 930.0, 30.4959
55.821924241, 96.390, 888.0, 29.7993
55.848184807, 96.390, 851.0, 29.1719
55.874445372, 96.390, 855.0, 29.2404
55.900705937, 96.390, 760.0, 27.5681
55.926966503, 96.390, 841.0, 29.0000
55.953227068, 96.390, 857.0, 29.2746
55.979487633, 96.390, 791.0, 28.1247
56.005748199, 96.390, 825.0, 28.7228
56.032008764, 96.390, 847.0, 29.1033
56.058269329, 96.390, 898.0, 29.9666
56.084529895, 96.390, 862.0, 29.3598
56.110790460, 96.390, 884.0, 29.7321
56.137051025, 96.390, 933.0, 30.5450
56.163311591, 96.390, 884.0, 29.7321
56.189572156, 96.390, 879.0, 29.6479
56.215832722, 96.390, 889.0, 29.8161
56.242093287, 96.390, 877.0, 29.6142
56.268353852, 96.390, 963.0, 31.0322
56.294614418, 96.390, 855.0, 29.2404
56.320874983, 96.390, 836.0, 28.9137
56.347135548, 96.390, 839.0, 28.9655
56.373396114, 96.390, 886.0, 29.7658
56.399656679, 96.390, 857.0, 29.2746
56.425917244, 96.390, 846.0, 29.0861
56.452177810, 96.390, 847.0, 29.1033
56.478438375, 96.390, 818.0, 28.6007
56.504698940, 96.390, 881.0, 29.6816
56.530959506, 96.390, 834.0, 28.8791
56.557220071, 96.390, 802.0, 28.3196
56.583480637, 96.390, 811.0, 28.4781
56.609741202, 96.390, 833.0, 28.8617
56.636001767, 96.390, 812.0, 28.4956
56.662262333, 96.390, 800.0, 28.2843
56.688522898, 96.390, 804.0, 28.3549
56.714783463, 96.390, 811.0, 28.4781
56.741044029, 96.390, 799.0, 28.2666
56.767304594, 96.390, 822.0, 28.6705
56.793565159, 96.390, 820.0, 28.6356
56.819825725, 96.390, 846.0, 29.0861
56.846086290, 96.390, 820.0, 28.6356
56.872346855, 96.390, 767.0, 27.6948
56.898607421, 96.390, 811.0, 28.4781
56.924867986, 96.390, 848.0, 29.1204
56.951128551, 96.390, 785.0, 28.0179
56.977389117, 96.390, 779.0, 27.9106
57.003649682, 96.390, 825.0, 28.7228
57.029910248, 96.390, 789.0, 28.0891
57.056170813, 96.390, 772.0, 27.7849
57.082431378, 96.390, 805.0, 28.3725
57.108691944, 96.390, 803.0, 28.3373
57.134952509, 96.390, 825.0, 28.7228
57.161213074, 96.390, 863.0, 29.3769
57.187473640, 96.390, 869.0, 29.4788
57.213734205, 96.390, 829.0, 28.7924
57.239994770, 96.390, 854.0, 29.2233
57.266255336, 96.390, 814.0, 28.5307
57.292515901, 96.390, 830.0, 28.8097
57.318776466, 96.390, 843.0, 29.0345
57.345037032, 96.390, 815.0, 28.5482
57.371297597, 96.390, 865.0, 29.4109
57.397558163, 96.390, 821.0, 28.6531
57.423818728, 96.390, 835.0, 28.8964
57.450079293, 96.390, 843.0, 29.0345
57.476339859, 96.390, 839.0, 28.9655
57.502600424, 96.390, 872.0, 29.5296
57.528860989, 96.390, 903.0, 30.0500
57.555121555, 96.390, 821.0, 28.6531
57.581382120, 96.390, 808.0, 28.4253
57.607642685, 96.390, 818.0, 28.6007
57.633903251, 96.390, 841.0, 29.0000
57.660163816, 96.390, 858.0, 29.2916
57.686424381, 96.390, 933.0, 30.5450
57.712684947, 96.390, 859.0, 29.3087
57.738945512, 96.390, 901.0, 30.0167
57.765206077, 96.390, 847.0, 29.1033
57.791466643, 96.390, 836.0, 28.9137
57.817727208, 96.390, 809.0, 28.4429
57.843987774, 96.390, 818.0, 28.6007
57.870248339, 96.390, 858.0, 29.2916
57.896508904, 96.390, 817.0, 28.5832
57.922769470, 96.390, 876.0, 29.5973
57.949030035, 96.390, 864.0, 29.3939
57.975290600, 96.390, 884.0, 29.7321
58.001551166, 96.390, 928.0, 30.4631
58.027811731, 96.390, 966.0, 31.0805
58.054072296, 96.390, 1020.0, 31.9374
58.080332862, 96.390, 1009.0, 31.7648
58.106593427, 96.390, 943.0, 30.7083
58.132853992, 96.390, 938.0, 30.6268
58.159114558, 96.390, 889.0, 29.8161
58.185375123, 96.390, 926.0, 30.4302
58.211635689, 96.390, 903.0, 30.0500
58.237896254, 96.390, 866.0, 29.4279
58.264156819, 96.390, 838.0, 28.9482
58.290417385, 96.390, 880.0, 29.6648
58.316677950, 96.390, 855.0, 29.2404
58.342938515, 96.390, 798.0, 28.2489
58.369199081, 96.390, 794.0, 28.1780
58.395459646, 96.390, 759.0, 27.5500
58.421720211, 96.390, 791.0, 28.1247
58.447980777, 96.390, 792.0, 28.1425
58.474241342, 96.390, 817.0, 28.5832
58.500501907, 96.390, 777.0, 27.8747
58.526762473, 96.390, 788.0, 28.0713
58.553023038, 96.390, 789.0, 28.0891
58.579283603, 96.390, 854.0, 29.2233
58.605544169, 96.390, 776.0, 27.8568
58.631804734, 96.390, 808.0, 28.4253
58.658065300, 96.390, 871.0, 29.5127
58.684325865, 96.390, 825.0, 28.7228
58.710586430, 96.390, 773.0, 27.8029
58.736846996, 96.390, 751.0, 27.4044
58.763107561, 96.390, 814.0, 28.5307
58.789368126, 96.390, 825.0, 28.7228
58.815628692, 96.390, 751.0, 27.4044
58.841889257, 96.390, 811.0, 28.4781
58.868149822, 96.390, 841.0, 29.0000
58.894410388, 96.390, 734.0, 27.0924
58.920670953, 96.390, 750.0, 27.3861
58.946931518, 96.390, 791.0, 28.1247
58.973192084, 96.390, 778.0, 27.8927
58.999452649, 96.390, 774.0, 27.8209
59.025713214, 96.390, 752.0, 27.4226
59.051973780, 96.390, 875.0, 29.5804
59.078234345, 96.390, 782.0, 27.9643
59.104494911, 96.390, 748.0, 27.3496
59.130755476, 96.390, 794.0, 28.1780
59.157016041, 96.390, 810.0, 28.4605
59.183276607, 96.390, 787.0, 28.0535
59.209537172, 96.390, 815.0, 28.5482
59.235797737, 96.390, 890.0, 29.8329
59.262058303, 96.390, 870.0, 29.4958
59.288318868, 96.390, 879.0, 29.6479
59.314579433, 96.390, 882.0, 29.6985
59.340839999, 96.390, 889.0, 29.8161
59.367100564, 96.390, 924.0, 30.3974
59.393361129, 96.390, 892.0, 29.8664
59.419621695, 96.390, 837.0, 28.9310
59.445882260, 96.390, 878.0, 29.6311
59.472142826, 96.390, 874.0, 29.5635
59.498403391, 96.390, 878.0, 29.6311
59.524663956, 96.390, 843.0, 29.0345
59.550924522, 96.390, 862.0, 29.3598
59.577185087, 96.390, 855.0, 29.2404
59.603445652, 96.390, 865.0, 29.4109
59.629706218, 96.390, 893.0, 29.8831
59.655966783, 96.390, 866.0, 29.4279
59.682227348, 96.390, 870.0, 29.4958
59.708487914, 96.390, 842.0, 29.0172
59.734748479, 96.390, 860.0, 29.3258
59.761009044, 96.390, 884.0, 29.7321
59.787269610, 96.390, 905.0, 30.0832
59.813530175, 96.390, 921.0, 30.3480
59.839790740, 96.390, 910.0, 30.1662
59.866051306, 96.390, 855.0, 29.2404
59.892311871, 96.390, 860.0, 29.3258
59.918572437, 96.390, 922.0, 30.3645
59.944833002, 96.390, 918.0, 30.2985
59.971093567, 96.390, 898.0, 29.9666
59.997354133, 96.390, 979.0, 31.2890
60.023614698, 96.390, 980.0, 31.3050
60.049875263, 96.390, 919.0, 30.3150
60.076135829, 96.390, 913.0, 30.2159
60.102396394, 96.390, 926.0, 30.4302
60.128656959, 96.390, 942.0, 30.6920
60.154917525, 96.390, 930.0, 30.4959
60.181178090, 96.390, 988.0, 31.4325
60.207438655, 96.390, 934.0, 30.5614
60.233699221, 96.390, 991.0, 31.4802
60.259959786, 96.390, 948.0, 30.7896
60.286220352, 96.390, 973.0, 31.1929
60.312480917, 96.390, 945.0, 30.7409
60.338741482, 96.390, 964.0, 31.0483
60.365002048, 96.390, 987.0, 31.4166
60.391262613, 96.390, 999.0, 31.6070
60.417523178, 96.390, 1007.0, 31.7333
60.443783744, 96.390, 1063.0, 32.6037
60.470044309, 96.390, 1076.0, 32.8024
60.496304874, 96.390, 1014.0, 31.8434
60.522565440, 96.390, 988.0, 31.4325
60.548826005, 96.390, 1033.0, 32.1403
60.575086570, 96.390, 1008.0, 31.7490
60.601347136, 96.390, 1024.0, 32.0000
60.627607701, 96.390, 1049.0, 32.3883
60.653868266, 96.390, 1064.0, 32.6190
60.680128832, 96.390, 1139.0, 33.7491
60.706389397, 96.390, 1139.0, 33.7491
60.732649963, 96.390, 1109.0, 33.3017
60.758910528, 96.390, 1145.0, 33.8378
60.785171093, 96.390, 1092.0, 33.0454
60.811431659, 96.390, 1155.0, 33.9853
60.837692224, 96.390, 1153.0, 33.9559
60.863952789, 96.390, 1127.0, 33.5708
60.890213355, 96.390, 1125.0, 33.5410
60.916473920, 96.390, 1211.0, 34.7994
60.942734485, 96.390, 1125.0, 33.5410
60.968995051, 96.390, 1140.0, 33.7639
60.995255616, 96.390, 1227.0, 35.0286
61.021516181, 96.390, 1216.0, 34.8712
61.047776747, 96.390, 1129.0, 33.6006
61.074037312, 96.390, 1193.0, 34.5398
61.100297878, 96.390, 1136.0, 33.7046
61.126558443, 96.390, 1212.0, 34.8138
61.152819008, 96.390, 1273.0, 35.6791
61.179079574, 96.390, 1287.0, 35.8748
61.205340139, 96.390, 1335.0, 36.5377
61.231600704, 96.390, 1221.0, 34.9428
61.257861270, 96.390, 1235.0, 35.1426
61.284121835, 96.390, 1245.0, 35.2846
61.310382400, 96.390, 1263.0, 35.5387
61.336642966, 96.390, 1302.0, 36.0832
61.362903531, 96.390, 1262.0, 35.5246
61.389164096, 96.390, 1223.0, 34.9714
61.415424662, 96.390, 1166.0, 34.1467
61.441685227, 96.390, 1286.0, 35.8608
61.467945792, 96.390, 1261.0, 35.5106
61.494206358, 96.390, 1296.0, 36.0000
61.520466923, 96.390, 1258.0, 35.4683
61.546727489, 96.390, 1218.0, 34.8999
61.572988054, 96.390, 1246.0, 35.2987
61.599248619, 96.390, 1226.0, 35.0143
61.625509185, 96.390, 1175.0, 34.2783
61.651769750, 96.390, 1185.0, 34.4238
61.678030315, 96.390, 1171.0, 34.2199
61.704290881, 96.390, 1184.0, 34.4093
61.730551446, 96.390, 1102.0, 33.1964
61.756812011, 96.390, 1202.0, 34.6699
61.783072577, 96.390, 1136.0, 33.7046
61.809333142, 96.390, 1208.0, 34.7563
61.835593707, 96.390, 1135.0, 33.6898
61.861854273, 96.390, 1137.0, 33.7194
61.888114838, 96.390, 1095.0, 33.0908
61.914375404, 96.390, 1090.0, 33.0151
61.940635969, 96.390, 1154.0, 33.9706
61.966896534, 96.390, 1080.0, 32.8634
61.993157100, 96.390, 1102.0, 33.1964
62.019417665, 96.390, 1045.0, 32.3265
62.045678230, 96.390, 1076.0, 32.8024
62.071938796, 96.390, 1046.0, 32.3419
62.098199361, 96.390, 1073.0, 32.7567
62.124459926, 96.390, 1105.0, 33.2415
62.150720492, 96.390, 1137.0, 33.7194
62.176981057, 96.390, 1107.0, 33.2716
62.203241622, 96.390, 1132.0, 33.6452
62.229502188, 96.390, 1096.0, 33.1059
62.255762753, 96.390, 1146.0, 33.8526
62.282023318, 96.390, 1076.0, 32.8024
62.308283884, 96.390, 1045.0, 32.3265
62.334544449, 96.390, 1061.0, 32.5730
62.360805015, 96.390, 1063.0, 32.6037
62.387065580, 96.390, 1049.0, 32.3883
62.413326145, 96.390, 1016.0, 31.8748
62.439586711, 96.390, 1033.0, 32.1403
62.465847276, 96.390, 998.0, 31.5911
62.492107841, 96.390, 1028.0, 32.0624
62.518368407, 96.390, 990.0, 31.4643
62.544628972, 96.390, 951.0, 30.8383
62.570889537, 96.390, 1024.0, 32.0000
62.597150103, 96.390, 974.0, 31.2090
62.623410668, 96.390, 1036.0, 32.1870
62.649671233, 96.390, 994.0, 31.5278
62.675931799, 96.390, 1043.0, 32.2955
62.702192364, 96.390, 1018.0, 31.9061
62.728452930, 96.390, 966.0, 31.0805
62.754713495, 96.390, 980.0, 31.3050
62.780974060, 96.390, 1037.0, 32.2025
62.807234626, 96.390, 993.0, 31.5119
62.833495191, 96.390, 926.0, 30.4302
62.859755756, 96.390, 938.0, 30.6268
62.886016322, 96.390, 970.0, 31.1448
62.912276887, 96.390, 931.0, 30.5123
62.938537452, 96.390, 880.0, 29.6648
62.964798018, 96.390, 878.0, 29.6311
62.991058583, 96.390, 850.0, 29.1548
63.017319148, 96.390, 847.0, 29.1033
63.043579714, 96.390, 849.0, 29.1376
63.069840279, 96.390, 801.0, 28.3019
63.096100844, 96.390, 865.0, 29.4109
63.122361410, 96.390, 767.0, 27.6948
63.148621975, 96.390, 816.0, 28.5657
63.174882541, 96.390, 831.0, 28.8271
63.201143106, 96.390, 832.0, 28.8444
63.227403671, 96.390, 811.0, 28.4781
63.253664237, 96.390, 814.0, 28.5307
63.279924802, 96.390, 832.0, 28.8444
63.306185367, 96.390, 819.0, 28.6182
63.332445933, 96.390, 789.0, 28.0891
63.358706498, 96.390, 840.0, 28.9828
63.384967063, 96.390, 782.0, 27.9643
63.411227629, 96.390, 816.0, 28.5657
63.437488194, 96.390, 823.0, 28.6880
63.463748759, 96.390, 813.0, 28.5132
63.490009325, 96.390, 785.0, 28.0179
63.516269890, 96.390, 790.0, 28.1069
63.542530455, 96.390, 793.0, 28.1603
63.568791021, 96.390, 805.0, 28.3725
63.595051586, 96.390, 811.0, 28.4781
63.621312152, 96.390, 774.0, 27.8209
63.647572717, 96.390, 743.0, 27.2580
63.673833282, 96.390, 777.0, 27.8747
63.700093848, 96.390, 801.0, 28.3019
63.726354413, 96.390, 816.0, 28.5657
63.752614978, 96.390, 856.0, 29.2575
63.778875544, 96.390, 819.0, 28.6182
63.805136109, 96.390, 882.0, 29.6985
63.831396674, 96.390, 803.0, 28.3373
63.857657240, 96.390, 822.0, 28.6705
63.883917805, 96.390, 806.0, 28.3901
63.910178370, 96.390, 835.0, 28.8964
63.936438936, 96.390, 824.0, 28.7054
63.962699501, 96.390, 813.0, 28.5132
63.988960067, 96.390, 779.0, 27.9106
64.015220632, 96.390, 842.0, 29.0172
64.041481197, 96.390, 807.0, 28.4077
64.067741763, 96.390, 797.0, 28.2312
64.094002328, 96.390, 806.0, 28.3901
64.120262893, 96.390, 837.0, 28.9310
64.146523459, 96.390, 782.0, 27.9643
64.172784024, 96.390, 757.0, 27.5136
64.199044589, 96.390, 793.0, 28.1603
64.225305155, 96.390, 809.0, 28.4429
64.251565720, 96.390, 778.0, 27.8927
64.277826285, 96.390, 792.0, 28.1425
64.304086851, 96.390, 797.0, 28.2312
64.330347416, 96.390, 734.0, 27.0924
64.356607981, 96.390, 751.0, 27.4044
64.382868547, 96.390, 718.0, 26.7955
64.409129112, 96.390, 731.0, 27.0370
64.435389678, 96.390, 751.0, 27.4044
64.461650243, 96.390, 852.0, 29.1890
64.487910808, 96.390, 738.0, 27.1662
64.514171374, 96.390, 797.0, 28.2312
64.540431939, 96.390, 746.0, 27.3130
64.566692504, 96.390, 736.0, 27.1293
64.592953070, 96.390, 716.0, 26.7582
64.619213635, 96.390, 742.0, 27.2397
64.645474200, 96.390, 766.0, 27.6767
64.671734766, 96.390, 736.0, 27.1293
64.697995331, 96.390, 751.0, 27.4044
64.724255896, 96.390, 741.0, 27.2213
64.750516462, 96.390, 708.0, 26.6083
64.776777027, 96.390, 739.0, 27.1846
64.803037593, 96.390, 762.0, 27.6043
64.829298158, 96.390, 704.0, 26.5330
64.855558723, 96.390, 746.0, 27.3130
64.881819289, 96.390, 708.0, 26.6083
64.908079854, 96.390, 737.0, 27.1477
64.934340419, 96.390, 707.0, 26.5895
64.960600985, 96.390, 699.0, 26.4386
64.986861550, 96.390, 724.0, 26.9072
