[Measurement conditions]
Sample identification,XRD_Centroid08Dec21_Act08Mar22_B2_0714M_NaOH_LS0163_1
Comment - 1,"Configuration=Stage for Flat Samples/Holders, Owner=User-1, Creation date=7/1/2020 9:53:24 AM"
Comment - 2,"Goniometer=Theta/Theta; Minimum step size 2Theta:0.0001; Minimum step size Omega:0.0001"
Comment - 3,"Sample stage=Stage for flat samples/holders"
Comment - 4,"Diffractometer system=EMPYREAN"
Comment - 5,"Measurement program=C:\Users\ibo5034\OneDrive - The Pennsylvania State University\NEUP\Zerobackground scan.xrdmp, Identifier={98A3B11C-88F9-4AA6-982C-73314A311EF5}"
Anode material,Cu
K-Alpha1 wavelength,1.5405980
K-Alpha2 wavelength,1.5444260
Ratio K-Alpha2/K-Alpha1,0.500
Divergence slit,Fixed,0.25
Monochromator used,NO
Generator voltage, 45
Tube current, 40
File date and time,24/Mar/2022 17:20
Unit cell,
h k l, 0 0 0
Scan axis,Gonio
Scan range,4.994599997,64.999991833
Scan step size,0.0262606
No. of points, 2285
Scan type,CONTINUOUS
Time per step,96.390
[Scan points]
Angle, TimePerStep, Intensity, ESD
5.007730280, 96.390, 4335.0, 65.8407
5.033990845, 96.390, 4412.0, 66.4229
5.060251411, 96.390, 4274.0, 65.3758
5.086511976, 96.390, 4334.0, 65.8331
5.112772541, 96.390, 4292.0, 65.5134
5.139033107, 96.390, 4264.0, 65.2993
5.165293672, 96.390, 4349.0, 65.9469
5.191554237, 96.390, 4393.0, 66.2797
5.217814803, 96.390, 4279.0, 65.4141
5.244075368, 96.390, 4188.0, 64.7148
5.270335934, 96.390, 4201.0, 64.8151
5.296596499, 96.390, 4172.0, 64.5910
5.322857064, 96.390, 4141.0, 64.3506
5.349117630, 96.390, 4168.0, 64.5600
5.375378195, 96.390, 4168.0, 64.5600
5.401638760, 96.390, 4003.0, 63.2693
5.427899326, 96.390, 4050.0, 63.6396
5.454159891, 96.390, 4060.0, 63.7181
5.480420456, 96.390, 4019.0, 63.3956
5.506681022, 96.390, 3991.0, 63.1744
5.532941587, 96.390, 4050.0, 63.6396
5.559202152, 96.390, 4214.0, 64.9153
5.585462718, 96.390, 4019.0, 63.3956
5.611723283, 96.390, 4021.0, 63.4114
5.637983849, 96.390, 4075.0, 63.8357
5.664244414, 96.390, 4105.0, 64.0703
5.690504979, 96.390, 3988.0, 63.1506
5.716765545, 96.390, 4092.0, 63.9687
5.743026110, 96.390, 3985.0, 63.1269
5.769286675, 96.390, 3938.0, 62.7535
5.795547241, 96.390, 3960.0, 62.9285
5.821807806, 96.390, 3913.0, 62.5540
5.848068371, 96.390, 3973.0, 63.0317
5.874328937, 96.390, 4063.0, 63.7417
5.900589502, 96.390, 3913.0, 62.5540
5.926850067, 96.390, 4091.0, 63.9609
5.953110633, 96.390, 4108.0, 64.0937
5.979371198, 96.390, 3824.0, 61.8385
6.005631763, 96.390, 3900.0, 62.4500
6.031892329, 96.390, 3871.0, 62.2174
6.058152894, 96.390, 3896.0, 62.4179
6.084413460, 96.390, 3927.0, 62.6658
6.110674025, 96.390, 3959.0, 62.9206
6.136934590, 96.390, 3768.0, 61.3840
6.163195156, 96.390, 3863.0, 62.1530
6.189455721, 96.390, 3884.0, 62.3217
6.215716286, 96.390, 3866.0, 62.1772
6.241976852, 96.390, 3989.0, 63.1585
6.268237417, 96.390, 3776.0, 61.4492
6.294497982, 96.390, 3807.0, 61.7009
6.320758548, 96.390, 3847.0, 62.0242
6.347019113, 96.390, 3868.0, 62.1932
6.373279678, 96.390, 3872.0, 62.2254
6.399540244, 96.390, 3877.0, 62.2656
6.425800809, 96.390, 3840.0, 61.9677
6.452061375, 96.390, 3854.0, 62.0806
6.478321940, 96.390, 3999.0, 63.2376
6.504582505, 96.390, 3880.0, 62.2896
6.530843071, 96.390, 3896.0, 62.4179
6.557103636, 96.390, 3705.0, 60.8687
6.583364201, 96.390, 3802.0, 61.6604
6.609624767, 96.390, 3817.0, 61.7819
6.635885332, 96.390, 3851.0, 62.0564
6.662145897, 96.390, 3880.0, 62.2896
6.688406463, 96.390, 3784.0, 61.5142
6.714667028, 96.390, 3807.0, 61.7009
6.740927593, 96.390, 3904.0, 62.4820
6.767188159, 96.390, 3750.0, 61.2372
6.793448724, 96.390, 3711.0, 60.9180
6.819709289, 96.390, 3821.0, 61.8142
6.845969855, 96.390, 3901.0, 62.4580
6.872230420, 96.390, 3736.0, 61.1228
6.898490986, 96.390, 3668.0, 60.5640
6.924751551, 96.390, 3943.0, 62.7933
6.951012116, 96.390, 3790.0, 61.5630
6.977272682, 96.390, 3816.0, 61.7738
7.003533247, 96.390, 3782.0, 61.4980
7.029793812, 96.390, 3854.0, 62.0806
7.056054378, 96.390, 3838.0, 61.9516
7.082314943, 96.390, 3784.0, 61.5142
7.108575508, 96.390, 3726.0, 61.0410
7.134836074, 96.390, 3618.0, 60.1498
7.161096639, 96.390, 3800.0, 61.6441
7.187357204, 96.390, 3763.0, 61.3433
7.213617770, 96.390, 3812.0, 61.7414
7.239878335, 96.390, 3871.0, 62.2174
7.266138900, 96.390, 3730.0, 61.0737
7.292399466, 96.390, 3705.0, 60.8687
7.318660031, 96.390, 3762.0, 61.3351
7.344920597, 96.390, 3795.0, 61.6036
7.371181162, 96.390, 3882.0, 62.3057
7.397441727, 96.390, 3767.0, 61.3759
7.423702293, 96.390, 3763.0, 61.3433
7.449962858, 96.390, 3820.0, 61.8061
7.476223423, 96.390, 3609.0, 60.0750
7.502483989, 96.390, 3739.0, 61.1474
7.528744554, 96.390, 3745.0, 61.1964
7.555005119, 96.390, 3655.0, 60.4566
7.581265685, 96.390, 3552.0, 59.5987
7.607526250, 96.390, 3670.0, 60.5805
7.633786815, 96.390, 3693.0, 60.7701
7.660047381, 96.390, 3629.0, 60.2412
7.686307946, 96.390, 3713.0, 60.9344
7.712568512, 96.390, 3615.0, 60.1249
7.738829077, 96.390, 3654.0, 60.4483
7.765089642, 96.390, 3715.0, 60.9508
7.791350208, 96.390, 3652.0, 60.4318
7.817610773, 96.390, 3730.0, 61.0737
7.843871338, 96.390, 3686.0, 60.7124
7.870131904, 96.390, 3675.0, 60.6218
7.896392469, 96.390, 3617.0, 60.1415
7.922653034, 96.390, 3736.0, 61.1228
7.948913600, 96.390, 3548.0, 59.5651
7.975174165, 96.390, 3732.0, 61.0901
8.001434730, 96.390, 3678.0, 60.6465
8.027695296, 96.390, 3641.0, 60.3407
8.053955861, 96.390, 3601.0, 60.0083
8.080216426, 96.390, 3590.0, 59.9166
8.106476992, 96.390, 3531.0, 59.4222
8.132737557, 96.390, 3578.0, 59.8164
8.158998123, 96.390, 3531.0, 59.4222
8.185258688, 96.390, 3673.0, 60.6053
8.211519253, 96.390, 3474.0, 58.9406
8.237779819, 96.390, 3594.0, 59.9500
8.264040384, 96.390, 3629.0, 60.2412
8.290300949, 96.390, 3680.0, 60.6630
8.316561515, 96.390, 3589.0, 59.9083
8.342822080, 96.390, 3546.0, 59.5483
8.369082645, 96.390, 3601.0, 60.0083
8.395343211, 96.390, 3650.0, 60.4152
8.421603776, 96.390, 3515.0, 59.2874
8.447864341, 96.390, 3564.0, 59.6992
8.474124907, 96.390, 3701.0, 60.8358
8.500385472, 96.390, 3629.0, 60.2412
8.526646038, 96.390, 3563.0, 59.6909
8.552906603, 96.390, 3478.0, 58.9746
8.579167168, 96.390, 3517.0, 59.3043
8.605427734, 96.390, 3582.0, 59.8498
8.631688299, 96.390, 3531.0, 59.4222
8.657948864, 96.390, 3521.0, 59.3380
8.684209430, 96.390, 3548.0, 59.5651
8.710469995, 96.390, 3583.0, 59.8582
8.736730560, 96.390, 3520.0, 59.3296
8.762991126, 96.390, 3647.0, 60.3904
8.789251691, 96.390, 3535.0, 59.4559
8.815512256, 96.390, 3641.0, 60.3407
8.841772822, 96.390, 3524.0, 59.3633
8.868033387, 96.390, 3482.0, 59.0085
8.894293952, 96.390, 3708.0, 60.8933
8.920554518, 96.390, 3444.0, 58.6856
8.946815083, 96.390, 3366.0, 58.0172
8.973075649, 96.390, 3444.0, 58.6856
8.999336214, 96.390, 3455.0, 58.7792
9.025596779, 96.390, 3480.0, 58.9915
9.051857345, 96.390, 3463.0, 58.8473
9.078117910, 96.390, 3482.0, 59.0085
9.104378475, 96.390, 3512.0, 59.2621
9.130639041, 96.390, 3535.0, 59.4559
9.156899606, 96.390, 3537.0, 59.4727
9.183160171, 96.390, 3418.0, 58.4637
9.209420737, 96.390, 3445.0, 58.6941
9.235681302, 96.390, 3346.0, 57.8446
9.261941867, 96.390, 3414.0, 58.4294
9.288202433, 96.390, 3327.0, 57.6802
9.314462998, 96.390, 3456.0, 58.7878
9.340723564, 96.390, 3425.0, 58.5235
9.366984129, 96.390, 3513.0, 59.2706
9.393244694, 96.390, 3482.0, 59.0085
9.419505260, 96.390, 3430.0, 58.5662
9.445765825, 96.390, 3477.0, 58.9661
9.472026390, 96.390, 3481.0, 59.0000
9.498286956, 96.390, 3411.0, 58.4038
9.524547521, 96.390, 3479.0, 58.9830
9.550808086, 96.390, 3328.0, 57.6888
9.577068652, 96.390, 3376.0, 58.1034
9.603329217, 96.390, 3487.0, 59.0508
9.629589782, 96.390, 3296.0, 57.4108
9.655850348, 96.390, 3368.0, 58.0345
9.682110913, 96.390, 3324.0, 57.6541
9.708371478, 96.390, 3429.0, 58.5577
9.734632044, 96.390, 3309.0, 57.5239
9.760892609, 96.390, 3455.0, 58.7792
9.787153175, 96.390, 3385.0, 58.1808
9.813413740, 96.390, 3465.0, 58.8643
9.839674305, 96.390, 3356.0, 57.9310
9.865934871, 96.390, 3329.0, 57.6975
9.892195436, 96.390, 3407.0, 58.3695
9.918456001, 96.390, 3471.0, 58.9152
9.944716567, 96.390, 3343.0, 57.8187
9.970977132, 96.390, 3442.0, 58.6686
9.997237697, 96.390, 3445.0, 58.6941
10.023498263, 96.390, 3284.0, 57.3062
10.049758828, 96.390, 3323.0, 57.6455
10.076019393, 96.390, 3252.0, 57.0263
10.102279959, 96.390, 3352.0, 57.8965
10.128540524, 96.390, 3317.0, 57.5934
10.154801090, 96.390, 3262.0, 57.1139
10.181061655, 96.390, 3399.0, 58.3009
10.207322220, 96.390, 3244.0, 56.9561
10.233582786, 96.390, 3338.0, 57.7754
10.259843351, 96.390, 3335.0, 57.7495
10.286103916, 96.390, 3334.0, 57.7408
10.312364482, 96.390, 3394.0, 58.2580
10.338625047, 96.390, 3225.0, 56.7891
10.364885612, 96.390, 3222.0, 56.7627
10.391146178, 96.390, 3322.0, 57.6368
10.417406743, 96.390, 3276.0, 57.2364
10.443667308, 96.390, 3334.0, 57.7408
10.469927874, 96.390, 3256.0, 57.0614
10.496188439, 96.390, 3288.0, 57.3411
10.522449004, 96.390, 3232.0, 56.8507
10.548709570, 96.390, 3323.0, 57.6455
10.574970135, 96.390, 3256.0, 57.0614
10.601230701, 96.390, 3292.0, 57.3760
10.627491266, 96.390, 3267.0, 57.1577
10.653751831, 96.390, 3259.0, 57.0877
10.680012397, 96.390, 3237.0, 56.8946
10.706272962, 96.390, 3263.0, 57.1227
10.732533527, 96.390, 3245.0, 56.9649
10.758794093, 96.390, 3244.0, 56.9561
10.785054658, 96.390, 3363.0, 57.9914
10.811315223, 96.390, 3290.0, 57.3585
10.837575789, 96.390, 3280.0, 57.2713
10.863836354, 96.390, 3334.0, 57.7408
10.890096919, 96.390, 3114.0, 55.8032
10.916357485, 96.390, 3203.0, 56.5951
10.942618050, 96.390, 3375.0, 58.0948
10.968878616, 96.390, 3261.0, 57.1052
10.995139181, 96.390, 3240.0, 56.9210
11.021399746, 96.390, 3246.0, 56.9737
11.047660312, 96.390, 3203.0, 56.5951
11.073920877, 96.390, 3235.0, 56.8771
11.100181442, 96.390, 3213.0, 56.6833
11.126442008, 96.390, 3136.0, 56.0000
11.152702573, 96.390, 3123.0, 55.8838
11.178963138, 96.390, 3128.0, 55.9285
11.205223704, 96.390, 3088.0, 55.5698
11.231484269, 96.390, 3021.0, 54.9636
11.257744834, 96.390, 3084.0, 55.5338
11.284005400, 96.390, 3257.0, 57.0701
11.310265965, 96.390, 3092.0, 55.6058
11.336526530, 96.390, 3064.0, 55.3534
11.362787096, 96.390, 3229.0, 56.8243
11.389047661, 96.390, 3073.0, 55.4346
11.415308227, 96.390, 3129.0, 55.9375
11.441568792, 96.390, 3049.0, 55.2178
11.467829357, 96.390, 3125.0, 55.9017
11.494089923, 96.390, 3068.0, 55.3895
11.520350488, 96.390, 3057.0, 55.2901
11.546611053, 96.390, 2997.0, 54.7449
11.572871619, 96.390, 2941.0, 54.2310
11.599132184, 96.390, 3049.0, 55.2178
11.625392749, 96.390, 3047.0, 55.1996
11.651653315, 96.390, 3108.0, 55.7494
11.677913880, 96.390, 3098.0, 55.6597
11.704174445, 96.390, 2984.0, 54.6260
11.730435011, 96.390, 3035.0, 55.0908
11.756695576, 96.390, 3004.0, 54.8088
11.782956141, 96.390, 3082.0, 55.5158
11.809216707, 96.390, 2942.0, 54.2402
11.835477272, 96.390, 2866.0, 53.5350
11.861737838, 96.390, 2998.0, 54.7540
11.887998403, 96.390, 2981.0, 54.5985
11.914258968, 96.390, 2876.0, 53.6284
11.940519534, 96.390, 2832.0, 53.2165
11.966780099, 96.390, 2941.0, 54.2310
11.993040664, 96.390, 2828.0, 53.1789
12.019301230, 96.390, 2838.0, 53.2729
12.045561795, 96.390, 2893.0, 53.7866
12.071822360, 96.390, 2921.0, 54.0463
12.098082926, 96.390, 2784.0, 52.7636
12.124343491, 96.390, 2784.0, 52.7636
12.150604056, 96.390, 2774.0, 52.6688
12.176864622, 96.390, 2832.0, 53.2165
12.203125187, 96.390, 2891.0, 53.7680
12.229385753, 96.390, 2759.0, 52.5262
12.255646318, 96.390, 2738.0, 52.3259
12.281906883, 96.390, 2887.0, 53.7308
12.308167449, 96.390, 2911.0, 53.9537
12.334428014, 96.390, 2764.0, 52.5738
12.360688579, 96.390, 2710.0, 52.0577
12.386949145, 96.390, 2806.0, 52.9717
12.413209710, 96.390, 2788.0, 52.8015
12.439470275, 96.390, 2792.0, 52.8394
12.465730841, 96.390, 2705.0, 52.0096
12.491991406, 96.390, 2710.0, 52.0577
12.518251971, 96.390, 2735.0, 52.2972
12.544512537, 96.390, 2809.0, 53.0000
12.570773102, 96.390, 2761.0, 52.5452
12.597033667, 96.390, 2787.0, 52.7920
12.623294233, 96.390, 2733.0, 52.2781
12.649554798, 96.390, 2781.0, 52.7352
12.675815364, 96.390, 2819.0, 53.0943
12.702075929, 96.390, 2778.0, 52.7067
12.728336494, 96.390, 2707.0, 52.0288
12.754597060, 96.390, 2683.0, 51.7977
12.780857625, 96.390, 2772.0, 52.6498
12.807118190, 96.390, 2681.0, 51.7784
12.833378756, 96.390, 2583.0, 50.8232
12.859639321, 96.390, 2611.0, 51.0979
12.885899886, 96.390, 2657.0, 51.5461
12.912160452, 96.390, 2691.0, 51.8748
12.938421017, 96.390, 2669.0, 51.6624
12.964681582, 96.390, 2704.0, 52.0000
12.990942148, 96.390, 2591.0, 50.9019
13.017202713, 96.390, 2617.0, 51.1566
13.043463279, 96.390, 2658.0, 51.5558
13.069723844, 96.390, 2614.0, 51.1273
13.095984409, 96.390, 2691.0, 51.8748
13.122244975, 96.390, 2602.0, 51.0098
13.148505540, 96.390, 2581.0, 50.8035
13.174766105, 96.390, 2595.0, 50.9411
13.201026671, 96.390, 2564.0, 50.6360
13.227287236, 96.390, 2548.0, 50.4777
13.253547801, 96.390, 2589.0, 50.8822
13.279808367, 96.390, 2606.0, 51.0490
13.306068932, 96.390, 2632.0, 51.3030
13.332329497, 96.390, 2640.0, 51.3809
13.358590063, 96.390, 2657.0, 51.5461
13.384850628, 96.390, 2716.0, 52.1153
13.411111193, 96.390, 2742.0, 52.3641
13.437371759, 96.390, 2913.0, 53.9722
13.463632324, 96.390, 2883.0, 53.6936
13.489892890, 96.390, 3166.0, 56.2672
13.516153455, 96.390, 3208.0, 56.6392
13.542414020, 96.390, 2929.0, 54.1202
13.568674586, 96.390, 2710.0, 52.0577
13.594935151, 96.390, 2548.0, 50.4777
13.621195716, 96.390, 2589.0, 50.8822
13.647456282, 96.390, 2599.0, 50.9804
13.673716847, 96.390, 2504.0, 50.0400
13.699977412, 96.390, 2483.0, 49.8297
13.726237978, 96.390, 2509.0, 50.0899
13.752498543, 96.390, 2592.0, 50.9117
13.778759108, 96.390, 2593.0, 50.9215
13.805019674, 96.390, 2627.0, 51.2543
13.831280239, 96.390, 2670.0, 51.6720
13.857540805, 96.390, 2778.0, 52.7067
13.883801370, 96.390, 2791.0, 52.8299
13.910061935, 96.390, 2771.0, 52.6403
13.936322501, 96.390, 2742.0, 52.3641
13.962583066, 96.390, 2499.0, 49.9900
13.988843631, 96.390, 2433.0, 49.3254
14.015104197, 96.390, 2514.0, 50.1398
14.041364762, 96.390, 2436.0, 49.3559
14.067625327, 96.390, 2475.0, 49.7494
14.093885893, 96.390, 2538.0, 50.3786
14.120146458, 96.390, 2575.0, 50.7445
14.146407023, 96.390, 2659.0, 51.5655
14.172667589, 96.390, 2741.0, 52.3546
14.198928154, 96.390, 2742.0, 52.3641
14.225188719, 96.390, 3122.0, 55.8749
14.251449285, 96.390, 3258.0, 57.0789
14.277709850, 96.390, 3453.0, 58.7622
14.303970416, 96.390, 3207.0, 56.6304
14.330230981, 96.390, 2859.0, 53.4696
14.356491546, 96.390, 2463.0, 49.6286
14.382752112, 96.390, 2491.0, 49.9099
14.409012677, 96.390, 2425.0, 49.2443
14.435273242, 96.390, 2450.0, 49.4975
14.461533808, 96.390, 2371.0, 48.6929
14.487794373, 96.390, 2496.0, 49.9600
14.514054938, 96.390, 2415.0, 49.1426
14.540315504, 96.390, 2417.0, 49.1630
14.566576069, 96.390, 2471.0, 49.7092
14.592836634, 96.390, 2364.0, 48.6210
14.619097200, 96.390, 2356.0, 48.5386
14.645357765, 96.390, 2312.0, 48.0833
14.671618331, 96.390, 2197.0, 46.8722
14.697878896, 96.390, 2252.0, 47.4552
14.724139461, 96.390, 2310.0, 48.0625
14.750400027, 96.390, 2300.0, 47.9583
14.776660592, 96.390, 2288.0, 47.8330
14.802921157, 96.390, 2316.0, 48.1248
14.829181723, 96.390, 2259.0, 47.5289
14.855442288, 96.390, 2213.0, 47.0425
14.881702853, 96.390, 2408.0, 49.0714
14.907963419, 96.390, 2325.0, 48.2183
14.934223984, 96.390, 2311.0, 48.0729
14.960484549, 96.390, 2386.0, 48.8467
14.986745115, 96.390, 2224.0, 47.1593
15.013005680, 96.390, 2364.0, 48.6210
15.039266245, 96.390, 2326.0, 48.2286
15.065526811, 96.390, 2300.0, 47.9583
15.091787376, 96.390, 2375.0, 48.7340
15.118047942, 96.390, 2361.0, 48.5901
15.144308507, 96.390, 2548.0, 50.4777
15.170569072, 96.390, 2493.0, 49.9300
15.196829638, 96.390, 2852.0, 53.4041
15.223090203, 96.390, 2910.0, 53.9444
15.249350768, 96.390, 3169.0, 56.2939
15.275611334, 96.390, 3414.0, 58.4294
15.301871899, 96.390, 3460.0, 58.8218
15.328132464, 96.390, 3020.0, 54.9545
15.354393030, 96.390, 2671.0, 51.6817
15.380653595, 96.390, 2538.0, 50.3786
15.406914160, 96.390, 2310.0, 48.0625
15.433174726, 96.390, 2328.0, 48.2494
15.459435291, 96.390, 2236.0, 47.2864
15.485695857, 96.390, 2200.0, 46.9042
15.511956422, 96.390, 2290.0, 47.8539
15.538216987, 96.390, 2246.0, 47.3920
15.564477553, 96.390, 2191.0, 46.8081
15.590738118, 96.390, 2213.0, 47.0425
15.616998683, 96.390, 2200.0, 46.9042
15.643259249, 96.390, 2204.0, 46.9468
15.669519814, 96.390, 2257.0, 47.5079
15.695780379, 96.390, 2179.0, 46.6798
15.722040945, 96.390, 2196.0, 46.8615
15.748301510, 96.390, 2078.0, 45.5851
15.774562075, 96.390, 2159.0, 46.4650
15.800822641, 96.390, 2210.0, 47.0106
15.827083206, 96.390, 2189.0, 46.7868
15.853343771, 96.390, 2173.0, 46.6154
15.879604337, 96.390, 2207.0, 46.9787
15.905864902, 96.390, 2212.0, 47.0319
15.932125468, 96.390, 2239.0, 47.3181
15.958386033, 96.390, 2174.0, 46.6262
15.984646598, 96.390, 2137.0, 46.2277
16.010907164, 96.390, 2193.0, 46.8295
16.037167729, 96.390, 2338.0, 48.3529
16.063428294, 96.390, 2143.0, 46.2925
16.089688860, 96.390, 2179.0, 46.6798
16.115949425, 96.390, 2212.0, 47.0319
16.142209990, 96.390, 2217.0, 47.0850
16.168470556, 96.390, 2148.0, 46.3465
16.194731121, 96.390, 2094.0, 45.7602
16.220991686, 96.390, 2153.0, 46.4004
16.247252252, 96.390, 2170.0, 46.5833
16.273512817, 96.390, 2211.0, 47.0213
16.299773382, 96.390, 2162.0, 46.4973
16.326033948, 96.390, 2224.0, 47.1593
16.352294513, 96.390, 2256.0, 47.4974
16.378555079, 96.390, 2269.0, 47.6340
16.404815644, 96.390, 2175.0, 46.6369
16.431076209, 96.390, 2163.0, 46.5081
16.457336775, 96.390, 2154.0, 46.4112
16.483597340, 96.390, 2147.0, 46.3357
16.509857905, 96.390, 2225.0, 47.1699
16.536118471, 96.390, 2144.0, 46.3033
16.562379036, 96.390, 2248.0, 47.4131
16.588639601, 96.390, 2202.0, 46.9255
16.614900167, 96.390, 2153.0, 46.4004
16.641160732, 96.390, 2174.0, 46.6262
16.667421297, 96.390, 2212.0, 47.0319
16.693681863, 96.390, 2143.0, 46.2925
16.719942428, 96.390, 2167.0, 46.5510
16.746202994, 96.390, 2127.0, 46.1194
16.772463559, 96.390, 2287.0, 47.8226
16.798724124, 96.390, 2212.0, 47.0319
16.824984690, 96.390, 2211.0, 47.0213
16.851245255, 96.390, 2134.0, 46.1952
16.877505820, 96.390, 2157.0, 46.4435
16.903766386, 96.390, 2093.0, 45.7493
16.930026951, 96.390, 2233.0, 47.2546
16.956287516, 96.390, 2227.0, 47.1911
16.982548082, 96.390, 2257.0, 47.5079
17.008808647, 96.390, 2154.0, 46.4112
17.035069212, 96.390, 2213.0, 47.0425
17.061329778, 96.390, 2143.0, 46.2925
17.087590343, 96.390, 2225.0, 47.1699
17.113850908, 96.390, 2203.0, 46.9361
17.140111474, 96.390, 2192.0, 46.8188
17.166372039, 96.390, 2180.0, 46.6905
17.192632605, 96.390, 2155.0, 46.4220
17.218893170, 96.390, 2143.0, 46.2925
17.245153735, 96.390, 2235.0, 47.2758
17.271414301, 96.390, 2164.0, 46.5188
17.297674866, 96.390, 2172.0, 46.6047
17.323935431, 96.390, 2229.0, 47.2123
17.350195997, 96.390, 2241.0, 47.3392
17.376456562, 96.390, 2267.0, 47.6130
17.402717127, 96.390, 2211.0, 47.0213
17.428977693, 96.390, 2256.0, 47.4974
17.455238258, 96.390, 2313.0, 48.0937
17.481498823, 96.390, 2131.0, 46.1628
17.507759389, 96.390, 2276.0, 47.7074
17.534019954, 96.390, 2159.0, 46.4650
17.560280520, 96.390, 2185.0, 46.7440
17.586541085, 96.390, 2271.0, 47.6550
17.612801650, 96.390, 2286.0, 47.8121
17.639062216, 96.390, 2182.0, 46.7119
17.665322781, 96.390, 2193.0, 46.8295
17.691583346, 96.390, 2140.0, 46.2601
17.717843912, 96.390, 2245.0, 47.3814
17.744104477, 96.390, 2150.0, 46.3681
17.770365042, 96.390, 2178.0, 46.6690
17.796625608, 96.390, 2235.0, 47.2758
17.822886173, 96.390, 2155.0, 46.4220
17.849146738, 96.390, 2207.0, 46.9787
17.875407304, 96.390, 2275.0, 47.6970
17.901667869, 96.390, 2316.0, 48.1248
17.927928434, 96.390, 2257.0, 47.5079
17.954189000, 96.390, 2150.0, 46.3681
17.980449565, 96.390, 2213.0, 47.0425
18.006710131, 96.390, 2156.0, 46.4327
18.032970696, 96.390, 2261.0, 47.5500
18.059231261, 96.390, 2285.0, 47.8017
18.085491827, 96.390, 2202.0, 46.9255
18.111752392, 96.390, 2321.0, 48.1768
18.138012957, 96.390, 2328.0, 48.2494
18.164273523, 96.390, 2208.0, 46.9894
18.190534088, 96.390, 2205.0, 46.9574
18.216794653, 96.390, 2299.0, 47.9479
18.243055219, 96.390, 2362.0, 48.6004
18.269315784, 96.390, 2287.0, 47.8226
18.295576349, 96.390, 2385.0, 48.8365
18.321836915, 96.390, 2280.0, 47.7493
18.348097480, 96.390, 2447.0, 49.4672
18.374358046, 96.390, 2397.0, 48.9592
18.400618611, 96.390, 2356.0, 48.5386
18.426879176, 96.390, 2304.0, 48.0000
18.453139742, 96.390, 2297.0, 47.9270
18.479400307, 96.390, 2366.0, 48.6415
18.505660872, 96.390, 2361.0, 48.5901
18.531921438, 96.390, 2255.0, 47.4868
18.558182003, 96.390, 2271.0, 47.6550
18.584442568, 96.390, 2272.0, 47.6655
18.610703134, 96.390, 2268.0, 47.6235
18.636963699, 96.390, 2279.0, 47.7389
18.663224264, 96.390, 2284.0, 47.7912
18.689484830, 96.390, 2273.0, 47.6760
18.715745395, 96.390, 2276.0, 47.7074
18.742005960, 96.390, 2314.0, 48.1041
18.768266526, 96.390, 2280.0, 47.7493
18.794527091, 96.390, 2315.0, 48.1144
18.820787657, 96.390, 2394.0, 48.9285
18.847048222, 96.390, 2319.0, 48.1560
18.873308787, 96.390, 2486.0, 49.8598
18.899569353, 96.390, 2439.0, 49.3862
18.925829918, 96.390, 2362.0, 48.6004
18.952090483, 96.390, 2422.0, 49.2138
18.978351049, 96.390, 2482.0, 49.8197
19.004611614, 96.390, 2438.0, 49.3761
19.030872179, 96.390, 2324.0, 48.2079
19.057132745, 96.390, 2461.0, 49.6085
19.083393310, 96.390, 2419.0, 49.1833
19.109653875, 96.390, 2305.0, 48.0104
19.135914441, 96.390, 2369.0, 48.6724
19.162175006, 96.390, 2417.0, 49.1630
19.188435572, 96.390, 2393.0, 48.9183
19.214696137, 96.390, 2413.0, 49.1223
19.240956702, 96.390, 2434.0, 49.3356
19.267217268, 96.390, 2420.0, 49.1935
19.293477833, 96.390, 2401.0, 49.0000
19.319738398, 96.390, 2569.0, 50.6853
19.345998964, 96.390, 2618.0, 51.1664
19.372259529, 96.390, 2707.0, 52.0288
19.398520094, 96.390, 2886.0, 53.7215
19.424780660, 96.390, 2991.0, 54.6900
19.451041225, 96.390, 3027.0, 55.0182
19.477301790, 96.390, 2887.0, 53.7308
19.503562356, 96.390, 2756.0, 52.4976
19.529822921, 96.390, 2551.0, 50.5074
19.556083486, 96.390, 2544.0, 50.4381
19.582344052, 96.390, 2554.0, 50.5371
19.608604617, 96.390, 2578.0, 50.7740
19.634865183, 96.390, 2567.0, 50.6656
19.661125748, 96.390, 2780.0, 52.7257
19.687386313, 96.390, 2766.0, 52.5928
19.713646879, 96.390, 2829.0, 53.1883
19.739907444, 96.390, 2798.0, 52.8961
19.766168009, 96.390, 2897.0, 53.8238
19.792428575, 96.390, 2910.0, 53.9444
19.818689140, 96.390, 3056.0, 55.2811
19.844949705, 96.390, 3025.0, 55.0000
19.871210271, 96.390, 3272.0, 57.2014
19.897470836, 96.390, 3508.0, 59.2284
19.923731401, 96.390, 3856.0, 62.0967
19.949991967, 96.390, 4424.0, 66.5132
19.976252532, 96.390, 4832.0, 69.5126
20.002513097, 96.390, 4553.0, 67.4759
20.028773663, 96.390, 3888.0, 62.3538
20.055034228, 96.390, 3252.0, 57.0263
20.081294794, 96.390, 2832.0, 53.2165
20.107555359, 96.390, 2672.0, 51.6914
20.133815924, 96.390, 2530.0, 50.2991
20.160076490, 96.390, 2527.0, 50.2693
20.186337055, 96.390, 2508.0, 50.0799
20.212597620, 96.390, 2574.0, 50.7346
20.238858186, 96.390, 2573.0, 50.7247
20.265118751, 96.390, 2564.0, 50.6360
20.291379316, 96.390, 2663.0, 51.6043
20.317639882, 96.390, 2609.0, 51.0784
20.343900447, 96.390, 2672.0, 51.6914
20.370161012, 96.390, 2705.0, 52.0096
20.396421578, 96.390, 2813.0, 53.0377
20.422682143, 96.390, 2889.0, 53.7494
20.448942709, 96.390, 2927.0, 54.1018
20.475203274, 96.390, 3005.0, 54.8179
20.501463839, 96.390, 3178.0, 56.3738
20.527724405, 96.390, 3247.0, 56.9825
20.553984970, 96.390, 3384.0, 58.1722
20.580245535, 96.390, 3913.0, 62.5540
20.606506101, 96.390, 4245.0, 65.1537
20.632766666, 96.390, 5180.0, 71.9722
20.659027231, 96.390, 6179.0, 78.6066
20.685287797, 96.390, 7620.0, 87.2926
20.711548362, 96.390, 8692.0, 93.2309
20.737808927, 96.390, 8473.0, 92.0489
20.764069493, 96.390, 6726.0, 82.0122
20.790330058, 96.390, 5139.0, 71.6868
20.816590623, 96.390, 3743.0, 61.1801
20.842851189, 96.390, 3099.0, 55.6687
20.869111754, 96.390, 2856.0, 53.4416
20.895372320, 96.390, 2811.0, 53.0189
20.921632885, 96.390, 2737.0, 52.3163
20.947893450, 96.390, 2721.0, 52.1632
20.974154016, 96.390, 2702.0, 51.9808
21.000414581, 96.390, 2691.0, 51.8748
21.026675146, 96.390, 2656.0, 51.5364
21.052935712, 96.390, 2616.0, 51.1468
21.079196277, 96.390, 2646.0, 51.4393
21.105456842, 96.390, 2706.0, 52.0192
21.131717408, 96.390, 2561.0, 50.6063
21.157977973, 96.390, 2615.0, 51.1371
21.184238538, 96.390, 2586.0, 50.8527
21.210499104, 96.390, 2649.0, 51.4684
21.236759669, 96.390, 2647.0, 51.4490
21.263020235, 96.390, 2542.0, 50.4183
21.289280800, 96.390, 2641.0, 51.3907
21.315541365, 96.390, 2634.0, 51.3225
21.341801931, 96.390, 2649.0, 51.4684
21.368062496, 96.390, 2583.0, 50.8232
21.394323061, 96.390, 2581.0, 50.8035
21.420583627, 96.390, 2655.0, 51.5267
21.446844192, 96.390, 2531.0, 50.3090
21.473104757, 96.390, 2621.0, 51.1957
21.499365323, 96.390, 2649.0, 51.4684
21.525625888, 96.390, 2665.0, 51.6236
21.551886453, 96.390, 2671.0, 51.6817
21.578147019, 96.390, 2647.0, 51.4490
21.604407584, 96.390, 2646.0, 51.4393
21.630668149, 96.390, 2592.0, 50.9117
21.656928715, 96.390, 2706.0, 52.0192
21.683189280, 96.390, 2680.0, 51.7687
21.709449846, 96.390, 2671.0, 51.6817
21.735710411, 96.390, 2642.0, 51.4004
21.761970976, 96.390, 2657.0, 51.5461
21.788231542, 96.390, 2611.0, 51.0979
21.814492107, 96.390, 2633.0, 51.3128
21.840752672, 96.390, 2600.0, 50.9902
21.867013238, 96.390, 2695.0, 51.9134
21.893273803, 96.390, 2622.0, 51.2055
21.919534368, 96.390, 2681.0, 51.7784
21.945794934, 96.390, 2539.0, 50.3885
21.972055499, 96.390, 2568.0, 50.6754
21.998316064, 96.390, 2627.0, 51.2543
22.024576630, 96.390, 2661.0, 51.5849
22.050837195, 96.390, 2700.0, 51.9615
22.077097761, 96.390, 2681.0, 51.7784
22.103358326, 96.390, 2564.0, 50.6360
22.129618891, 96.390, 2658.0, 51.5558
22.155879457, 96.390, 2668.0, 51.6527
22.182140022, 96.390, 2597.0, 50.9608
22.208400587, 96.390, 2566.0, 50.6557
22.234661153, 96.390, 2599.0, 50.9804
22.260921718, 96.390, 2568.0, 50.6754
22.287182283, 96.390, 2555.0, 50.5470
22.313442849, 96.390, 2611.0, 51.0979
22.339703414, 96.390, 2571.0, 50.7050
22.365963979, 96.390, 2621.0, 51.1957
22.392224545, 96.390, 2665.0, 51.6236
22.418485110, 96.390, 2570.0, 50.6952
22.444745675, 96.390, 2534.0, 50.3389
22.471006241, 96.390, 2698.0, 51.9423
22.497266806, 96.390, 2679.0, 51.7591
22.523527372, 96.390, 2615.0, 51.1371
22.549787937, 96.390, 2550.0, 50.4975
22.576048502, 96.390, 2637.0, 51.3517
22.602309068, 96.390, 2637.0, 51.3517
22.628569633, 96.390, 2615.0, 51.1371
22.654830198, 96.390, 2646.0, 51.4393
22.681090764, 96.390, 2632.0, 51.3030
22.707351329, 96.390, 2601.0, 51.0000
22.733611894, 96.390, 2723.0, 52.1824
22.759872460, 96.390, 2719.0, 52.1440
22.786133025, 96.390, 2638.0, 51.3615
22.812393590, 96.390, 2730.0, 52.2494
22.838654156, 96.390, 2736.0, 52.3068
22.864914721, 96.390, 2727.0, 52.2207
22.891175287, 96.390, 2680.0, 51.7687
22.917435852, 96.390, 2701.0, 51.9711
22.943696417, 96.390, 2639.0, 51.3712
22.969956983, 96.390, 2768.0, 52.6118
22.996217548, 96.390, 2630.0, 51.2835
23.022478113, 96.390, 2608.0, 51.0686
23.048738679, 96.390, 2729.0, 52.2398
23.074999244, 96.390, 2611.0, 51.0979
23.101259809, 96.390, 2638.0, 51.3615
23.127520375, 96.390, 2650.0, 51.4782
23.153780940, 96.390, 2661.0, 51.5849
23.180041505, 96.390, 2706.0, 52.0192
23.206302071, 96.390, 2686.0, 51.8266
23.232562636, 96.390, 2670.0, 51.6720
23.258823201, 96.390, 2648.0, 51.4587
23.285083767, 96.390, 2632.0, 51.3030
23.311344332, 96.390, 2643.0, 51.4101
23.337604898, 96.390, 2614.0, 51.1273
23.363865463, 96.390, 2570.0, 50.6952
23.390126028, 96.390, 2512.0, 50.1199
23.416386594, 96.390, 2615.0, 51.1371
23.442647159, 96.390, 2712.0, 52.0769
23.468907724, 96.390, 2539.0, 50.3885
23.495168290, 96.390, 2624.0, 51.2250
23.521428855, 96.390, 2666.0, 51.6333
23.547689420, 96.390, 2692.0, 51.8845
23.573949986, 96.390, 2592.0, 50.9117
23.600210551, 96.390, 2597.0, 50.9608
23.626471116, 96.390, 2653.0, 51.5073
23.652731682, 96.390, 2576.0, 50.7543
23.678992247, 96.390, 2514.0, 50.1398
23.705252813, 96.390, 2478.0, 49.7795
23.731513378, 96.390, 2614.0, 51.1273
23.757773943, 96.390, 2563.0, 50.6261
23.784034509, 96.390, 2542.0, 50.4183
23.810295074, 96.390, 2398.0, 48.9694
23.836555639, 96.390, 2488.0, 49.8799
23.862816205, 96.390, 2553.0, 50.5272
23.889076770, 96.390, 2436.0, 49.3559
23.915337335, 96.390, 2477.0, 49.7695
23.941597901, 96.390, 2543.0, 50.4282
23.967858466, 96.390, 2574.0, 50.7346
23.994119031, 96.390, 2387.0, 48.8569
24.020379597, 96.390, 2450.0, 49.4975
24.046640162, 96.390, 2471.0, 49.7092
24.072900727, 96.390, 2629.0, 51.2738
24.099161293, 96.390, 2630.0, 51.2835
24.125421858, 96.390, 2742.0, 52.3641
24.151682424, 96.390, 2914.0, 53.9815
24.177942989, 96.390, 3015.0, 54.9090
24.204203554, 96.390, 2955.0, 54.3599
24.230464120, 96.390, 2895.0, 53.8052
24.256724685, 96.390, 2720.0, 52.1536
24.282985250, 96.390, 2573.0, 50.7247
24.309245816, 96.390, 2508.0, 50.0799
24.335506381, 96.390, 2519.0, 50.1896
24.361766946, 96.390, 2356.0, 48.5386
24.388027512, 96.390, 2383.0, 48.8160
24.414288077, 96.390, 2473.0, 49.7293
24.440548642, 96.390, 2341.0, 48.3839
24.466809208, 96.390, 2289.0, 47.8435
24.493069773, 96.390, 2410.0, 49.0918
24.519330338, 96.390, 2317.0, 48.1352
24.545590904, 96.390, 2397.0, 48.9592
24.571851469, 96.390, 2361.0, 48.5901
24.598112035, 96.390, 2363.0, 48.6107
24.624372600, 96.390, 2286.0, 47.8121
24.650633165, 96.390, 2250.0, 47.4342
24.676893731, 96.390, 2250.0, 47.4342
24.703154296, 96.390, 2306.0, 48.0208
24.729414861, 96.390, 2152.0, 46.3897
24.755675427, 96.390, 2221.0, 47.1275
24.781935992, 96.390, 2214.0, 47.0532
24.808196557, 96.390, 2243.0, 47.3603
24.834457123, 96.390, 2300.0, 47.9583
24.860717688, 96.390, 2125.0, 46.0977
24.886978253, 96.390, 2122.0, 46.0652
24.913238819, 96.390, 2237.0, 47.2969
24.939499384, 96.390, 2193.0, 46.8295
24.965759950, 96.390, 2244.0, 47.3709
24.992020515, 96.390, 2223.0, 47.1487
25.018281080, 96.390, 2273.0, 47.6760
25.044541646, 96.390, 2149.0, 46.3573
25.070802211, 96.390, 2209.0, 47.0000
25.097062776, 96.390, 2145.0, 46.3141
25.123323342, 96.390, 2168.0, 46.5618
25.149583907, 96.390, 2105.0, 45.8803
25.175844472, 96.390, 2103.0, 45.8585
25.202105038, 96.390, 2218.0, 47.0956
25.228365603, 96.390, 2252.0, 47.4552
25.254626168, 96.390, 2169.0, 46.5725
25.280886734, 96.390, 2256.0, 47.4974
25.307147299, 96.390, 2381.0, 48.7955
25.333407864, 96.390, 2398.0, 48.9694
25.359668430, 96.390, 2596.0, 50.9510
25.385928995, 96.390, 2793.0, 52.8488
25.412189561, 96.390, 3034.0, 55.0818
25.438450126, 96.390, 3368.0, 58.0345
25.464710691, 96.390, 3363.0, 57.9914
25.490971257, 96.390, 3095.0, 55.6327
25.517231822, 96.390, 2855.0, 53.4322
25.543492387, 96.390, 2593.0, 50.9215
25.569752953, 96.390, 2318.0, 48.1456
25.596013518, 96.390, 2210.0, 47.0106
25.622274083, 96.390, 2081.0, 45.6180
25.648534649, 96.390, 2111.0, 45.9456
25.674795214, 96.390, 2031.0, 45.0666
25.701055779, 96.390, 2074.0, 45.5412
25.727316345, 96.390, 2018.0, 44.9222
25.753576910, 96.390, 2066.0, 45.4533
25.779837476, 96.390, 2010.0, 44.8330
25.806098041, 96.390, 2027.0, 45.0222
25.832358606, 96.390, 2095.0, 45.7712
25.858619172, 96.390, 2059.0, 45.3762
25.884879737, 96.390, 2073.0, 45.5302
25.911140302, 96.390, 2037.0, 45.1331
25.937400868, 96.390, 2150.0, 46.3681
25.963661433, 96.390, 2142.0, 46.2817
25.989921998, 96.390, 2107.0, 45.9021
26.016182564, 96.390, 2051.0, 45.2880
26.042443129, 96.390, 2060.0, 45.3872
26.068703694, 96.390, 2028.0, 45.0333
26.094964260, 96.390, 1952.0, 44.1814
26.121224825, 96.390, 1953.0, 44.1928
26.147485390, 96.390, 2011.0, 44.8442
26.173745956, 96.390, 2066.0, 45.4533
26.200006521, 96.390, 1922.0, 43.8406
26.226267087, 96.390, 1954.0, 44.2041
26.252527652, 96.390, 1984.0, 44.5421
26.278788217, 96.390, 1962.0, 44.2945
26.305048783, 96.390, 1999.0, 44.7102
26.331309348, 96.390, 2045.0, 45.2217
26.357569913, 96.390, 2054.0, 45.3211
26.383830479, 96.390, 1995.0, 44.6654
26.410091044, 96.390, 2043.0, 45.1996
26.436351609, 96.390, 2026.0, 45.0111
26.462612175, 96.390, 2002.0, 44.7437
26.488872740, 96.390, 2072.0, 45.5192
26.515133305, 96.390, 2011.0, 44.8442
26.541393871, 96.390, 2050.0, 45.2769
26.567654436, 96.390, 1960.0, 44.2719
26.593915002, 96.390, 1922.0, 43.8406
26.620175567, 96.390, 1955.0, 44.2154
26.646436132, 96.390, 1963.0, 44.3058
26.672696698, 96.390, 1943.0, 44.0795
26.698957263, 96.390, 1919.0, 43.8064
26.725217828, 96.390, 2010.0, 44.8330
26.751478394, 96.390, 1982.0, 44.5197
26.777738959, 96.390, 2077.0, 45.5741
26.803999524, 96.390, 2027.0, 45.0222
26.830260090, 96.390, 2015.0, 44.8888
26.856520655, 96.390, 1990.0, 44.6094
26.882781220, 96.390, 1963.0, 44.3058
26.909041786, 96.390, 2063.0, 45.4203
26.935302351, 96.390, 1935.0, 43.9886
26.961562916, 96.390, 2014.0, 44.8776
26.987823482, 96.390, 2036.0, 45.1221
27.014084047, 96.390, 2161.0, 46.4866
27.040344613, 96.390, 2284.0, 47.7912
27.066605178, 96.390, 2225.0, 47.1699
27.092865743, 96.390, 2496.0, 49.9600
27.119126309, 96.390, 2705.0, 52.0096
27.145386874, 96.390, 3133.0, 55.9732
27.171647439, 96.390, 3530.0, 59.4138
27.197908005, 96.390, 3563.0, 59.6909
27.224168570, 96.390, 3371.0, 58.0603
27.250429135, 96.390, 2909.0, 53.9351
27.276689701, 96.390, 2709.0, 52.0481
27.302950266, 96.390, 2356.0, 48.5386
27.329210831, 96.390, 2090.0, 45.7165
27.355471397, 96.390, 2043.0, 45.1996
27.381731962, 96.390, 1983.0, 44.5309
27.407992528, 96.390, 2072.0, 45.5192
27.434253093, 96.390, 1952.0, 44.1814
27.460513658, 96.390, 1991.0, 44.6206
27.486774224, 96.390, 1965.0, 44.3283
27.513034789, 96.390, 1954.0, 44.2041
27.539295354, 96.390, 2004.0, 44.7661
27.565555920, 96.390, 1970.0, 44.3847
27.591816485, 96.390, 1873.0, 43.2782
27.618077050, 96.390, 1935.0, 43.9886
27.644337616, 96.390, 1916.0, 43.7721
27.670598181, 96.390, 1946.0, 44.1135
27.696858746, 96.390, 1902.0, 43.6119
27.723119312, 96.390, 1950.0, 44.1588
27.749379877, 96.390, 1892.0, 43.4971
27.775640442, 96.390, 1934.0, 43.9773
27.801901008, 96.390, 1932.0, 43.9545
27.828161573, 96.390, 1915.0, 43.7607
27.854422139, 96.390, 1954.0, 44.2041
27.880682704, 96.390, 1884.0, 43.4051
27.906943269, 96.390, 1983.0, 44.5309
27.933203835, 96.390, 1927.0, 43.8976
27.959464400, 96.390, 2012.0, 44.8553
27.985724965, 96.390, 1992.0, 44.6318
28.011985531, 96.390, 1988.0, 44.5870
28.038246096, 96.390, 1990.0, 44.6094
28.064506661, 96.390, 2015.0, 44.8888
28.090767227, 96.390, 1994.0, 44.6542
28.117027792, 96.390, 2057.0, 45.3542
28.143288357, 96.390, 2031.0, 45.0666
28.169548923, 96.390, 2060.0, 45.3872
28.195809488, 96.390, 1996.0, 44.6766
28.222070054, 96.390, 1970.0, 44.3847
28.248330619, 96.390, 1975.0, 44.4410
28.274591184, 96.390, 1956.0, 44.2267
28.300851750, 96.390, 1931.0, 43.9431
28.327112315, 96.390, 1984.0, 44.5421
28.353372880, 96.390, 1876.0, 43.3128
28.379633446, 96.390, 1855.0, 43.0697
28.405894011, 96.390, 1918.0, 43.7950
28.432154576, 96.390, 1903.0, 43.6234
28.458415142, 96.390, 1902.0, 43.6119
28.484675707, 96.390, 1964.0, 44.3170
28.510936272, 96.390, 1904.0, 43.6348
28.537196838, 96.390, 1933.0, 43.9659
28.563457403, 96.390, 1922.0, 43.8406
28.589717968, 96.390, 1933.0, 43.9659
28.615978534, 96.390, 1968.0, 44.3621
28.642239099, 96.390, 2060.0, 45.3872
28.668499665, 96.390, 2127.0, 46.1194
28.694760230, 96.390, 2069.0, 45.4863
28.721020795, 96.390, 2128.0, 46.1303
28.747281361, 96.390, 2238.0, 47.3075
28.773541926, 96.390, 2363.0, 48.6107
28.799802491, 96.390, 2271.0, 47.6550
28.826063057, 96.390, 2107.0, 45.9021
28.852323622, 96.390, 2142.0, 46.2817
28.878584187, 96.390, 1993.0, 44.6430
28.904844753, 96.390, 1924.0, 43.8634
28.931105318, 96.390, 1948.0, 44.1362
28.957365883, 96.390, 1985.0, 44.5533
28.983626449, 96.390, 2073.0, 45.5302
29.009887014, 96.390, 2091.0, 45.7275
29.036147579, 96.390, 2143.0, 46.2925
29.062408145, 96.390, 2338.0, 48.3529
29.088668710, 96.390, 2444.0, 49.4368
29.114929276, 96.390, 2508.0, 50.0799
29.141189841, 96.390, 2458.0, 49.5782
29.167450406, 96.390, 2324.0, 48.2079
29.193710972, 96.390, 2309.0, 48.0521
29.219971537, 96.390, 2118.0, 46.0217
29.246232102, 96.390, 2110.0, 45.9347
29.272492668, 96.390, 2025.0, 45.0000
29.298753233, 96.390, 1979.0, 44.4860
29.325013798, 96.390, 2044.0, 45.2106
29.351274364, 96.390, 2003.0, 44.7549
29.377534929, 96.390, 1933.0, 43.9659
29.403795494, 96.390, 1956.0, 44.2267
29.430056060, 96.390, 1959.0, 44.2606
29.456316625, 96.390, 1961.0, 44.2832
29.482577191, 96.390, 2001.0, 44.7325
29.508837756, 96.390, 2010.0, 44.8330
29.535098321, 96.390, 1944.0, 44.0908
29.561358887, 96.390, 1886.0, 43.4281
29.587619452, 96.390, 1904.0, 43.6348
29.613880017, 96.390, 1875.0, 43.3013
29.640140583, 96.390, 1938.0, 44.0227
29.666401148, 96.390, 1870.0, 43.2435
29.692661713, 96.390, 1982.0, 44.5197
29.718922279, 96.390, 1968.0, 44.3621
29.745182844, 96.390, 1935.0, 43.9886
29.771443409, 96.390, 1842.0, 42.9185
29.797703975, 96.390, 1859.0, 43.1161
29.823964540, 96.390, 1894.0, 43.5201
29.850225105, 96.390, 1827.0, 42.7434
29.876485671, 96.390, 1897.0, 43.5546
29.902746236, 96.390, 1936.0, 44.0000
29.929006802, 96.390, 1860.0, 43.1277
29.955267367, 96.390, 1875.0, 43.3013
29.981527932, 96.390, 1772.0, 42.0951
30.007788498, 96.390, 1880.0, 43.3590
30.034049063, 96.390, 1868.0, 43.2204
30.060309628, 96.390, 1813.0, 42.5793
30.086570194, 96.390, 1886.0, 43.4281
30.112830759, 96.390, 1906.0, 43.6578
30.139091324, 96.390, 1882.0, 43.3820
30.165351890, 96.390, 1837.0, 42.8602
30.191612455, 96.390, 1883.0, 43.3935
30.217873020, 96.390, 1898.0, 43.5660
30.244133586, 96.390, 1876.0, 43.3128
30.270394151, 96.390, 1894.0, 43.5201
30.296654717, 96.390, 1866.0, 43.1972
30.322915282, 96.390, 1813.0, 42.5793
30.349175847, 96.390, 1852.0, 43.0349
30.375436413, 96.390, 1918.0, 43.7950
30.401696978, 96.390, 1893.0, 43.5086
30.427957543, 96.390, 2027.0, 45.0222
30.454218109, 96.390, 2024.0, 44.9889
30.480478674, 96.390, 2032.0, 45.0777
30.506739239, 96.390, 2039.0, 45.1553
30.532999805, 96.390, 2016.0, 44.8999
30.559260370, 96.390, 2049.0, 45.2659
30.585520935, 96.390, 2133.0, 46.1844
30.611781501, 96.390, 2217.0, 47.0850
30.638042066, 96.390, 2236.0, 47.2864
30.664302631, 96.390, 2414.0, 49.1325
30.690563197, 96.390, 2457.0, 49.5681
30.716823762, 96.390, 2470.0, 49.6991
30.743084328, 96.390, 2465.0, 49.6488
30.769344893, 96.390, 2433.0, 49.3254
30.795605458, 96.390, 2368.0, 48.6621
30.821866024, 96.390, 2391.0, 48.8979
30.848126589, 96.390, 2370.0, 48.6826
30.874387154, 96.390, 2375.0, 48.7340
30.900647720, 96.390, 2143.0, 46.2925
30.926908285, 96.390, 2215.0, 47.0638
30.953168850, 96.390, 2142.0, 46.2817
30.979429416, 96.390, 1969.0, 44.3734
31.005689981, 96.390, 2053.0, 45.3100
31.031950546, 96.390, 2034.0, 45.0999
31.058211112, 96.390, 2077.0, 45.5741
31.084471677, 96.390, 2126.0, 46.1086
31.110732243, 96.390, 2301.0, 47.9687
31.136992808, 96.390, 2478.0, 49.7795
31.163253373, 96.390, 2677.0, 51.7397
31.189513939, 96.390, 3177.0, 56.3649
31.215774504, 96.390, 3277.0, 57.2451
31.242035069, 96.390, 3355.0, 57.9224
31.268295635, 96.390, 2926.0, 54.0925
31.294556200, 96.390, 2724.0, 52.1920
31.320816765, 96.390, 2543.0, 50.4282
31.347077331, 96.390, 2278.0, 47.7284
31.373337896, 96.390, 2142.0, 46.2817
31.399598461, 96.390, 2242.0, 47.3498
31.425859027, 96.390, 2246.0, 47.3920
31.452119592, 96.390, 2144.0, 46.3033
31.478380157, 96.390, 2282.0, 47.7703
31.504640723, 96.390, 2359.0, 48.5695
31.530901288, 96.390, 2340.0, 48.3735
31.557161854, 96.390, 2256.0, 47.4974
31.583422419, 96.390, 2401.0, 49.0000
31.609682984, 96.390, 2332.0, 48.2908
31.635943550, 96.390, 2383.0, 48.8160
31.662204115, 96.390, 2398.0, 48.9694
31.688464680, 96.390, 2262.0, 47.5605
31.714725246, 96.390, 2319.0, 48.1560
31.740985811, 96.390, 2201.0, 46.9148
31.767246376, 96.390, 2238.0, 47.3075
31.793506942, 96.390, 2155.0, 46.4220
31.819767507, 96.390, 2122.0, 46.0652
31.846028072, 96.390, 2180.0, 46.6905
31.872288638, 96.390, 2274.0, 47.6865
31.898549203, 96.390, 2544.0, 50.4381
31.924809769, 96.390, 2801.0, 52.9245
31.951070334, 96.390, 3233.0, 56.8595
31.977330899, 96.390, 3891.0, 62.3779
32.003591465, 96.390, 4825.0, 69.4622
32.029852030, 96.390, 5953.0, 77.1557
32.056112595, 96.390, 6852.0, 82.7768
32.082373161, 96.390, 7186.0, 84.7703
32.108633726, 96.390, 6292.0, 79.3221
32.134894291, 96.390, 5168.0, 71.8888
32.161154857, 96.390, 4645.0, 68.1542
32.187415422, 96.390, 3768.0, 61.3840
32.213675987, 96.390, 2899.0, 53.8424
32.239936553, 96.390, 2494.0, 49.9400
32.266197118, 96.390, 2250.0, 47.4342
32.292457683, 96.390, 2070.0, 45.4973
32.318718249, 96.390, 2066.0, 45.4533
32.344978814, 96.390, 2014.0, 44.8776
32.371239380, 96.390, 1943.0, 44.0795
32.397499945, 96.390, 2025.0, 45.0000
32.423760510, 96.390, 1896.0, 43.5431
32.450021076, 96.390, 1933.0, 43.9659
32.476281641, 96.390, 1914.0, 43.7493
32.502542206, 96.390, 1926.0, 43.8862
32.528802772, 96.390, 1899.0, 43.5775
32.555063337, 96.390, 1855.0, 43.0697
32.581323902, 96.390, 1820.0, 42.6615
32.607584468, 96.390, 1847.0, 42.9767
32.633845033, 96.390, 1898.0, 43.5660
32.660105598, 96.390, 2007.0, 44.7996
32.686366164, 96.390, 1930.0, 43.9318
32.712626729, 96.390, 1882.0, 43.3820
32.738887295, 96.390, 1942.0, 44.0681
32.765147860, 96.390, 1977.0, 44.4635
32.791408425, 96.390, 1877.0, 43.3244
32.817668991, 96.390, 1843.0, 42.9302
32.843929556, 96.390, 1811.0, 42.5558
32.870190121, 96.390, 1794.0, 42.3556
32.896450687, 96.390, 1861.0, 43.1393
32.922711252, 96.390, 1910.0, 43.7035
32.948971817, 96.390, 1904.0, 43.6348
32.975232383, 96.390, 1961.0, 44.2832
33.001492948, 96.390, 1900.0, 43.5890
33.027753513, 96.390, 1976.0, 44.4522
33.054014079, 96.390, 1978.0, 44.4747
33.080274644, 96.390, 1983.0, 44.5309
33.106535209, 96.390, 2050.0, 45.2769
33.132795775, 96.390, 1980.0, 44.4972
33.159056340, 96.390, 2059.0, 45.3762
33.185316906, 96.390, 1983.0, 44.5309
33.211577471, 96.390, 1997.0, 44.6878
33.237838036, 96.390, 1932.0, 43.9545
33.264098602, 96.390, 1961.0, 44.2832
33.290359167, 96.390, 1885.0, 43.4166
33.316619732, 96.390, 1909.0, 43.6921
33.342880298, 96.390, 1896.0, 43.5431
33.369140863, 96.390, 1959.0, 44.2606
33.395401428, 96.390, 2119.0, 46.0326
33.421661994, 96.390, 2097.0, 45.7930
33.447922559, 96.390, 2140.0, 46.2601
33.474183124, 96.390, 2074.0, 45.5412
33.500443690, 96.390, 2065.0, 45.4423
33.526704255, 96.390, 2103.0, 45.8585
33.552964820, 96.390, 1977.0, 44.4635
33.579225386, 96.390, 1957.0, 44.2380
33.605485951, 96.390, 1945.0, 44.1022
33.631746517, 96.390, 1933.0, 43.9659
33.658007082, 96.390, 1910.0, 43.7035
33.684267647, 96.390, 1929.0, 43.9204
33.710528213, 96.390, 1848.0, 42.9884
33.736788778, 96.390, 1964.0, 44.3170
33.763049343, 96.390, 2019.0, 44.9333
33.789309909, 96.390, 2021.0, 44.9555
33.815570474, 96.390, 2166.0, 46.5403
33.841831039, 96.390, 2212.0, 47.0319
33.868091605, 96.390, 2532.0, 50.3190
33.894352170, 96.390, 2828.0, 53.1789
33.920612735, 96.390, 3043.0, 55.1634
33.946873301, 96.390, 3547.0, 59.5567
33.973133866, 96.390, 3752.0, 61.2536
33.999394432, 96.390, 3663.0, 60.5227
34.025654997, 96.390, 3129.0, 55.9375
34.051915562, 96.390, 2925.0, 54.0833
34.078176128, 96.390, 2886.0, 53.7215
34.104436693, 96.390, 2485.0, 49.8498
34.130697258, 96.390, 2277.0, 47.7179
34.156957824, 96.390, 2169.0, 46.5725
34.183218389, 96.390, 2249.0, 47.4236
34.209478954, 96.390, 2158.0, 46.4543
34.235739520, 96.390, 2162.0, 46.4973
34.262000085, 96.390, 2104.0, 45.8694
34.288260650, 96.390, 2281.0, 47.7598
34.314521216, 96.390, 2213.0, 47.0425
34.340781781, 96.390, 2271.0, 47.6550
34.367042346, 96.390, 2304.0, 48.0000
34.393302912, 96.390, 2451.0, 49.5076
34.419563477, 96.390, 2392.0, 48.9081
34.445824043, 96.390, 2496.0, 49.9600
34.472084608, 96.390, 2645.0, 51.4296
34.498345173, 96.390, 2615.0, 51.1371
34.524605739, 96.390, 2519.0, 50.1896
34.550866304, 96.390, 2559.0, 50.5866
34.577126869, 96.390, 2569.0, 50.6853
34.603387435, 96.390, 2554.0, 50.5371
34.629648000, 96.390, 2434.0, 49.3356
34.655908565, 96.390, 2359.0, 48.5695
34.682169131, 96.390, 2368.0, 48.6621
34.708429696, 96.390, 2392.0, 48.9081
34.734690261, 96.390, 2396.0, 48.9490
34.760950827, 96.390, 2551.0, 50.5074
34.787211392, 96.390, 2561.0, 50.6063
34.813471958, 96.390, 2774.0, 52.6688
34.839732523, 96.390, 2933.0, 54.1572
34.865993088, 96.390, 3193.0, 56.5066
34.892253654, 96.390, 3614.0, 60.1166
34.918514219, 96.390, 3800.0, 61.6441
34.944774784, 96.390, 3948.0, 62.8331
34.971035350, 96.390, 3709.0, 60.9016
34.997295915, 96.390, 3548.0, 59.5651
35.023556480, 96.390, 3295.0, 57.4021
35.049817046, 96.390, 3071.0, 55.4166
35.076077611, 96.390, 2805.0, 52.9623
35.102338176, 96.390, 2614.0, 51.1273
35.128598742, 96.390, 2472.0, 49.7192
35.154859307, 96.390, 2371.0, 48.6929
35.181119872, 96.390, 2374.0, 48.7237
35.207380438, 96.390, 2382.0, 48.8057
35.233641003, 96.390, 2281.0, 47.7598
35.259901569, 96.390, 2321.0, 48.1768
35.286162134, 96.390, 2305.0, 48.0104
35.312422699, 96.390, 2334.0, 48.3115
35.338683265, 96.390, 2201.0, 46.9148
35.364943830, 96.390, 2143.0, 46.2925
35.391204395, 96.390, 2188.0, 46.7761
35.417464961, 96.390, 2173.0, 46.6154
35.443725526, 96.390, 2144.0, 46.3033
35.469986091, 96.390, 2162.0, 46.4973
35.496246657, 96.390, 2178.0, 46.6690
35.522507222, 96.390, 2190.0, 46.7974
35.548767787, 96.390, 2204.0, 46.9468
35.575028353, 96.390, 2226.0, 47.1805
35.601288918, 96.390, 2205.0, 46.9574
35.627549484, 96.390, 2288.0, 47.8330
35.653810049, 96.390, 2240.0, 47.3286
35.680070614, 96.390, 2212.0, 47.0319
35.706331180, 96.390, 2148.0, 46.3465
35.732591745, 96.390, 2205.0, 46.9574
35.758852310, 96.390, 2168.0, 46.5618
35.785112876, 96.390, 2230.0, 47.2229
35.811373441, 96.390, 2107.0, 45.9021
35.837634006, 96.390, 2153.0, 46.4004
35.863894572, 96.390, 2056.0, 45.3431
35.890155137, 96.390, 2056.0, 45.3431
35.916415702, 96.390, 2103.0, 45.8585
35.942676268, 96.390, 2070.0, 45.4973
35.968936833, 96.390, 2087.0, 45.6837
35.995197398, 96.390, 2079.0, 45.5961
36.021457964, 96.390, 2077.0, 45.5741
36.047718529, 96.390, 2066.0, 45.4533
36.073979095, 96.390, 2066.0, 45.4533
36.100239660, 96.390, 1952.0, 44.1814
36.126500225, 96.390, 1908.0, 43.6807
36.152760791, 96.390, 2087.0, 45.6837
36.179021356, 96.390, 1983.0, 44.5309
36.205281921, 96.390, 2007.0, 44.7996
36.231542487, 96.390, 1949.0, 44.1475
36.257803052, 96.390, 1946.0, 44.1135
36.284063617, 96.390, 1910.0, 43.7035
36.310324183, 96.390, 1851.0, 43.0232
36.336584748, 96.390, 1932.0, 43.9545
36.362845313, 96.390, 1922.0, 43.8406
36.389105879, 96.390, 1920.0, 43.8178
36.415366444, 96.390, 1857.0, 43.0929
36.441627010, 96.390, 1885.0, 43.4166
36.467887575, 96.390, 1858.0, 43.1045
36.494148140, 96.390, 1850.0, 43.0116
36.520408706, 96.390, 1784.0, 42.2374
36.546669271, 96.390, 1814.0, 42.5911
36.572929836, 96.390, 1792.0, 42.3320
36.599190402, 96.390, 1767.0, 42.0357
36.625450967, 96.390, 1776.0, 42.1426
36.651711532, 96.390, 1778.0, 42.1663
36.677972098, 96.390, 1778.0, 42.1663
36.704232663, 96.390, 1775.0, 42.1307
36.730493228, 96.390, 1755.0, 41.8927
36.756753794, 96.390, 1798.0, 42.4028
36.783014359, 96.390, 1781.0, 42.2019
36.809274924, 96.390, 1785.0, 42.2493
36.835535490, 96.390, 1735.0, 41.6533
36.861796055, 96.390, 1711.0, 41.3642
36.888056621, 96.390, 1750.0, 41.8330
36.914317186, 96.390, 1726.0, 41.5452
36.940577751, 96.390, 1763.0, 41.9881
36.966838317, 96.390, 1709.0, 41.3401
36.993098882, 96.390, 1658.0, 40.7185
37.019359447, 96.390, 1754.0, 41.8808
37.045620013, 96.390, 1723.0, 41.5090
37.071880578, 96.390, 1807.0, 42.5088
37.098141143, 96.390, 1731.0, 41.6053
37.124401709, 96.390, 1691.0, 41.1218
37.150662274, 96.390, 1757.0, 41.9166
37.176922839, 96.390, 1761.0, 41.9643
37.203183405, 96.390, 1770.0, 42.0714
37.229443970, 96.390, 1763.0, 41.9881
37.255704535, 96.390, 1728.0, 41.5692
37.281965101, 96.390, 1677.0, 40.9512
37.308225666, 96.390, 1623.0, 40.2865
37.334486232, 96.390, 1700.0, 41.2311
37.360746797, 96.390, 1750.0, 41.8330
37.387007362, 96.390, 1677.0, 40.9512
37.413267928, 96.390, 1734.0, 41.6413
37.439528493, 96.390, 1721.0, 41.4849
37.465789058, 96.390, 1750.0, 41.8330
37.492049624, 96.390, 1766.0, 42.0238
37.518310189, 96.390, 1759.0, 41.9404
37.544570754, 96.390, 1634.0, 40.4228
37.570831320, 96.390, 1811.0, 42.5558
37.597091885, 96.390, 1853.0, 43.0465
37.623352450, 96.390, 1904.0, 43.6348
37.649613016, 96.390, 1947.0, 44.1248
37.675873581, 96.390, 2152.0, 46.3897
37.702134147, 96.390, 2141.0, 46.2709
37.728394712, 96.390, 2340.0, 48.3735
37.754655277, 96.390, 2335.0, 48.3218
37.780915843, 96.390, 2283.0, 47.7807
37.807176408, 96.390, 2179.0, 46.6798
37.833436973, 96.390, 2144.0, 46.3033
37.859697539, 96.390, 2054.0, 45.3211
37.885958104, 96.390, 1861.0, 43.1393
37.912218669, 96.390, 1803.0, 42.4617
37.938479235, 96.390, 1774.0, 42.1189
37.964739800, 96.390, 1724.0, 41.5211
37.991000365, 96.390, 1674.0, 40.9145
38.017260931, 96.390, 1776.0, 42.1426
38.043521496, 96.390, 1760.0, 41.9524
38.069782061, 96.390, 1764.0, 42.0000
38.096042627, 96.390, 1770.0, 42.0714
38.122303192, 96.390, 1859.0, 43.1161
38.148563758, 96.390, 1904.0, 43.6348
38.174824323, 96.390, 1930.0, 43.9318
38.201084888, 96.390, 1942.0, 44.0681
38.227345454, 96.390, 1897.0, 43.5546
38.253606019, 96.390, 1775.0, 42.1307
38.279866584, 96.390, 1866.0, 43.1972
38.306127150, 96.390, 1780.0, 42.1900
38.332387715, 96.390, 1739.0, 41.7013
38.358648280, 96.390, 1723.0, 41.5090
38.384908846, 96.390, 1708.0, 41.3280
38.411169411, 96.390, 1720.0, 41.4729
38.437429976, 96.390, 1623.0, 40.2865
38.463690542, 96.390, 1675.0, 40.9268
38.489951107, 96.390, 1668.0, 40.8412
38.516211673, 96.390, 1682.0, 41.0122
38.542472238, 96.390, 1756.0, 41.9047
38.568732803, 96.390, 1666.0, 40.8167
38.594993369, 96.390, 1709.0, 41.3401
38.621253934, 96.390, 1689.0, 41.0974
38.647514499, 96.390, 1783.0, 42.2256
38.673775065, 96.390, 1810.0, 42.5441
38.700035630, 96.390, 1873.0, 43.2782
38.726296195, 96.390, 1989.0, 44.5982
38.752556761, 96.390, 2007.0, 44.7996
38.778817326, 96.390, 2108.0, 45.9130
38.805077891, 96.390, 2135.0, 46.2061
38.831338457, 96.390, 1977.0, 44.4635
38.857599022, 96.390, 1929.0, 43.9204
38.883859587, 96.390, 1979.0, 44.4860
38.910120153, 96.390, 1754.0, 41.8808
38.936380718, 96.390, 1672.0, 40.8901
38.962641284, 96.390, 1586.0, 39.8246
38.988901849, 96.390, 1647.0, 40.5832
39.015162414, 96.390, 1536.0, 39.1918
39.041422980, 96.390, 1562.0, 39.5221
39.067683545, 96.390, 1565.0, 39.5601
39.093944110, 96.390, 1561.0, 39.5095
39.120204676, 96.390, 1579.0, 39.7366
39.146465241, 96.390, 1576.0, 39.6989
39.172725806, 96.390, 1567.0, 39.5854
39.198986372, 96.390, 1548.0, 39.3446
39.225246937, 96.390, 1619.0, 40.2368
39.251507502, 96.390, 1662.0, 40.7676
39.277768068, 96.390, 1712.0, 41.3763
39.304028633, 96.390, 1795.0, 42.3674
39.330289199, 96.390, 1816.0, 42.6146
39.356549764, 96.390, 1908.0, 43.6807
39.382810329, 96.390, 2133.0, 46.1844
39.409070895, 96.390, 2360.0, 48.5798
39.435331460, 96.390, 2384.0, 48.8262
39.461592025, 96.390, 2240.0, 47.3286
39.487852591, 96.390, 2094.0, 45.7602
39.514113156, 96.390, 2054.0, 45.3211
39.540373721, 96.390, 1997.0, 44.6878
39.566634287, 96.390, 1839.0, 42.8836
39.592894852, 96.390, 1762.0, 41.9762
39.619155417, 96.390, 1631.0, 40.3856
39.645415983, 96.390, 1594.0, 39.9249
39.671676548, 96.390, 1559.0, 39.4842
39.697937113, 96.390, 1605.0, 40.0625
39.724197679, 96.390, 1570.0, 39.6232
39.750458244, 96.390, 1470.0, 38.3406
39.776718810, 96.390, 1530.0, 39.1152
39.802979375, 96.390, 1513.0, 38.8973
39.829239940, 96.390, 1468.0, 38.3145
39.855500506, 96.390, 1618.0, 40.2244
39.881761071, 96.390, 1540.0, 39.2428
39.908021636, 96.390, 1583.0, 39.7869
39.934282202, 96.390, 1487.0, 38.5616
39.960542767, 96.390, 1443.0, 37.9868
39.986803332, 96.390, 1527.0, 39.0768
40.013063898, 96.390, 1578.0, 39.7240
40.039324463, 96.390, 1579.0, 39.7366
40.065585028, 96.390, 1599.0, 39.9875
40.091845594, 96.390, 1649.0, 40.6079
40.118106159, 96.390, 1626.0, 40.3237
40.144366725, 96.390, 1661.0, 40.7554
40.170627290, 96.390, 1605.0, 40.0625
40.196887855, 96.390, 1601.0, 40.0125
40.223148421, 96.390, 1581.0, 39.7618
40.249408986, 96.390, 1526.0, 39.0640
40.275669551, 96.390, 1447.0, 38.0395
40.301930117, 96.390, 1472.0, 38.3667
40.328190682, 96.390, 1393.0, 37.3229
40.354451247, 96.390, 1496.0, 38.6782
40.380711813, 96.390, 1481.0, 38.4838
40.406972378, 96.390, 1429.0, 37.8021
40.433232943, 96.390, 1414.0, 37.6032
40.459493509, 96.390, 1396.0, 37.3631
40.485754074, 96.390, 1536.0, 39.1918
40.512014639, 96.390, 1480.0, 38.4708
40.538275205, 96.390, 1508.0, 38.8330
40.564535770, 96.390, 1575.0, 39.6863
40.590796336, 96.390, 1582.0, 39.7744
40.617056901, 96.390, 1624.0, 40.2989
40.643317466, 96.390, 1621.0, 40.2616
40.669578032, 96.390, 1536.0, 39.1918
40.695838597, 96.390, 1583.0, 39.7869
40.722099162, 96.390, 1451.0, 38.0920
40.748359728, 96.390, 1410.0, 37.5500
40.774620293, 96.390, 1429.0, 37.8021
40.800880858, 96.390, 1383.0, 37.1887
40.827141424, 96.390, 1435.0, 37.8814
40.853401989, 96.390, 1343.0, 36.6470
40.879662554, 96.390, 1395.0, 37.3497
40.905923120, 96.390, 1334.0, 36.5240
40.932183685, 96.390, 1365.0, 36.9459
40.958444251, 96.390, 1328.0, 36.4417
40.984704816, 96.390, 1372.0, 37.0405
41.010965381, 96.390, 1432.0, 37.8418
41.037225947, 96.390, 1416.0, 37.6298
41.063486512, 96.390, 1380.0, 37.1484
41.089747077, 96.390, 1387.0, 37.2424
41.116007643, 96.390, 1330.0, 36.4692
41.142268208, 96.390, 1452.0, 38.1051
41.168528773, 96.390, 1416.0, 37.6298
41.194789339, 96.390, 1382.0, 37.1753
41.221049904, 96.390, 1435.0, 37.8814
41.247310469, 96.390, 1550.0, 39.3700
41.273571035, 96.390, 1564.0, 39.5474
41.299831600, 96.390, 1712.0, 41.3763
41.326092165, 96.390, 1816.0, 42.6146
41.352352731, 96.390, 1955.0, 44.2154
41.378613296, 96.390, 2258.0, 47.5184
41.404873862, 96.390, 2192.0, 46.8188
41.431134427, 96.390, 2037.0, 45.1331
41.457394992, 96.390, 1787.0, 42.2729
41.483655558, 96.390, 1854.0, 43.0581
41.509916123, 96.390, 1713.0, 41.3884
41.536176688, 96.390, 1619.0, 40.2368
41.562437254, 96.390, 1453.0, 38.1182
41.588697819, 96.390, 1448.0, 38.0526
41.614958384, 96.390, 1357.0, 36.8375
41.641218950, 96.390, 1347.0, 36.7015
41.667479515, 96.390, 1284.0, 35.8329
41.693740080, 96.390, 1346.0, 36.6879
41.720000646, 96.390, 1333.0, 36.5103
41.746261211, 96.390, 1340.0, 36.6060
41.772521776, 96.390, 1288.0, 35.8887
41.798782342, 96.390, 1338.0, 36.5787
41.825042907, 96.390, 1297.0, 36.0139
41.851303473, 96.390, 1216.0, 34.8712
41.877564038, 96.390, 1257.0, 35.4542
41.903824603, 96.390, 1308.0, 36.1663
41.930085169, 96.390, 1262.0, 35.5246
41.956345734, 96.390, 1251.0, 35.3695
41.982606299, 96.390, 1348.0, 36.7151
42.008866865, 96.390, 1293.0, 35.9583
42.035127430, 96.390, 1405.0, 37.4833
42.061387995, 96.390, 1420.0, 37.6829
42.087648561, 96.390, 1474.0, 38.3927
42.113909126, 96.390, 1585.0, 39.8121
42.140169691, 96.390, 1619.0, 40.2368
42.166430257, 96.390, 1559.0, 39.4842
42.192690822, 96.390, 1556.0, 39.4462
42.218951388, 96.390, 1568.0, 39.5980
42.245211953, 96.390, 1550.0, 39.3700
42.271472518, 96.390, 1446.0, 38.0263
42.297733084, 96.390, 1428.0, 37.7889
42.323993649, 96.390, 1348.0, 36.7151
42.350254214, 96.390, 1343.0, 36.6470
42.376514780, 96.390, 1380.0, 37.1484
42.402775345, 96.390, 1258.0, 35.4683
42.429035910, 96.390, 1360.0, 36.8782
42.455296476, 96.390, 1401.0, 37.4299
42.481557041, 96.390, 1424.0, 37.7359
42.507817606, 96.390, 1447.0, 38.0395
42.534078172, 96.390, 1579.0, 39.7366
42.560338737, 96.390, 1520.0, 38.9872
42.586599302, 96.390, 1491.0, 38.6135
42.612859868, 96.390, 1495.0, 38.6652
42.639120433, 96.390, 1388.0, 37.2559
42.665380999, 96.390, 1479.0, 38.4578
42.691641564, 96.390, 1381.0, 37.1618
42.717902129, 96.390, 1364.0, 36.9324
42.744162695, 96.390, 1336.0, 36.5513
42.770423260, 96.390, 1325.0, 36.4005
42.796683825, 96.390, 1348.0, 36.7151
42.822944391, 96.390, 1295.0, 35.9861
42.849204956, 96.390, 1225.0, 35.0000
42.875465521, 96.390, 1343.0, 36.6470
42.901726087, 96.390, 1269.0, 35.6230
42.927986652, 96.390, 1297.0, 36.0139
42.954247217, 96.390, 1319.0, 36.3180
42.980507783, 96.390, 1301.0, 36.0694
43.006768348, 96.390, 1262.0, 35.5246
43.033028914, 96.390, 1230.0, 35.0714
43.059289479, 96.390, 1288.0, 35.8887
43.085550044, 96.390, 1243.0, 35.2562
43.111810610, 96.390, 1282.0, 35.8050
43.138071175, 96.390, 1238.0, 35.1852
43.164331740, 96.390, 1283.0, 35.8190
43.190592306, 96.390, 1270.0, 35.6371
43.216852871, 96.390, 1230.0, 35.0714
43.243113436, 96.390, 1266.0, 35.5809
43.269374002, 96.390, 1223.0, 34.9714
43.295634567, 96.390, 1160.0, 34.0588
43.321895132, 96.390, 1253.0, 35.3977
43.348155698, 96.390, 1273.0, 35.6791
43.374416263, 96.390, 1269.0, 35.6230
43.400676828, 96.390, 1317.0, 36.2905
43.426937394, 96.390, 1230.0, 35.0714
43.453197959, 96.390, 1247.0, 35.3129
43.479458525, 96.390, 1198.0, 34.6121
43.505719090, 96.390, 1264.0, 35.5528
43.531979655, 96.390, 1273.0, 35.6791
43.558240221, 96.390, 1367.0, 36.9730
43.584500786, 96.390, 1391.0, 37.2961
43.610761351, 96.390, 1367.0, 36.9730
43.637021917, 96.390, 1383.0, 37.1887
43.663282482, 96.390, 1554.0, 39.4208
43.689543047, 96.390, 1609.0, 40.1123
43.715803613, 96.390, 1892.0, 43.4971
43.742064178, 96.390, 2030.0, 45.0555
43.768324743, 96.390, 2154.0, 46.4112
43.794585309, 96.390, 2088.0, 45.6946
43.820845874, 96.390, 2012.0, 44.8553
43.847106440, 96.390, 1911.0, 43.7150
43.873367005, 96.390, 1850.0, 43.0116
43.899627570, 96.390, 1822.0, 42.6849
43.925888136, 96.390, 1686.0, 41.0609
43.952148701, 96.390, 1601.0, 40.0125
43.978409266, 96.390, 1512.0, 38.8844
44.004669832, 96.390, 1453.0, 38.1182
44.030930397, 96.390, 1385.0, 37.2156
44.057190962, 96.390, 1375.0, 37.0810
44.083451528, 96.390, 1387.0, 37.2424
44.109712093, 96.390, 1388.0, 37.2559
44.135972658, 96.390, 1342.0, 36.6333
44.162233224, 96.390, 1311.0, 36.2077
44.188493789, 96.390, 1342.0, 36.6333
44.214754354, 96.390, 1321.0, 36.3456
44.241014920, 96.390, 1351.0, 36.7560
44.267275485, 96.390, 1470.0, 38.3406
44.293536051, 96.390, 1492.0, 38.6264
44.319796616, 96.390, 1575.0, 39.6863
44.346057181, 96.390, 1637.0, 40.4599
44.372317747, 96.390, 1816.0, 42.6146
44.398578312, 96.390, 1747.0, 41.7971
44.424838877, 96.390, 1775.0, 42.1307
44.451099443, 96.390, 1718.0, 41.4488
44.477360008, 96.390, 1701.0, 41.2432
44.503620573, 96.390, 1537.0, 39.2046
44.529881139, 96.390, 1562.0, 39.5221
44.556141704, 96.390, 1460.0, 38.2099
44.582402269, 96.390, 1450.0, 38.0789
44.608662835, 96.390, 1340.0, 36.6060
44.634923400, 96.390, 1420.0, 37.6829
44.661183966, 96.390, 1342.0, 36.6333
44.687444531, 96.390, 1302.0, 36.0832
44.713705096, 96.390, 1385.0, 37.2156
44.739965662, 96.390, 1354.0, 36.7967
44.766226227, 96.390, 1392.0, 37.3095
44.792486792, 96.390, 1382.0, 37.1753
44.818747358, 96.390, 1460.0, 38.2099
44.845007923, 96.390, 1594.0, 39.9249
44.871268488, 96.390, 1459.0, 38.1969
44.897529054, 96.390, 1441.0, 37.9605
44.923789619, 96.390, 1452.0, 38.1051
44.950050184, 96.390, 1461.0, 38.2230
44.976310750, 96.390, 1432.0, 37.8418
45.002571315, 96.390, 1593.0, 39.9124
45.028831880, 96.390, 1571.0, 39.6358
45.055092446, 96.390, 1582.0, 39.7744
45.081353011, 96.390, 1748.0, 41.8091
45.107613577, 96.390, 1828.0, 42.7551
45.133874142, 96.390, 1881.0, 43.3705
45.160134707, 96.390, 1844.0, 42.9418
45.186395273, 96.390, 1782.0, 42.2137
45.212655838, 96.390, 1725.0, 41.5331
45.238916403, 96.390, 1750.0, 41.8330
45.265176969, 96.390, 1675.0, 40.9268
45.291437534, 96.390, 1853.0, 43.0465
45.317698099, 96.390, 1868.0, 43.2204
45.343958665, 96.390, 1868.0, 43.2204
45.370219230, 96.390, 1773.0, 42.1070
45.396479795, 96.390, 1816.0, 42.6146
45.422740361, 96.390, 1752.0, 41.8569
45.449000926, 96.390, 1918.0, 43.7950
45.475261492, 96.390, 1900.0, 43.5890
45.501522057, 96.390, 1864.0, 43.1741
45.527782622, 96.390, 1784.0, 42.2374
45.554043188, 96.390, 1615.0, 40.1871
45.580303753, 96.390, 1636.0, 40.4475
45.606564318, 96.390, 1653.0, 40.6571
45.632824884, 96.390, 1546.0, 39.3192
45.659085449, 96.390, 1536.0, 39.1918
45.685346014, 96.390, 1365.0, 36.9459
45.711606580, 96.390, 1440.0, 37.9473
45.737867145, 96.390, 1437.0, 37.9078
45.764127710, 96.390, 1366.0, 36.9594
45.790388276, 96.390, 1389.0, 37.2693
45.816648841, 96.390, 1456.0, 38.1576
45.842909406, 96.390, 1451.0, 38.0920
45.869169972, 96.390, 1412.0, 37.5766
45.895430537, 96.390, 1389.0, 37.2693
45.921691103, 96.390, 1407.0, 37.5100
45.947951668, 96.390, 1418.0, 37.6563
45.974212233, 96.390, 1528.0, 39.0896
46.000472799, 96.390, 1402.0, 37.4433
46.026733364, 96.390, 1418.0, 37.6563
46.052993929, 96.390, 1433.0, 37.8550
46.079254495, 96.390, 1422.0, 37.7094
46.105515060, 96.390, 1484.0, 38.5227
46.131775625, 96.390, 1506.0, 38.8072
46.158036191, 96.390, 1583.0, 39.7869
46.184296756, 96.390, 1549.0, 39.3573
46.210557321, 96.390, 1612.0, 40.1497
46.236817887, 96.390, 1724.0, 41.5211
46.263078452, 96.390, 1735.0, 41.6533
46.289339017, 96.390, 1759.0, 41.9404
46.315599583, 96.390, 1756.0, 41.9047
46.341860148, 96.390, 1652.0, 40.6448
46.368120714, 96.390, 1616.0, 40.1995
46.394381279, 96.390, 1676.0, 40.9390
46.420641844, 96.390, 1608.0, 40.0999
46.446902410, 96.390, 1520.0, 38.9872
46.473162975, 96.390, 1524.0, 39.0384
46.499423540, 96.390, 1396.0, 37.3631
46.525684106, 96.390, 1362.0, 36.9053
46.551944671, 96.390, 1406.0, 37.4967
46.578205236, 96.390, 1461.0, 38.2230
46.604465802, 96.390, 1380.0, 37.1484
46.630726367, 96.390, 1357.0, 36.8375
46.656986932, 96.390, 1396.0, 37.3631
46.683247498, 96.390, 1327.0, 36.4280
46.709508063, 96.390, 1326.0, 36.4143
46.735768629, 96.390, 1362.0, 36.9053
46.762029194, 96.390, 1446.0, 38.0263
46.788289759, 96.390, 1380.0, 37.1484
46.814550325, 96.390, 1334.0, 36.5240
46.840810890, 96.390, 1360.0, 36.8782
46.867071455, 96.390, 1416.0, 37.6298
46.893332021, 96.390, 1425.0, 37.7492
46.919592586, 96.390, 1398.0, 37.3898
46.945853151, 96.390, 1524.0, 39.0384
46.972113717, 96.390, 1567.0, 39.5854
46.998374282, 96.390, 1549.0, 39.3573
47.024634847, 96.390, 1502.0, 38.7556
47.050895413, 96.390, 1532.0, 39.1408
47.077155978, 96.390, 1512.0, 38.8844
47.103416543, 96.390, 1450.0, 38.0789
47.129677109, 96.390, 1473.0, 38.3797
47.155937674, 96.390, 1440.0, 37.9473
47.182198240, 96.390, 1374.0, 37.0675
47.208458805, 96.390, 1333.0, 36.5103
47.234719370, 96.390, 1361.0, 36.8917
47.260979936, 96.390, 1385.0, 37.2156
47.287240501, 96.390, 1403.0, 37.4566
47.313501066, 96.390, 1394.0, 37.3363
47.339761632, 96.390, 1332.0, 36.4966
47.366022197, 96.390, 1411.0, 37.5633
47.392282762, 96.390, 1309.0, 36.1801
47.418543328, 96.390, 1278.0, 35.7491
47.444803893, 96.390, 1259.0, 35.4824
47.471064458, 96.390, 1399.0, 37.4032
47.497325024, 96.390, 1330.0, 36.4692
47.523585589, 96.390, 1342.0, 36.6333
47.549846155, 96.390, 1276.0, 35.7211
47.576106720, 96.390, 1350.0, 36.7423
47.602367285, 96.390, 1297.0, 36.0139
47.628627851, 96.390, 1292.0, 35.9444
47.654888416, 96.390, 1306.0, 36.1386
47.681148981, 96.390, 1261.0, 35.5106
47.707409547, 96.390, 1230.0, 35.0714
47.733670112, 96.390, 1267.0, 35.5949
47.759930677, 96.390, 1216.0, 34.8712
47.786191243, 96.390, 1239.0, 35.1994
47.812451808, 96.390, 1309.0, 36.1801
47.838712373, 96.390, 1205.0, 34.7131
47.864972939, 96.390, 1186.0, 34.4384
47.891233504, 96.390, 1268.0, 35.6090
47.917494069, 96.390, 1289.0, 35.9026
47.943754635, 96.390, 1266.0, 35.5809
47.970015200, 96.390, 1306.0, 36.1386
47.996275766, 96.390, 1287.0, 35.8748
48.022536331, 96.390, 1412.0, 37.5766
48.048796896, 96.390, 1363.0, 36.9188
48.075057462, 96.390, 1405.0, 37.4833
48.101318027, 96.390, 1502.0, 38.7556
48.127578592, 96.390, 1470.0, 38.3406
48.153839158, 96.390, 1508.0, 38.8330
48.180099723, 96.390, 1460.0, 38.2099
48.206360288, 96.390, 1439.0, 37.9342
48.232620854, 96.390, 1380.0, 37.1484
48.258881419, 96.390, 1409.0, 37.5366
48.285141984, 96.390, 1392.0, 37.3095
48.311402550, 96.390, 1333.0, 36.5103
48.337663115, 96.390, 1315.0, 36.2629
48.363923681, 96.390, 1347.0, 36.7015
48.390184246, 96.390, 1354.0, 36.7967
48.416444811, 96.390, 1403.0, 37.4566
48.442705377, 96.390, 1443.0, 37.9868
48.468965942, 96.390, 1503.0, 38.7685
48.495226507, 96.390, 1526.0, 39.0640
48.521487073, 96.390, 1563.0, 39.5348
48.547747638, 96.390, 1492.0, 38.6264
48.574008203, 96.390, 1509.0, 38.8458
48.600268769, 96.390, 1369.0, 37.0000
48.626529334, 96.390, 1345.0, 36.6742
48.652789899, 96.390, 1357.0, 36.8375
48.679050465, 96.390, 1386.0, 37.2290
48.705311030, 96.390, 1227.0, 35.0286
48.731571595, 96.390, 1228.0, 35.0428
48.757832161, 96.390, 1217.0, 34.8855
48.784092726, 96.390, 1198.0, 34.6121
48.810353292, 96.390, 1192.0, 34.5254
48.836613857, 96.390, 1170.0, 34.2053
48.862874422, 96.390, 1186.0, 34.4384
48.889134988, 96.390, 1175.0, 34.2783
48.915395553, 96.390, 1208.0, 34.7563
48.941656118, 96.390, 1120.0, 33.4664
48.967916684, 96.390, 1211.0, 34.7994
48.994177249, 96.390, 1161.0, 34.0735
49.020437814, 96.390, 1245.0, 35.2846
49.046698380, 96.390, 1198.0, 34.6121
49.072958945, 96.390, 1109.0, 33.3017
49.099219510, 96.390, 1178.0, 34.3220
49.125480076, 96.390, 1169.0, 34.1906
49.151740641, 96.390, 1159.0, 34.0441
49.178001207, 96.390, 1217.0, 34.8855
49.204261772, 96.390, 1264.0, 35.5528
49.230522337, 96.390, 1149.0, 33.8969
49.256782903, 96.390, 1194.0, 34.5543
49.283043468, 96.390, 1234.0, 35.1283
49.309304033, 96.390, 1158.0, 34.0294
49.335564599, 96.390, 1178.0, 34.3220
49.361825164, 96.390, 1133.0, 33.6601
49.388085729, 96.390, 1119.0, 33.4515
49.414346295, 96.390, 1185.0, 34.4238
49.440606860, 96.390, 1169.0, 34.1906
49.466867425, 96.390, 1126.0, 33.5559
49.493127991, 96.390, 1170.0, 34.2053
49.519388556, 96.390, 1232.0, 35.0999
49.545649121, 96.390, 1236.0, 35.1568
49.571909687, 96.390, 1159.0, 34.0441
49.598170252, 96.390, 1134.0, 33.6749
49.624430818, 96.390, 1116.0, 33.4066
49.650691383, 96.390, 1182.0, 34.3802
49.676951948, 96.390, 1201.0, 34.6554
49.703212514, 96.390, 1163.0, 34.1028
49.729473079, 96.390, 1091.0, 33.0303
49.755733644, 96.390, 1118.0, 33.4365
49.781994210, 96.390, 1118.0, 33.4365
49.808254775, 96.390, 1171.0, 34.2199
49.834515340, 96.390, 1112.0, 33.3467
49.860775906, 96.390, 1100.0, 33.1662
49.887036471, 96.390, 1122.0, 33.4963
49.913297036, 96.390, 1126.0, 33.5559
49.939557602, 96.390, 1139.0, 33.7491
49.965818167, 96.390, 1060.0, 32.5576
49.992078732, 96.390, 1150.0, 33.9116
50.018339298, 96.390, 1067.0, 32.6650
50.044599863, 96.390, 1130.0, 33.6155
50.070860429, 96.390, 1095.0, 33.0908
50.097120994, 96.390, 1181.0, 34.3657
50.123381559, 96.390, 1122.0, 33.4963
50.149642125, 96.390, 1224.0, 34.9857
50.175902690, 96.390, 1254.0, 35.4119
50.202163255, 96.390, 1341.0, 36.6197
50.228423821, 96.390, 1458.0, 38.1838
50.254684386, 96.390, 1477.0, 38.4318
50.280944951, 96.390, 1475.0, 38.4057
50.307205517, 96.390, 1326.0, 36.4143
50.333466082, 96.390, 1303.0, 36.0971
50.359726647, 96.390, 1298.0, 36.0278
50.385987213, 96.390, 1311.0, 36.2077
50.412247778, 96.390, 1250.0, 35.3553
50.438508344, 96.390, 1161.0, 34.0735
50.464768909, 96.390, 1152.0, 33.9411
50.491029474, 96.390, 1187.0, 34.4529
50.517290040, 96.390, 1111.0, 33.3317
50.543550605, 96.390, 1052.0, 32.4345
50.569811170, 96.390, 1126.0, 33.5559
50.596071736, 96.390, 1049.0, 32.3883
50.622332301, 96.390, 1140.0, 33.7639
50.648592866, 96.390, 1079.0, 32.8481
50.674853432, 96.390, 1097.0, 33.1210
50.701113997, 96.390, 1203.0, 34.6843
50.727374562, 96.390, 1095.0, 33.0908
50.753635128, 96.390, 1057.0, 32.5115
50.779895693, 96.390, 1114.0, 33.3766
50.806156258, 96.390, 1055.0, 32.4808
50.832416824, 96.390, 1070.0, 32.7109
50.858677389, 96.390, 1045.0, 32.3265
50.884937955, 96.390, 1080.0, 32.8634
50.911198520, 96.390, 1067.0, 32.6650
50.937459085, 96.390, 1082.0, 32.8938
50.963719651, 96.390, 1088.0, 32.9848
50.989980216, 96.390, 1074.0, 32.7719
51.016240781, 96.390, 1039.0, 32.2335
51.042501347, 96.390, 1105.0, 33.2415
51.068761912, 96.390, 1099.0, 33.1512
51.095022477, 96.390, 1105.0, 33.2415
51.121283043, 96.390, 1104.0, 33.2265
51.147543608, 96.390, 1213.0, 34.8281
51.173804173, 96.390, 1120.0, 33.4664
51.200064739, 96.390, 1285.0, 35.8469
51.226325304, 96.390, 1241.0, 35.2278
51.252585870, 96.390, 1188.0, 34.4674
51.278846435, 96.390, 1182.0, 34.3802
51.305107000, 96.390, 1223.0, 34.9714
51.331367566, 96.390, 1160.0, 34.0588
51.357628131, 96.390, 1144.0, 33.8231
51.383888696, 96.390, 1150.0, 33.9116
51.410149262, 96.390, 1051.0, 32.4191
51.436409827, 96.390, 1059.0, 32.5423
51.462670392, 96.390, 1014.0, 31.8434
51.488930958, 96.390, 1003.0, 31.6702
51.515191523, 96.390, 1069.0, 32.6956
51.541452088, 96.390, 946.0, 30.7571
51.567712654, 96.390, 993.0, 31.5119
51.593973219, 96.390, 999.0, 31.6070
51.620233784, 96.390, 1032.0, 32.1248
51.646494350, 96.390, 1006.0, 31.7175
51.672754915, 96.390, 1041.0, 32.2645
51.699015481, 96.390, 1064.0, 32.6190
51.725276046, 96.390, 1056.0, 32.4962
51.751536611, 96.390, 1087.0, 32.9697
51.777797177, 96.390, 1033.0, 32.1403
51.804057742, 96.390, 1062.0, 32.5883
51.830318307, 96.390, 1110.0, 33.3167
51.856578873, 96.390, 1137.0, 33.7194
51.882839438, 96.390, 1121.0, 33.4813
51.909100003, 96.390, 1099.0, 33.1512
51.935360569, 96.390, 1149.0, 33.8969
51.961621134, 96.390, 1101.0, 33.1813
51.987881699, 96.390, 1056.0, 32.4962
52.014142265, 96.390, 1087.0, 32.9697
52.040402830, 96.390, 1116.0, 33.4066
52.066663396, 96.390, 1147.0, 33.8674
52.092923961, 96.390, 1170.0, 34.2053
52.119184526, 96.390, 1185.0, 34.4238
52.145445092, 96.390, 1279.0, 35.7631
52.171705657, 96.390, 1322.0, 36.3593
52.197966222, 96.390, 1386.0, 37.2290
52.224226788, 96.390, 1435.0, 37.8814
52.250487353, 96.390, 1443.0, 37.9868
52.276747918, 96.390, 1406.0, 37.4967
52.303008484, 96.390, 1420.0, 37.6829
52.329269049, 96.390, 1335.0, 36.5377
52.355529614, 96.390, 1253.0, 35.3977
52.381790180, 96.390, 1302.0, 36.0832
52.408050745, 96.390, 1286.0, 35.8608
52.434311310, 96.390, 1113.0, 33.3617
52.460571876, 96.390, 1162.0, 34.0881
52.486832441, 96.390, 1091.0, 33.0303
52.513093007, 96.390, 1071.0, 32.7261
52.539353572, 96.390, 1057.0, 32.5115
52.565614137, 96.390, 994.0, 31.5278
52.591874703, 96.390, 1023.0, 31.9844
52.618135268, 96.390, 1037.0, 32.2025
52.644395833, 96.390, 1027.0, 32.0468
52.670656399, 96.390, 1038.0, 32.2180
52.696916964, 96.390, 1103.0, 33.2114
52.723177529, 96.390, 1102.0, 33.1964
52.749438095, 96.390, 1114.0, 33.3766
52.775698660, 96.390, 1081.0, 32.8786
52.801959225, 96.390, 1103.0, 33.2114
52.828219791, 96.390, 1098.0, 33.1361
52.854480356, 96.390, 1081.0, 32.8786
52.880740922, 96.390, 1103.0, 33.2114
52.907001487, 96.390, 1072.0, 32.7414
52.933262052, 96.390, 1087.0, 32.9697
52.959522618, 96.390, 1114.0, 33.3766
52.985783183, 96.390, 1020.0, 31.9374
53.012043748, 96.390, 1013.0, 31.8277
53.038304314, 96.390, 1001.0, 31.6386
53.064564879, 96.390, 1000.0, 31.6228
53.090825444, 96.390, 1070.0, 32.7109
53.117086010, 96.390, 998.0, 31.5911
53.143346575, 96.390, 1034.0, 32.1559
53.169607140, 96.390, 1092.0, 33.0454
53.195867706, 96.390, 1052.0, 32.4345
53.222128271, 96.390, 1076.0, 32.8024
53.248388836, 96.390, 1086.0, 32.9545
53.274649402, 96.390, 1040.0, 32.2490
53.300909967, 96.390, 1093.0, 33.0606
53.327170533, 96.390, 1106.0, 33.2566
53.353431098, 96.390, 1081.0, 32.8786
53.379691663, 96.390, 1069.0, 32.6956
53.405952229, 96.390, 1077.0, 32.8177
53.432212794, 96.390, 1039.0, 32.2335
53.458473359, 96.390, 1043.0, 32.2955
53.484733925, 96.390, 1011.0, 31.7962
53.510994490, 96.390, 1062.0, 32.5883
53.537255055, 96.390, 1014.0, 31.8434
53.563515621, 96.390, 983.0, 31.3528
53.589776186, 96.390, 1014.0, 31.8434
53.616036751, 96.390, 1033.0, 32.1403
53.642297317, 96.390, 940.0, 30.6594
53.668557882, 96.390, 949.0, 30.8058
53.694818448, 96.390, 911.0, 30.1828
53.721079013, 96.390, 952.0, 30.8545
53.747339578, 96.390, 970.0, 31.1448
53.773600144, 96.390, 915.0, 30.2490
53.799860709, 96.390, 923.0, 30.3809
53.826121274, 96.390, 930.0, 30.4959
53.852381840, 96.390, 983.0, 31.3528
53.878642405, 96.390, 940.0, 30.6594
53.904902970, 96.390, 1016.0, 31.8748
53.931163536, 96.390, 1007.0, 31.7333
53.957424101, 96.390, 958.0, 30.9516
53.983684666, 96.390, 973.0, 31.1929
54.009945232, 96.390, 1044.0, 32.3110
54.036205797, 96.390, 1050.0, 32.4037
54.062466362, 96.390, 1104.0, 33.2265
54.088726928, 96.390, 1119.0, 33.4515
54.114987493, 96.390, 1155.0, 33.9853
54.141248059, 96.390, 1146.0, 33.8526
54.167508624, 96.390, 1184.0, 34.4093
54.193769189, 96.390, 1198.0, 34.6121
54.220029755, 96.390, 1113.0, 33.3617
54.246290320, 96.390, 1116.0, 33.4066
54.272550885, 96.390, 1134.0, 33.6749
54.298811451, 96.390, 1164.0, 34.1174
54.325072016, 96.390, 1245.0, 35.2846
54.351332581, 96.390, 1167.0, 34.1614
54.377593147, 96.390, 1110.0, 33.3167
54.403853712, 96.390, 1066.0, 32.6497
54.430114277, 96.390, 1039.0, 32.2335
54.456374843, 96.390, 1024.0, 32.0000
54.482635408, 96.390, 958.0, 30.9516
54.508895973, 96.390, 1057.0, 32.5115
54.535156539, 96.390, 981.0, 31.3209
54.561417104, 96.390, 1058.0, 32.5269
54.587677670, 96.390, 969.0, 31.1288
54.613938235, 96.390, 994.0, 31.5278
54.640198800, 96.390, 944.0, 30.7246
54.666459366, 96.390, 914.0, 30.2324
54.692719931, 96.390, 837.0, 28.9310
54.718980496, 96.390, 962.0, 31.0161
54.745241062, 96.390, 930.0, 30.4959
54.771501627, 96.390, 909.0, 30.1496
54.797762192, 96.390, 885.0, 29.7489
54.824022758, 96.390, 941.0, 30.6757
54.850283323, 96.390, 869.0, 29.4788
54.876543888, 96.390, 911.0, 30.1828
54.902804454, 96.390, 928.0, 30.4631
54.929065019, 96.390, 916.0, 30.2655
54.955325585, 96.390, 921.0, 30.3480
54.981586150, 96.390, 972.0, 31.1769
55.007846715, 96.390, 890.0, 29.8329
55.034107281, 96.390, 907.0, 30.1164
55.060367846, 96.390, 874.0, 29.5635
55.086628411, 96.390, 910.0, 30.1662
55.112888977, 96.390, 934.0, 30.5614
55.139149542, 96.390, 933.0, 30.5450
55.165410107, 96.390, 817.0, 28.5832
55.191670673, 96.390, 868.0, 29.4618
55.217931238, 96.390, 859.0, 29.3087
55.244191803, 96.390, 916.0, 30.2655
55.270452369, 96.390, 901.0, 30.0167
55.296712934, 96.390, 912.0, 30.1993
55.322973499, 96.390, 850.0, 29.1548
55.349234065, 96.390, 955.0, 30.9031
55.375494630, 96.390, 946.0, 30.7571
55.401755196, 96.390, 888.0, 29.7993
55.428015761, 96.390, 939.0, 30.6431
55.454276326, 96.390, 947.0, 30.7734
55.480536892, 96.390, 950.0, 30.8221
55.506797457, 96.390, 921.0, 30.3480
55.533058022, 96.390, 1029.0, 32.0780
55.559318588, 96.390, 1013.0, 31.8277
55.585579153, 96.390, 1062.0, 32.5883
55.611839718, 96.390, 1047.0, 32.3574
55.638100284, 96.390, 953.0, 30.8707
55.664360849, 96.390, 969.0, 31.1288
55.690621414, 96.390, 983.0, 31.3528
55.716881980, 96.390, 944.0, 30.7246
55.743142545, 96.390, 972.0, 31.1769
55.769403111, 96.390, 996.0, 31.5595
55.795663676, 96.390, 990.0, 31.4643
55.821924241, 96.390, 887.0, 29.7825
55.848184807, 96.390, 938.0, 30.6268
55.874445372, 96.390, 964.0, 31.0483
55.900705937, 96.390, 940.0, 30.6594
55.926966503, 96.390, 886.0, 29.7658
55.953227068, 96.390, 886.0, 29.7658
55.979487633, 96.390, 919.0, 30.3150
56.005748199, 96.390, 917.0, 30.2820
56.032008764, 96.390, 884.0, 29.7321
56.058269329, 96.390, 947.0, 30.7734
56.084529895, 96.390, 894.0, 29.8998
56.110790460, 96.390, 947.0, 30.7734
56.137051025, 96.390, 929.0, 30.4795
56.163311591, 96.390, 837.0, 28.9310
56.189572156, 96.390, 913.0, 30.2159
56.215832722, 96.390, 919.0, 30.3150
56.242093287, 96.390, 921.0, 30.3480
56.268353852, 96.390, 870.0, 29.4958
56.294614418, 96.390, 973.0, 31.1929
56.320874983, 96.390, 861.0, 29.3428
56.347135548, 96.390, 888.0, 29.7993
56.373396114, 96.390, 902.0, 30.0333
56.399656679, 96.390, 856.0, 29.2575
56.425917244, 96.390, 898.0, 29.9666
56.452177810, 96.390, 905.0, 30.0832
56.478438375, 96.390, 853.0, 29.2062
56.504698940, 96.390, 885.0, 29.7489
56.530959506, 96.390, 850.0, 29.1548
56.557220071, 96.390, 886.0, 29.7658
56.583480637, 96.390, 863.0, 29.3769
56.609741202, 96.390, 858.0, 29.2916
56.636001767, 96.390, 903.0, 30.0500
56.662262333, 96.390, 931.0, 30.5123
56.688522898, 96.390, 921.0, 30.3480
56.714783463, 96.390, 867.0, 29.4449
56.741044029, 96.390, 863.0, 29.3769
56.767304594, 96.390, 817.0, 28.5832
56.793565159, 96.390, 859.0, 29.3087
56.819825725, 96.390, 892.0, 29.8664
56.846086290, 96.390, 866.0, 29.4279
56.872346855, 96.390, 855.0, 29.2404
56.898607421, 96.390, 878.0, 29.6311
56.924867986, 96.390, 881.0, 29.6816
56.951128551, 96.390, 950.0, 30.8221
56.977389117, 96.390, 887.0, 29.7825
57.003649682, 96.390, 833.0, 28.8617
57.029910248, 96.390, 883.0, 29.7153
57.056170813, 96.390, 865.0, 29.4109
57.082431378, 96.390, 854.0, 29.2233
57.108691944, 96.390, 872.0, 29.5296
57.134952509, 96.390, 914.0, 30.2324
57.161213074, 96.390, 854.0, 29.2233
57.187473640, 96.390, 882.0, 29.6985
57.213734205, 96.390, 780.0, 27.9285
57.239994770, 96.390, 874.0, 29.5635
57.266255336, 96.390, 902.0, 30.0333
57.292515901, 96.390, 874.0, 29.5635
57.318776466, 96.390, 855.0, 29.2404
57.345037032, 96.390, 893.0, 29.8831
57.371297597, 96.390, 908.0, 30.1330
57.397558163, 96.390, 886.0, 29.7658
57.423818728, 96.390, 973.0, 31.1929
57.450079293, 96.390, 875.0, 29.5804
57.476339859, 96.390, 890.0, 29.8329
57.502600424, 96.390, 891.0, 29.8496
57.528860989, 96.390, 873.0, 29.5466
57.555121555, 96.390, 901.0, 30.0167
57.581382120, 96.390, 870.0, 29.4958
57.607642685, 96.390, 873.0, 29.5466
57.633903251, 96.390, 933.0, 30.5450
57.660163816, 96.390, 886.0, 29.7658
57.686424381, 96.390, 854.0, 29.2233
57.712684947, 96.390, 802.0, 28.3196
57.738945512, 96.390, 887.0, 29.7825
57.765206077, 96.390, 889.0, 29.8161
57.791466643, 96.390, 859.0, 29.3087
57.817727208, 96.390, 949.0, 30.8058
57.843987774, 96.390, 899.0, 29.9833
57.870248339, 96.390, 899.0, 29.9833
57.896508904, 96.390, 939.0, 30.6431
57.922769470, 96.390, 992.0, 31.4960
57.949030035, 96.390, 960.0, 30.9839
57.975290600, 96.390, 1003.0, 31.6702
58.001551166, 96.390, 1048.0, 32.3728
58.027811731, 96.390, 1154.0, 33.9706
58.054072296, 96.390, 1237.0, 35.1710
58.080332862, 96.390, 1158.0, 34.0294
58.106593427, 96.390, 1165.0, 34.1321
58.132853992, 96.390, 1016.0, 31.8748
58.159114558, 96.390, 1044.0, 32.3110
58.185375123, 96.390, 1047.0, 32.3574
58.211635689, 96.390, 1002.0, 31.6544
58.237896254, 96.390, 1059.0, 32.5423
58.264156819, 96.390, 969.0, 31.1288
58.290417385, 96.390, 939.0, 30.6431
58.316677950, 96.390, 915.0, 30.2490
58.342938515, 96.390, 838.0, 28.9482
58.369199081, 96.390, 936.0, 30.5941
58.395459646, 96.390, 873.0, 29.5466
58.421720211, 96.390, 850.0, 29.1548
58.447980777, 96.390, 910.0, 30.1662
58.474241342, 96.390, 874.0, 29.5635
58.500501907, 96.390, 933.0, 30.5450
58.526762473, 96.390, 834.0, 28.8791
58.553023038, 96.390, 891.0, 29.8496
58.579283603, 96.390, 866.0, 29.4279
58.605544169, 96.390, 921.0, 30.3480
58.631804734, 96.390, 911.0, 30.1828
58.658065300, 96.390, 918.0, 30.2985
58.684325865, 96.390, 914.0, 30.2324
58.710586430, 96.390, 931.0, 30.5123
58.736846996, 96.390, 908.0, 30.1330
58.763107561, 96.390, 882.0, 29.6985
58.789368126, 96.390, 906.0, 30.0998
58.815628692, 96.390, 865.0, 29.4109
58.841889257, 96.390, 843.0, 29.0345
58.868149822, 96.390, 848.0, 29.1204
58.894410388, 96.390, 865.0, 29.4109
58.920670953, 96.390, 857.0, 29.2746
58.946931518, 96.390, 852.0, 29.1890
58.973192084, 96.390, 861.0, 29.3428
58.999452649, 96.390, 882.0, 29.6985
59.025713214, 96.390, 872.0, 29.5296
59.051973780, 96.390, 867.0, 29.4449
59.078234345, 96.390, 891.0, 29.8496
59.104494911, 96.390, 866.0, 29.4279
59.130755476, 96.390, 881.0, 29.6816
59.157016041, 96.390, 872.0, 29.5296
59.183276607, 96.390, 903.0, 30.0500
59.209537172, 96.390, 991.0, 31.4802
59.235797737, 96.390, 943.0, 30.7083
59.262058303, 96.390, 952.0, 30.8545
59.288318868, 96.390, 1013.0, 31.8277
59.314579433, 96.390, 962.0, 31.0161
59.340839999, 96.390, 988.0, 31.4325
59.367100564, 96.390, 900.0, 30.0000
59.393361129, 96.390, 953.0, 30.8707
59.419621695, 96.390, 994.0, 31.5278
59.445882260, 96.390, 891.0, 29.8496
59.472142826, 96.390, 1019.0, 31.9218
59.498403391, 96.390, 993.0, 31.5119
59.524663956, 96.390, 972.0, 31.1769
59.550924522, 96.390, 955.0, 30.9031
59.577185087, 96.390, 942.0, 30.6920
59.603445652, 96.390, 945.0, 30.7409
59.629706218, 96.390, 968.0, 31.1127
59.655966783, 96.390, 929.0, 30.4795
59.682227348, 96.390, 995.0, 31.5436
59.708487914, 96.390, 1002.0, 31.6544
59.734748479, 96.390, 981.0, 31.3209
59.761009044, 96.390, 1010.0, 31.7805
59.787269610, 96.390, 976.0, 31.2410
59.813530175, 96.390, 1006.0, 31.7175
59.839790740, 96.390, 1068.0, 32.6803
59.866051306, 96.390, 1029.0, 32.0780
59.892311871, 96.390, 978.0, 31.2730
59.918572437, 96.390, 1094.0, 33.0757
59.944833002, 96.390, 1061.0, 32.5730
59.971093567, 96.390, 1074.0, 32.7719
59.997354133, 96.390, 1139.0, 33.7491
60.023614698, 96.390, 1018.0, 31.9061
60.049875263, 96.390, 1082.0, 32.8938
60.076135829, 96.390, 1090.0, 33.0151
60.102396394, 96.390, 1114.0, 33.3766
60.128656959, 96.390, 1082.0, 32.8938
60.154917525, 96.390, 1146.0, 33.8526
60.181178090, 96.390, 1101.0, 33.1813
60.207438655, 96.390, 1104.0, 33.2265
60.233699221, 96.390, 1113.0, 33.3617
60.259959786, 96.390, 1111.0, 33.3317
60.286220352, 96.390, 1123.0, 33.5112
60.312480917, 96.390, 1129.0, 33.6006
60.338741482, 96.390, 1066.0, 32.6497
60.365002048, 96.390, 1075.0, 32.7872
60.391262613, 96.390, 1107.0, 33.2716
60.417523178, 96.390, 1137.0, 33.7194
60.443783744, 96.390, 1116.0, 33.4066
60.470044309, 96.390, 1092.0, 33.0454
60.496304874, 96.390, 1156.0, 34.0000
60.522565440, 96.390, 1183.0, 34.3948
60.548826005, 96.390, 1153.0, 33.9559
60.575086570, 96.390, 1220.0, 34.9285
60.601347136, 96.390, 1174.0, 34.2637
60.627607701, 96.390, 1149.0, 33.8969
60.653868266, 96.390, 1189.0, 34.4819
60.680128832, 96.390, 1227.0, 35.0286
60.706389397, 96.390, 1228.0, 35.0428
60.732649963, 96.390, 1221.0, 34.9428
60.758910528, 96.390, 1224.0, 34.9857
60.785171093, 96.390, 1211.0, 34.7994
60.811431659, 96.390, 1267.0, 35.5949
60.837692224, 96.390, 1292.0, 35.9444
60.863952789, 96.390, 1286.0, 35.8608
60.890213355, 96.390, 1228.0, 35.0428
60.916473920, 96.390, 1285.0, 35.8469
60.942734485, 96.390, 1283.0, 35.8190
60.968995051, 96.390, 1227.0, 35.0286
60.995255616, 96.390, 1278.0, 35.7491
61.021516181, 96.390, 1342.0, 36.6333
61.047776747, 96.390, 1306.0, 36.1386
61.074037312, 96.390, 1324.0, 36.3868
61.100297878, 96.390, 1310.0, 36.1939
61.126558443, 96.390, 1363.0, 36.9188
61.152819008, 96.390, 1372.0, 37.0405
61.179079574, 96.390, 1360.0, 36.8782
61.205340139, 96.390, 1320.0, 36.3318
61.231600704, 96.390, 1369.0, 37.0000
61.257861270, 96.390, 1292.0, 35.9444
61.284121835, 96.390, 1342.0, 36.6333
61.310382400, 96.390, 1310.0, 36.1939
61.336642966, 96.390, 1340.0, 36.6060
61.362903531, 96.390, 1289.0, 35.9026
61.389164096, 96.390, 1382.0, 37.1753
61.415424662, 96.390, 1404.0, 37.4700
61.441685227, 96.390, 1444.0, 38.0000
61.467945792, 96.390, 1474.0, 38.3927
61.494206358, 96.390, 1477.0, 38.4318
61.520466923, 96.390, 1480.0, 38.4708
61.546727489, 96.390, 1463.0, 38.2492
61.572988054, 96.390, 1379.0, 37.1349
61.599248619, 96.390, 1316.0, 36.2767
61.625509185, 96.390, 1351.0, 36.7560
61.651769750, 96.390, 1305.0, 36.1248
61.678030315, 96.390, 1349.0, 36.7287
61.704290881, 96.390, 1325.0, 36.4005
61.730551446, 96.390, 1314.0, 36.2491
61.756812011, 96.390, 1233.0, 35.1141
61.783072577, 96.390, 1320.0, 36.3318
61.809333142, 96.390, 1296.0, 36.0000
61.835593707, 96.390, 1236.0, 35.1568
61.861854273, 96.390, 1261.0, 35.5106
61.888114838, 96.390, 1301.0, 36.0694
61.914375404, 96.390, 1277.0, 35.7351
61.940635969, 96.390, 1204.0, 34.6987
61.966896534, 96.390, 1224.0, 34.9857
61.993157100, 96.390, 1193.0, 34.5398
62.019417665, 96.390, 1232.0, 35.0999
62.045678230, 96.390, 1173.0, 34.2491
62.071938796, 96.390, 1173.0, 34.2491
62.098199361, 96.390, 1199.0, 34.6266
62.124459926, 96.390, 1217.0, 34.8855
62.150720492, 96.390, 1121.0, 33.4813
62.176981057, 96.390, 1163.0, 34.1028
62.203241622, 96.390, 1216.0, 34.8712
62.229502188, 96.390, 1112.0, 33.3467
62.255762753, 96.390, 1130.0, 33.6155
62.282023318, 96.390, 1068.0, 32.6803
62.308283884, 96.390, 1142.0, 33.7935
62.334544449, 96.390, 1143.0, 33.8083
62.360805015, 96.390, 1167.0, 34.1614
62.387065580, 96.390, 1084.0, 32.9242
62.413326145, 96.390, 1080.0, 32.8634
62.439586711, 96.390, 1112.0, 33.3467
62.465847276, 96.390, 1098.0, 33.1361
62.492107841, 96.390, 1075.0, 32.7872
62.518368407, 96.390, 1106.0, 33.2566
62.544628972, 96.390, 1076.0, 32.8024
62.570889537, 96.390, 1093.0, 33.0606
62.597150103, 96.390, 1146.0, 33.8526
62.623410668, 96.390, 1154.0, 33.9706
62.649671233, 96.390, 1140.0, 33.7639
62.675931799, 96.390, 1157.0, 34.0147
62.702192364, 96.390, 1189.0, 34.4819
62.728452930, 96.390, 1207.0, 34.7419
62.754713495, 96.390, 1067.0, 32.6650
62.780974060, 96.390, 1096.0, 33.1059
62.807234626, 96.390, 1057.0, 32.5115
62.833495191, 96.390, 1142.0, 33.7935
62.859755756, 96.390, 1055.0, 32.4808
62.886016322, 96.390, 1166.0, 34.1467
62.912276887, 96.390, 984.0, 31.3688
62.938537452, 96.390, 1022.0, 31.9687
62.964798018, 96.390, 990.0, 31.4643
62.991058583, 96.390, 961.0, 31.0000
63.017319148, 96.390, 900.0, 30.0000
63.043579714, 96.390, 957.0, 30.9354
63.069840279, 96.390, 921.0, 30.3480
63.096100844, 96.390, 893.0, 29.8831
63.122361410, 96.390, 886.0, 29.7658
63.148621975, 96.390, 924.0, 30.3974
63.174882541, 96.390, 890.0, 29.8329
63.201143106, 96.390, 885.0, 29.7489
63.227403671, 96.390, 832.0, 28.8444
63.253664237, 96.390, 921.0, 30.3480
63.279924802, 96.390, 890.0, 29.8329
63.306185367, 96.390, 878.0, 29.6311
63.332445933, 96.390, 935.0, 30.5778
63.358706498, 96.390, 868.0, 29.4618
63.384967063, 96.390, 883.0, 29.7153
63.411227629, 96.390, 895.0, 29.9166
63.437488194, 96.390, 842.0, 29.0172
63.463748759, 96.390, 821.0, 28.6531
63.490009325, 96.390, 824.0, 28.7054
63.516269890, 96.390, 898.0, 29.9666
63.542530455, 96.390, 832.0, 28.8444
63.568791021, 96.390, 881.0, 29.6816
63.595051586, 96.390, 922.0, 30.3645
63.621312152, 96.390, 887.0, 29.7825
63.647572717, 96.390, 847.0, 29.1033
63.673833282, 96.390, 930.0, 30.4959
63.700093848, 96.390, 945.0, 30.7409
63.726354413, 96.390, 888.0, 29.7993
63.752614978, 96.390, 924.0, 30.3974
63.778875544, 96.390, 940.0, 30.6594
63.805136109, 96.390, 960.0, 30.9839
63.831396674, 96.390, 963.0, 31.0322
63.857657240, 96.390, 1001.0, 31.6386
63.883917805, 96.390, 911.0, 30.1828
63.910178370, 96.390, 909.0, 30.1496
63.936438936, 96.390, 903.0, 30.0500
63.962699501, 96.390, 901.0, 30.0167
63.988960067, 96.390, 900.0, 30.0000
64.015220632, 96.390, 943.0, 30.7083
64.041481197, 96.390, 861.0, 29.3428
64.067741763, 96.390, 893.0, 29.8831
64.094002328, 96.390, 869.0, 29.4788
64.120262893, 96.390, 888.0, 29.7993
64.146523459, 96.390, 882.0, 29.6985
64.172784024, 96.390, 930.0, 30.4959
64.199044589, 96.390, 882.0, 29.6985
64.225305155, 96.390, 895.0, 29.9166
64.251565720, 96.390, 876.0, 29.5973
64.277826285, 96.390, 916.0, 30.2655
64.304086851, 96.390, 868.0, 29.4618
64.330347416, 96.390, 897.0, 29.9500
64.356607981, 96.390, 887.0, 29.7825
64.382868547, 96.390, 854.0, 29.2233
64.409129112, 96.390, 887.0, 29.7825
64.435389678, 96.390, 851.0, 29.1719
64.461650243, 96.390, 844.0, 29.0517
64.487910808, 96.390, 782.0, 27.9643
64.514171374, 96.390, 814.0, 28.5307
64.540431939, 96.390, 776.0, 27.8568
64.566692504, 96.390, 748.0, 27.3496
64.592953070, 96.390, 838.0, 28.9482
64.619213635, 96.390, 810.0, 28.4605
64.645474200, 96.390, 841.0, 29.0000
64.671734766, 96.390, 794.0, 28.1780
64.697995331, 96.390, 756.0, 27.4955
64.724255896, 96.390, 772.0, 27.7849
64.750516462, 96.390, 751.0, 27.4044
64.776777027, 96.390, 838.0, 28.9482
64.803037593, 96.390, 808.0, 28.4253
64.829298158, 96.390, 763.0, 27.6225
64.855558723, 96.390, 780.0, 27.9285
64.881819289, 96.390, 788.0, 28.0713
64.908079854, 96.390, 756.0, 27.4955
64.934340419, 96.390, 823.0, 28.6880
64.960600985, 96.390, 815.0, 28.5482
64.986861550, 96.390, 821.0, 28.6531
