[Measurement conditions]
Sample identification,XRD_AlCorner27Oct21_Act08Jan22_B1_0833M_NaOH_LS0143_1
Comment - 1,"Configuration=Stage for Flat Samples/Holders, Owner=User-1, Creation date=7/1/2020 9:53:24 AM"
Comment - 2,"Goniometer=Theta/Theta; Minimum step size 2Theta:0.0001; Minimum step size Omega:0.0001"
Comment - 3,"Sample stage=Stage for flat samples/holders"
Comment - 4,"Diffractometer system=EMPYREAN"
Comment - 5,"Measurement program=C:\Users\ibo5034\OneDrive - The Pennsylvania State University\NEUP - Reed, Titus's files\XRD\Cement\Zerobackground scan.xrdmp, Identifier={98A3B11C-88F9-4AA6-982C-73314A311EF5}"
Anode material,Cu
K-Alpha1 wavelength,1.5405980
K-Alpha2 wavelength,1.5444260
Ratio K-Alpha2/K-Alpha1,0.500
Divergence slit,Fixed,0.25
Monochromator used,NO
Generator voltage, 45
Tube current, 40
File date and time,11/Jan/2022 12:49
Unit cell,
h k l, 0 0 0
Scan axis,Gonio
Scan range,4.994599997,64.999991833
Scan step size,0.0262606
No. of points, 2285
Scan type,CONTINUOUS
Time per step,96.390
[Scan points]
Angle, TimePerStep, Intensity, ESD
5.007730280, 96.390, 4048.0, 63.6239
5.033990845, 96.390, 3938.0, 62.7535
5.060251411, 96.390, 3885.0, 62.3298
5.086511976, 96.390, 3876.0, 62.2575
5.112772541, 96.390, 3971.0, 63.0159
5.139033107, 96.390, 3784.0, 61.5142
5.165293672, 96.390, 3887.0, 62.3458
5.191554237, 96.390, 3853.0, 62.0725
5.217814803, 96.390, 3945.0, 62.8092
5.244075368, 96.390, 3757.0, 61.2944
5.270335934, 96.390, 3706.0, 60.8769
5.296596499, 96.390, 3776.0, 61.4492
5.322857064, 96.390, 3660.0, 60.4979
5.349117630, 96.390, 3575.0, 59.7913
5.375378195, 96.390, 3662.0, 60.5145
5.401638760, 96.390, 3628.0, 60.2329
5.427899326, 96.390, 3720.0, 60.9918
5.454159891, 96.390, 3677.0, 60.6383
5.480420456, 96.390, 3576.0, 59.7997
5.506681022, 96.390, 3551.0, 59.5903
5.532941587, 96.390, 3637.0, 60.3075
5.559202152, 96.390, 3543.0, 59.5231
5.585462718, 96.390, 3578.0, 59.8164
5.611723283, 96.390, 3513.0, 59.2706
5.637983849, 96.390, 3572.0, 59.7662
5.664244414, 96.390, 3454.0, 58.7707
5.690504979, 96.390, 3516.0, 59.2959
5.716765545, 96.390, 3530.0, 59.4138
5.743026110, 96.390, 3452.0, 58.7537
5.769286675, 96.390, 3454.0, 58.7707
5.795547241, 96.390, 3347.0, 57.8533
5.821807806, 96.390, 3481.0, 59.0000
5.848068371, 96.390, 3362.0, 57.9828
5.874328937, 96.390, 3343.0, 57.8187
5.900589502, 96.390, 3355.0, 57.9224
5.926850067, 96.390, 3356.0, 57.9310
5.953110633, 96.390, 3361.0, 57.9741
5.979371198, 96.390, 3330.0, 57.7062
6.005631763, 96.390, 3454.0, 58.7707
6.031892329, 96.390, 3368.0, 58.0345
6.058152894, 96.390, 3408.0, 58.3781
6.084413460, 96.390, 3383.0, 58.1636
6.110674025, 96.390, 3420.0, 58.4808
6.136934590, 96.390, 3300.0, 57.4456
6.163195156, 96.390, 3318.0, 57.6021
6.189455721, 96.390, 3312.0, 57.5500
6.215716286, 96.390, 3338.0, 57.7754
6.241976852, 96.390, 3310.0, 57.5326
6.268237417, 96.390, 3428.0, 58.5491
6.294497982, 96.390, 3342.0, 57.8100
6.320758548, 96.390, 3373.0, 58.0775
6.347019113, 96.390, 3369.0, 58.0431
6.373279678, 96.390, 3292.0, 57.3760
6.399540244, 96.390, 3300.0, 57.4456
6.425800809, 96.390, 3381.0, 58.1464
6.452061375, 96.390, 3489.0, 59.0678
6.478321940, 96.390, 3555.0, 59.6238
6.504582505, 96.390, 3446.0, 58.7026
6.530843071, 96.390, 3366.0, 58.0172
6.557103636, 96.390, 3396.0, 58.2752
6.583364201, 96.390, 3366.0, 58.0172
6.609624767, 96.390, 3480.0, 58.9915
6.635885332, 96.390, 3452.0, 58.7537
6.662145897, 96.390, 3525.0, 59.3717
6.688406463, 96.390, 3510.0, 59.2453
6.714667028, 96.390, 3528.0, 59.3970
6.740927593, 96.390, 3478.0, 58.9746
6.767188159, 96.390, 3494.0, 59.1101
6.793448724, 96.390, 3687.0, 60.7207
6.819709289, 96.390, 3838.0, 61.9516
6.845969855, 96.390, 3859.0, 62.1208
6.872230420, 96.390, 3973.0, 63.0317
6.898490986, 96.390, 4003.0, 63.2693
6.924751551, 96.390, 4144.0, 64.3739
6.951012116, 96.390, 4285.0, 65.4599
6.977272682, 96.390, 4408.0, 66.3928
7.003533247, 96.390, 4755.0, 68.9565
7.029793812, 96.390, 4955.0, 70.3918
7.056054378, 96.390, 5399.0, 73.4779
7.082314943, 96.390, 5776.0, 76.0000
7.108575508, 96.390, 6315.0, 79.4670
7.134836074, 96.390, 6963.0, 83.4446
7.161096639, 96.390, 7731.0, 87.9261
7.187357204, 96.390, 8774.0, 93.6696
7.213617770, 96.390, 10160.0, 100.7968
7.239878335, 96.390, 10015.0, 100.0750
7.266138900, 96.390, 7947.0, 89.1459
7.292399466, 96.390, 5744.0, 75.7892
7.318660031, 96.390, 4464.0, 66.8132
7.344920597, 96.390, 4006.0, 63.2930
7.371181162, 96.390, 3707.0, 60.8851
7.397441727, 96.390, 3517.0, 59.3043
7.423702293, 96.390, 3379.0, 58.1292
7.449962858, 96.390, 3426.0, 58.5320
7.476223423, 96.390, 3244.0, 56.9561
7.502483989, 96.390, 3261.0, 57.1052
7.528744554, 96.390, 3128.0, 55.9285
7.555005119, 96.390, 3048.0, 55.2087
7.581265685, 96.390, 3046.0, 55.1906
7.607526250, 96.390, 3103.0, 55.7046
7.633786815, 96.390, 3050.0, 55.2268
7.660047381, 96.390, 2973.0, 54.5252
7.686307946, 96.390, 3163.0, 56.2406
7.712568512, 96.390, 2897.0, 53.8238
7.738829077, 96.390, 2930.0, 54.1295
7.765089642, 96.390, 3077.0, 55.4707
7.791350208, 96.390, 2982.0, 54.6077
7.817610773, 96.390, 2951.0, 54.3231
7.843871338, 96.390, 2878.0, 53.6470
7.870131904, 96.390, 2867.0, 53.5444
7.896392469, 96.390, 2839.0, 53.2823
7.922653034, 96.390, 2799.0, 52.9056
7.948913600, 96.390, 2896.0, 53.8145
7.975174165, 96.390, 2871.0, 53.5817
8.001434730, 96.390, 2841.0, 53.3010
8.027695296, 96.390, 2801.0, 52.9245
8.053955861, 96.390, 2806.0, 52.9717
8.080216426, 96.390, 2759.0, 52.5262
8.106476992, 96.390, 2671.0, 51.6817
8.132737557, 96.390, 2879.0, 53.6563
8.158998123, 96.390, 2803.0, 52.9434
8.185258688, 96.390, 2810.0, 53.0094
8.211519253, 96.390, 2796.0, 52.8772
8.237779819, 96.390, 2887.0, 53.7308
8.264040384, 96.390, 2854.0, 53.4228
8.290300949, 96.390, 2721.0, 52.1632
8.316561515, 96.390, 2785.0, 52.7731
8.342822080, 96.390, 2747.0, 52.4118
8.369082645, 96.390, 2763.0, 52.5642
8.395343211, 96.390, 2796.0, 52.8772
8.421603776, 96.390, 2889.0, 53.7494
8.447864341, 96.390, 2883.0, 53.6936
8.474124907, 96.390, 2828.0, 53.1789
8.500385472, 96.390, 2789.0, 52.8110
8.526646038, 96.390, 2937.0, 54.1941
8.552906603, 96.390, 2936.0, 54.1849
8.579167168, 96.390, 3344.0, 57.8273
8.605427734, 96.390, 3360.0, 57.9655
8.631688299, 96.390, 3625.0, 60.2080
8.657948864, 96.390, 3409.0, 58.3866
8.684209430, 96.390, 3007.0, 54.8361
8.710469995, 96.390, 2715.0, 52.1057
8.736730560, 96.390, 2789.0, 52.8110
8.762991126, 96.390, 2650.0, 51.4782
8.789251691, 96.390, 2645.0, 51.4296
8.815512256, 96.390, 2564.0, 50.6360
8.841772822, 96.390, 2669.0, 51.6624
8.868033387, 96.390, 2548.0, 50.4777
8.894293952, 96.390, 2684.0, 51.8073
8.920554518, 96.390, 2575.0, 50.7445
8.946815083, 96.390, 2601.0, 51.0000
8.973075649, 96.390, 2594.0, 50.9313
8.999336214, 96.390, 2635.0, 51.3323
9.025596779, 96.390, 2629.0, 51.2738
9.051857345, 96.390, 2697.0, 51.9326
9.078117910, 96.390, 2678.0, 51.7494
9.104378475, 96.390, 2619.0, 51.1762
9.130639041, 96.390, 2661.0, 51.5849
9.156899606, 96.390, 2698.0, 51.9423
9.183160171, 96.390, 2641.0, 51.3907
9.209420737, 96.390, 2684.0, 51.8073
9.235681302, 96.390, 2749.0, 52.4309
9.261941867, 96.390, 2740.0, 52.3450
9.288202433, 96.390, 2627.0, 51.2543
9.314462998, 96.390, 2607.0, 51.0588
9.340723564, 96.390, 2652.0, 51.4976
9.366984129, 96.390, 2694.0, 51.9038
9.393244694, 96.390, 2677.0, 51.7397
9.419505260, 96.390, 2619.0, 51.1762
9.445765825, 96.390, 2657.0, 51.5461
9.472026390, 96.390, 2636.0, 51.3420
9.498286956, 96.390, 2738.0, 52.3259
9.524547521, 96.390, 2660.0, 51.5752
9.550808086, 96.390, 2707.0, 52.0288
9.577068652, 96.390, 2653.0, 51.5073
9.603329217, 96.390, 2779.0, 52.7162
9.629589782, 96.390, 2690.0, 51.8652
9.655850348, 96.390, 2877.0, 53.6377
9.682110913, 96.390, 2870.0, 53.5724
9.708371478, 96.390, 2789.0, 52.8110
9.734632044, 96.390, 2974.0, 54.5344
9.760892609, 96.390, 2859.0, 53.4696
9.787153175, 96.390, 3004.0, 54.8088
9.813413740, 96.390, 2971.0, 54.5069
9.839674305, 96.390, 3134.0, 55.9821
9.865934871, 96.390, 3129.0, 55.9375
9.892195436, 96.390, 3263.0, 57.1227
9.918456001, 96.390, 3368.0, 58.0345
9.944716567, 96.390, 3429.0, 58.5577
9.970977132, 96.390, 3484.0, 59.0254
9.997237697, 96.390, 3696.0, 60.7947
10.023498263, 96.390, 4021.0, 63.4114
10.049758828, 96.390, 4243.0, 65.1383
10.076019393, 96.390, 4510.0, 67.1565
10.102279959, 96.390, 4849.0, 69.6348
10.128540524, 96.390, 5442.0, 73.7699
10.154801090, 96.390, 5986.0, 77.3692
10.181061655, 96.390, 6823.0, 82.6015
10.207322220, 96.390, 7342.0, 85.6855
10.233582786, 96.390, 7153.0, 84.5754
10.259843351, 96.390, 5821.0, 76.2955
10.286103916, 96.390, 4737.0, 68.8259
10.312364482, 96.390, 3906.0, 62.4980
10.338625047, 96.390, 3619.0, 60.1581
10.364885612, 96.390, 3485.0, 59.0339
10.391146178, 96.390, 3402.0, 58.3267
10.417406743, 96.390, 3434.0, 58.6003
10.443667308, 96.390, 3324.0, 57.6541
10.469927874, 96.390, 3329.0, 57.6975
10.496188439, 96.390, 3223.0, 56.7715
10.522449004, 96.390, 3184.0, 56.4269
10.548709570, 96.390, 3291.0, 57.3672
10.574970135, 96.390, 3163.0, 56.2406
10.601230701, 96.390, 3230.0, 56.8331
10.627491266, 96.390, 3230.0, 56.8331
10.653751831, 96.390, 3244.0, 56.9561
10.680012397, 96.390, 3223.0, 56.7715
10.706272962, 96.390, 3217.0, 56.7186
10.732533527, 96.390, 3334.0, 57.7408
10.758794093, 96.390, 3405.0, 58.3524
10.785054658, 96.390, 3283.0, 57.2975
10.811315223, 96.390, 3364.0, 58.0000
10.837575789, 96.390, 3437.0, 58.6259
10.863836354, 96.390, 3216.0, 56.7098
10.890096919, 96.390, 3354.0, 57.9137
10.916357485, 96.390, 3214.0, 56.6922
10.942618050, 96.390, 3343.0, 57.8187
10.968878616, 96.390, 3365.0, 58.0086
10.995139181, 96.390, 3433.0, 58.5918
11.021399746, 96.390, 3369.0, 58.0431
11.047660312, 96.390, 3425.0, 58.5235
11.073920877, 96.390, 3446.0, 58.7026
11.100181442, 96.390, 3370.0, 58.0517
11.126442008, 96.390, 3427.0, 58.5406
11.152702573, 96.390, 3493.0, 59.1016
11.178963138, 96.390, 3450.0, 58.7367
11.205223704, 96.390, 3333.0, 57.7321
11.231484269, 96.390, 3494.0, 59.1101
11.257744834, 96.390, 3426.0, 58.5320
11.284005400, 96.390, 3448.0, 58.7197
11.310265965, 96.390, 3358.0, 57.9483
11.336526530, 96.390, 3523.0, 59.3549
11.362787096, 96.390, 3433.0, 58.5918
11.389047661, 96.390, 3420.0, 58.4808
11.415308227, 96.390, 3540.0, 59.4979
11.441568792, 96.390, 3392.0, 58.2409
11.467829357, 96.390, 3420.0, 58.4808
11.494089923, 96.390, 3400.0, 58.3095
11.520350488, 96.390, 3508.0, 59.2284
11.546611053, 96.390, 3438.0, 58.6345
11.572871619, 96.390, 3321.0, 57.6281
11.599132184, 96.390, 3459.0, 58.8133
11.625392749, 96.390, 3466.0, 58.8727
11.651653315, 96.390, 3389.0, 58.2151
11.677913880, 96.390, 3424.0, 58.5150
11.704174445, 96.390, 3379.0, 58.1292
11.730435011, 96.390, 3412.0, 58.4123
11.756695576, 96.390, 3297.0, 57.4195
11.782956141, 96.390, 3368.0, 58.0345
11.809216707, 96.390, 3309.0, 57.5239
11.835477272, 96.390, 3339.0, 57.7841
11.861737838, 96.390, 3281.0, 57.2800
11.887998403, 96.390, 3308.0, 57.5152
11.914258968, 96.390, 3325.0, 57.6628
11.940519534, 96.390, 3250.0, 57.0088
11.966780099, 96.390, 3199.0, 56.5597
11.993040664, 96.390, 3332.0, 57.7235
12.019301230, 96.390, 3185.0, 56.4358
12.045561795, 96.390, 3189.0, 56.4712
12.071822360, 96.390, 3185.0, 56.4358
12.098082926, 96.390, 3184.0, 56.4269
12.124343491, 96.390, 3201.0, 56.5774
12.150604056, 96.390, 3157.0, 56.1872
12.176864622, 96.390, 3217.0, 56.7186
12.203125187, 96.390, 3310.0, 57.5326
12.229385753, 96.390, 3325.0, 57.6628
12.255646318, 96.390, 3380.0, 58.1378
12.281906883, 96.390, 3394.0, 58.2580
12.308167449, 96.390, 3728.0, 61.0574
12.334428014, 96.390, 3701.0, 60.8358
12.360688579, 96.390, 3721.0, 61.0000
12.386949145, 96.390, 4000.0, 63.2456
12.413209710, 96.390, 4320.0, 65.7267
12.439470275, 96.390, 4735.0, 68.8113
12.465730841, 96.390, 5290.0, 72.7324
12.491991406, 96.390, 5895.0, 76.7789
12.518251971, 96.390, 6048.0, 77.7689
12.544512537, 96.390, 5402.0, 73.4983
12.570773102, 96.390, 4223.0, 64.9846
12.597033667, 96.390, 3647.0, 60.3904
12.623294233, 96.390, 3153.0, 56.1516
12.649554798, 96.390, 3105.0, 55.7225
12.675815364, 96.390, 2941.0, 54.2310
12.702075929, 96.390, 2811.0, 53.0189
12.728336494, 96.390, 2760.0, 52.5357
12.754597060, 96.390, 2689.0, 51.8556
12.780857625, 96.390, 2593.0, 50.9215
12.807118190, 96.390, 2658.0, 51.5558
12.833378756, 96.390, 2633.0, 51.3128
12.859639321, 96.390, 2565.0, 50.6458
12.885899886, 96.390, 2562.0, 50.6162
12.912160452, 96.390, 2456.0, 49.5580
12.938421017, 96.390, 2477.0, 49.7695
12.964681582, 96.390, 2349.0, 48.4665
12.990942148, 96.390, 2423.0, 49.2240
13.017202713, 96.390, 2429.0, 49.2849
13.043463279, 96.390, 2463.0, 49.6286
13.069723844, 96.390, 2356.0, 48.5386
13.095984409, 96.390, 2310.0, 48.0625
13.122244975, 96.390, 2289.0, 47.8435
13.148505540, 96.390, 2280.0, 47.7493
13.174766105, 96.390, 2312.0, 48.0833
13.201026671, 96.390, 2256.0, 47.4974
13.227287236, 96.390, 2224.0, 47.1593
13.253547801, 96.390, 2245.0, 47.3814
13.279808367, 96.390, 2315.0, 48.1144
13.306068932, 96.390, 2241.0, 47.3392
13.332329497, 96.390, 2279.0, 47.7389
13.358590063, 96.390, 2259.0, 47.5289
13.384850628, 96.390, 2216.0, 47.0744
13.411111193, 96.390, 2319.0, 48.1560
13.437371759, 96.390, 2391.0, 48.8979
13.463632324, 96.390, 2617.0, 51.1566
13.489892890, 96.390, 2687.0, 51.8363
13.516153455, 96.390, 2853.0, 53.4135
13.542414020, 96.390, 2924.0, 54.0740
13.568674586, 96.390, 2526.0, 50.2593
13.594935151, 96.390, 2300.0, 47.9583
13.621195716, 96.390, 2168.0, 46.5618
13.647456282, 96.390, 2131.0, 46.1628
13.673716847, 96.390, 2086.0, 45.6727
13.699977412, 96.390, 2094.0, 45.7602
13.726237978, 96.390, 2071.0, 45.5082
13.752498543, 96.390, 2098.0, 45.8039
13.778759108, 96.390, 2147.0, 46.3357
13.805019674, 96.390, 2136.0, 46.2169
13.831280239, 96.390, 2143.0, 46.2925
13.857540805, 96.390, 2086.0, 45.6727
13.883801370, 96.390, 2205.0, 46.9574
13.910061935, 96.390, 2298.0, 47.9375
13.936322501, 96.390, 2344.0, 48.4149
13.962583066, 96.390, 2323.0, 48.1975
13.988843631, 96.390, 2171.0, 46.5940
14.015104197, 96.390, 1965.0, 44.3283
14.041364762, 96.390, 1935.0, 43.9886
14.067625327, 96.390, 1892.0, 43.4971
14.093885893, 96.390, 2003.0, 44.7549
14.120146458, 96.390, 1984.0, 44.5421
14.146407023, 96.390, 2027.0, 45.0222
14.172667589, 96.390, 2112.0, 45.9565
14.198928154, 96.390, 2206.0, 46.9681
14.225188719, 96.390, 2293.0, 47.8853
14.251449285, 96.390, 2461.0, 49.6085
14.277709850, 96.390, 2835.0, 53.2447
14.303970416, 96.390, 2850.0, 53.3854
14.330230981, 96.390, 2585.0, 50.8429
14.356491546, 96.390, 2214.0, 47.0532
14.382752112, 96.390, 1945.0, 44.1022
14.409012677, 96.390, 1880.0, 43.3590
14.435273242, 96.390, 1782.0, 42.2137
14.461533808, 96.390, 1813.0, 42.5793
14.487794373, 96.390, 1742.0, 41.7373
14.514054938, 96.390, 1816.0, 42.6146
14.540315504, 96.390, 1731.0, 41.6053
14.566576069, 96.390, 1837.0, 42.8602
14.592836634, 96.390, 1760.0, 41.9524
14.619097200, 96.390, 1775.0, 42.1307
14.645357765, 96.390, 1711.0, 41.3642
14.671618331, 96.390, 1748.0, 41.8091
14.697878896, 96.390, 1682.0, 41.0122
14.724139461, 96.390, 1783.0, 42.2256
14.750400027, 96.390, 1770.0, 42.0714
14.776660592, 96.390, 1804.0, 42.4735
14.802921157, 96.390, 1776.0, 42.1426
14.829181723, 96.390, 1771.0, 42.0833
14.855442288, 96.390, 1840.0, 42.8952
14.881702853, 96.390, 1907.0, 43.6692
14.907963419, 96.390, 1858.0, 43.1045
14.934223984, 96.390, 1962.0, 44.2945
14.960484549, 96.390, 1940.0, 44.0454
14.986745115, 96.390, 1929.0, 43.9204
15.013005680, 96.390, 1873.0, 43.2782
15.039266245, 96.390, 1747.0, 41.7971
15.065526811, 96.390, 1824.0, 42.7083
15.091787376, 96.390, 1764.0, 42.0000
15.118047942, 96.390, 1722.0, 41.4970
15.144308507, 96.390, 1832.0, 42.8019
15.170569072, 96.390, 1867.0, 43.2088
15.196829638, 96.390, 2055.0, 45.3321
15.223090203, 96.390, 2215.0, 47.0638
15.249350768, 96.390, 2411.0, 49.1019
15.275611334, 96.390, 2684.0, 51.8073
15.301871899, 96.390, 2940.0, 54.2218
15.328132464, 96.390, 2803.0, 52.9434
15.354393030, 96.390, 2336.0, 48.3322
15.380653595, 96.390, 2050.0, 45.2769
15.406914160, 96.390, 1790.0, 42.3084
15.433174726, 96.390, 1712.0, 41.3763
15.459435291, 96.390, 1762.0, 41.9762
15.485695857, 96.390, 1729.0, 41.5812
15.511956422, 96.390, 1792.0, 42.3320
15.538216987, 96.390, 1654.0, 40.6694
15.564477553, 96.390, 1615.0, 40.1871
15.590738118, 96.390, 1636.0, 40.4475
15.616998683, 96.390, 1647.0, 40.5832
15.643259249, 96.390, 1672.0, 40.8901
15.669519814, 96.390, 1706.0, 41.3038
15.695780379, 96.390, 1727.0, 41.5572
15.722040945, 96.390, 1672.0, 40.8901
15.748301510, 96.390, 1720.0, 41.4729
15.774562075, 96.390, 1675.0, 40.9268
15.800822641, 96.390, 1670.0, 40.8656
15.827083206, 96.390, 1701.0, 41.2432
15.853343771, 96.390, 1702.0, 41.2553
15.879604337, 96.390, 1754.0, 41.8808
15.905864902, 96.390, 1873.0, 43.2782
15.932125468, 96.390, 1883.0, 43.3935
15.958386033, 96.390, 2054.0, 45.3211
15.984646598, 96.390, 2078.0, 45.5851
16.010907164, 96.390, 2229.0, 47.2123
16.037167729, 96.390, 2322.0, 48.1871
16.063428294, 96.390, 2523.0, 50.2295
16.089688860, 96.390, 2962.0, 54.4243
16.115949425, 96.390, 3209.0, 56.6480
16.142209990, 96.390, 3605.0, 60.0417
16.168470556, 96.390, 3686.0, 60.7124
16.194731121, 96.390, 3399.0, 58.3009
16.220991686, 96.390, 2962.0, 54.4243
16.247252252, 96.390, 2452.0, 49.5177
16.273512817, 96.390, 2111.0, 45.9456
16.299773382, 96.390, 2085.0, 45.6618
16.326033948, 96.390, 1913.0, 43.7379
16.352294513, 96.390, 1810.0, 42.5441
16.378555079, 96.390, 1905.0, 43.6463
16.404815644, 96.390, 2093.0, 45.7493
16.431076209, 96.390, 2058.0, 45.3652
16.457336775, 96.390, 1957.0, 44.2380
16.483597340, 96.390, 1940.0, 44.0454
16.509857905, 96.390, 1814.0, 42.5911
16.536118471, 96.390, 1746.0, 41.7852
16.562379036, 96.390, 1773.0, 42.1070
16.588639601, 96.390, 1637.0, 40.4599
16.614900167, 96.390, 1642.0, 40.5216
16.641160732, 96.390, 1511.0, 38.8716
16.667421297, 96.390, 1649.0, 40.6079
16.693681863, 96.390, 1527.0, 39.0768
16.719942428, 96.390, 1623.0, 40.2865
16.746202994, 96.390, 1522.0, 39.0128
16.772463559, 96.390, 1620.0, 40.2492
16.798724124, 96.390, 1545.0, 39.3065
16.824984690, 96.390, 1578.0, 39.7240
16.851245255, 96.390, 1561.0, 39.5095
16.877505820, 96.390, 1535.0, 39.1791
16.903766386, 96.390, 1565.0, 39.5601
16.930026951, 96.390, 1505.0, 38.7943
16.956287516, 96.390, 1532.0, 39.1408
16.982548082, 96.390, 1553.0, 39.4081
17.008808647, 96.390, 1581.0, 39.7618
17.035069212, 96.390, 1443.0, 37.9868
17.061329778, 96.390, 1479.0, 38.4578
17.087590343, 96.390, 1484.0, 38.5227
17.113850908, 96.390, 1440.0, 37.9473
17.140111474, 96.390, 1507.0, 38.8201
17.166372039, 96.390, 1488.0, 38.5746
17.192632605, 96.390, 1512.0, 38.8844
17.218893170, 96.390, 1523.0, 39.0256
17.245153735, 96.390, 1483.0, 38.5097
17.271414301, 96.390, 1514.0, 38.9102
17.297674866, 96.390, 1519.0, 38.9744
17.323935431, 96.390, 1485.0, 38.5357
17.350195997, 96.390, 1536.0, 39.1918
17.376456562, 96.390, 1500.0, 38.7298
17.402717127, 96.390, 1494.0, 38.6523
17.428977693, 96.390, 1476.0, 38.4187
17.455238258, 96.390, 1513.0, 38.8973
17.481498823, 96.390, 1464.0, 38.2623
17.507759389, 96.390, 1522.0, 39.0128
17.534019954, 96.390, 1501.0, 38.7427
17.560280520, 96.390, 1532.0, 39.1408
17.586541085, 96.390, 1531.0, 39.1280
17.612801650, 96.390, 1557.0, 39.4588
17.639062216, 96.390, 1573.0, 39.6611
17.665322781, 96.390, 1638.0, 40.4722
17.691583346, 96.390, 1763.0, 41.9881
17.717843912, 96.390, 1744.0, 41.7612
17.744104477, 96.390, 1717.0, 41.4367
17.770365042, 96.390, 1710.0, 41.3521
17.796625608, 96.390, 1675.0, 40.9268
17.822886173, 96.390, 1534.0, 39.1663
17.849146738, 96.390, 1625.0, 40.3113
17.875407304, 96.390, 1645.0, 40.5586
17.901667869, 96.390, 1564.0, 39.5474
17.927928434, 96.390, 1634.0, 40.4228
17.954189000, 96.390, 1650.0, 40.6202
17.980449565, 96.390, 1595.0, 39.9375
18.006710131, 96.390, 1680.0, 40.9878
18.032970696, 96.390, 1829.0, 42.7668
18.059231261, 96.390, 1820.0, 42.6615
18.085491827, 96.390, 1902.0, 43.6119
18.111752392, 96.390, 1934.0, 43.9773
18.138012957, 96.390, 2087.0, 45.6837
18.164273523, 96.390, 2258.0, 47.5184
18.190534088, 96.390, 2416.0, 49.1528
18.216794653, 96.390, 2601.0, 51.0000
18.243055219, 96.390, 2742.0, 52.3641
18.269315784, 96.390, 3219.0, 56.7362
18.295576349, 96.390, 3533.0, 59.4390
18.321836915, 96.390, 3963.0, 62.9524
18.348097480, 96.390, 4407.0, 66.3852
18.374358046, 96.390, 4880.0, 69.8570
18.400618611, 96.390, 5475.0, 73.9932
18.426879176, 96.390, 6117.0, 78.2113
18.453139742, 96.390, 6479.0, 80.4922
18.479400307, 96.390, 6840.0, 82.7043
18.505660872, 96.390, 6978.0, 83.5344
18.531921438, 96.390, 6932.0, 83.2586
18.558182003, 96.390, 6910.0, 83.1264
18.584442568, 96.390, 6860.0, 82.8251
18.610703134, 96.390, 6840.0, 82.7043
18.636963699, 96.390, 6583.0, 81.1357
18.663224264, 96.390, 6633.0, 81.4432
18.689484830, 96.390, 6628.0, 81.4125
18.715745395, 96.390, 6656.0, 81.5843
18.742005960, 96.390, 6944.0, 83.3307
18.768266526, 96.390, 7175.0, 84.7054
18.794527091, 96.390, 7183.0, 84.7526
18.820787657, 96.390, 6490.0, 80.5605
18.847048222, 96.390, 5535.0, 74.3976
18.873308787, 96.390, 4400.0, 66.3325
18.899569353, 96.390, 3527.0, 59.3886
18.925829918, 96.390, 2883.0, 53.6936
18.952090483, 96.390, 2622.0, 51.2055
18.978351049, 96.390, 2299.0, 47.9479
19.004611614, 96.390, 2173.0, 46.6154
19.030872179, 96.390, 1916.0, 43.7721
19.057132745, 96.390, 1927.0, 43.8976
19.083393310, 96.390, 1770.0, 42.0714
19.109653875, 96.390, 1843.0, 42.9302
19.135914441, 96.390, 1755.0, 41.8927
19.162175006, 96.390, 1751.0, 41.8450
19.188435572, 96.390, 1754.0, 41.8808
19.214696137, 96.390, 1585.0, 39.8121
19.240956702, 96.390, 1639.0, 40.4846
19.267217268, 96.390, 1662.0, 40.7676
19.293477833, 96.390, 1687.0, 41.0731
19.319738398, 96.390, 1664.0, 40.7922
19.345998964, 96.390, 1795.0, 42.3674
19.372259529, 96.390, 1819.0, 42.6497
19.398520094, 96.390, 1978.0, 44.4747
19.424780660, 96.390, 2052.0, 45.2990
19.451041225, 96.390, 2269.0, 47.6340
19.477301790, 96.390, 2127.0, 46.1194
19.503562356, 96.390, 1952.0, 44.1814
19.529822921, 96.390, 1777.0, 42.1545
19.556083486, 96.390, 1637.0, 40.4599
19.582344052, 96.390, 1633.0, 40.4104
19.608604617, 96.390, 1661.0, 40.7554
19.634865183, 96.390, 1704.0, 41.2795
19.661125748, 96.390, 1795.0, 42.3674
19.687386313, 96.390, 1871.0, 43.2551
19.713646879, 96.390, 1862.0, 43.1509
19.739907444, 96.390, 1834.0, 42.8252
19.766168009, 96.390, 1891.0, 43.4856
19.792428575, 96.390, 1902.0, 43.6119
19.818689140, 96.390, 1839.0, 42.8836
19.844949705, 96.390, 1956.0, 44.2267
19.871210271, 96.390, 2125.0, 46.0977
19.897470836, 96.390, 2377.0, 48.7545
19.923731401, 96.390, 2848.0, 53.3667
19.949991967, 96.390, 3321.0, 57.6281
19.976252532, 96.390, 4033.0, 63.5059
20.002513097, 96.390, 4274.0, 65.3758
20.028773663, 96.390, 3942.0, 62.7853
20.055034228, 96.390, 3421.0, 58.4893
20.081294794, 96.390, 2986.0, 54.6443
20.107555359, 96.390, 2793.0, 52.8488
20.133815924, 96.390, 2880.0, 53.6656
20.160076490, 96.390, 3088.0, 55.5698
20.186337055, 96.390, 3744.0, 61.1882
20.212597620, 96.390, 4475.0, 66.8954
20.238858186, 96.390, 5289.0, 72.7255
20.265118751, 96.390, 6410.0, 80.0625
20.291379316, 96.390, 7490.0, 86.5448
20.317639882, 96.390, 8231.0, 90.7249
20.343900447, 96.390, 8872.0, 94.1913
20.370161012, 96.390, 8186.0, 90.4765
20.396421578, 96.390, 7684.0, 87.6584
20.422682143, 96.390, 7348.0, 85.7205
20.448942709, 96.390, 7027.0, 83.8272
20.475203274, 96.390, 6826.0, 82.6196
20.501463839, 96.390, 6435.0, 80.2185
20.527724405, 96.390, 5602.0, 74.8465
20.553984970, 96.390, 5082.0, 71.2881
20.580245535, 96.390, 4646.0, 68.1616
20.606506101, 96.390, 4482.0, 66.9477
20.632766666, 96.390, 4777.0, 69.1158
20.659027231, 96.390, 5511.0, 74.2361
20.685287797, 96.390, 6615.0, 81.3327
20.711548362, 96.390, 8232.0, 90.7304
20.737808927, 96.390, 9318.0, 96.5298
20.764069493, 96.390, 8251.0, 90.8350
20.790330058, 96.390, 6146.0, 78.3964
20.816590623, 96.390, 4661.0, 68.2715
20.842851189, 96.390, 3271.0, 57.1927
20.869111754, 96.390, 2612.0, 51.1077
20.895372320, 96.390, 2283.0, 47.7807
20.921632885, 96.390, 2117.0, 46.0109
20.947893450, 96.390, 2156.0, 46.4327
20.974154016, 96.390, 1967.0, 44.3509
21.000414581, 96.390, 1889.0, 43.4626
21.026675146, 96.390, 1907.0, 43.6692
21.052935712, 96.390, 1832.0, 42.8019
21.079196277, 96.390, 1754.0, 41.8808
21.105456842, 96.390, 1768.0, 42.0476
21.131717408, 96.390, 1712.0, 41.3763
21.157977973, 96.390, 1623.0, 40.2865
21.184238538, 96.390, 1609.0, 40.1123
21.210499104, 96.390, 1734.0, 41.6413
21.236759669, 96.390, 1707.0, 41.3159
21.263020235, 96.390, 1647.0, 40.5832
21.289280800, 96.390, 1732.0, 41.6173
21.315541365, 96.390, 1790.0, 42.3084
21.341801931, 96.390, 1803.0, 42.4617
21.368062496, 96.390, 1777.0, 42.1545
21.394323061, 96.390, 1914.0, 43.7493
21.420583627, 96.390, 1839.0, 42.8836
21.446844192, 96.390, 1881.0, 43.3705
21.473104757, 96.390, 2030.0, 45.0555
21.499365323, 96.390, 1998.0, 44.6990
21.525625888, 96.390, 1986.0, 44.5646
21.551886453, 96.390, 2121.0, 46.0543
21.578147019, 96.390, 2195.0, 46.8508
21.604407584, 96.390, 2435.0, 49.3457
21.630668149, 96.390, 2723.0, 52.1824
21.656928715, 96.390, 3146.0, 56.0892
21.683189280, 96.390, 3672.0, 60.5970
21.709449846, 96.390, 4156.0, 64.4670
21.735710411, 96.390, 4286.0, 65.4675
21.761970976, 96.390, 4197.0, 64.7843
21.788231542, 96.390, 3413.0, 58.4209
21.814492107, 96.390, 2847.0, 53.3573
21.840752672, 96.390, 2371.0, 48.6929
21.867013238, 96.390, 1999.0, 44.7102
21.893273803, 96.390, 1852.0, 43.0349
21.919534368, 96.390, 1834.0, 42.8252
21.945794934, 96.390, 1738.0, 41.6893
21.972055499, 96.390, 1686.0, 41.0609
21.998316064, 96.390, 1576.0, 39.6989
22.024576630, 96.390, 1692.0, 41.1339
22.050837195, 96.390, 1632.0, 40.3980
22.077097761, 96.390, 1594.0, 39.9249
22.103358326, 96.390, 1658.0, 40.7185
22.129618891, 96.390, 1605.0, 40.0625
22.155879457, 96.390, 1747.0, 41.7971
22.182140022, 96.390, 1687.0, 41.0731
22.208400587, 96.390, 1713.0, 41.3884
22.234661153, 96.390, 1944.0, 44.0908
22.260921718, 96.390, 1995.0, 44.6654
22.287182283, 96.390, 1879.0, 43.3474
22.313442849, 96.390, 1881.0, 43.3705
22.339703414, 96.390, 1798.0, 42.4028
22.365963979, 96.390, 1677.0, 40.9512
22.392224545, 96.390, 1679.0, 40.9756
22.418485110, 96.390, 1545.0, 39.3065
22.444745675, 96.390, 1612.0, 40.1497
22.471006241, 96.390, 1620.0, 40.2492
22.497266806, 96.390, 1654.0, 40.6694
22.523527372, 96.390, 1592.0, 39.8999
22.549787937, 96.390, 1575.0, 39.6863
22.576048502, 96.390, 1554.0, 39.4208
22.602309068, 96.390, 1700.0, 41.2311
22.628569633, 96.390, 1629.0, 40.3609
22.654830198, 96.390, 1687.0, 41.0731
22.681090764, 96.390, 1654.0, 40.6694
22.707351329, 96.390, 1683.0, 41.0244
22.733611894, 96.390, 1743.0, 41.7493
22.759872460, 96.390, 1733.0, 41.6293
22.786133025, 96.390, 1846.0, 42.9651
22.812393590, 96.390, 1907.0, 43.6692
22.838654156, 96.390, 1891.0, 43.4856
22.864914721, 96.390, 2041.0, 45.1774
22.891175287, 96.390, 2064.0, 45.4313
22.917435852, 96.390, 2145.0, 46.3141
22.943696417, 96.390, 2078.0, 45.5851
22.969956983, 96.390, 2052.0, 45.2990
22.996217548, 96.390, 1949.0, 44.1475
23.022478113, 96.390, 1960.0, 44.2719
23.048738679, 96.390, 1933.0, 43.9659
23.074999244, 96.390, 1946.0, 44.1135
23.101259809, 96.390, 1945.0, 44.1022
23.127520375, 96.390, 1905.0, 43.6463
23.153780940, 96.390, 1936.0, 44.0000
23.180041505, 96.390, 1841.0, 42.9069
23.206302071, 96.390, 2002.0, 44.7437
23.232562636, 96.390, 2006.0, 44.7884
23.258823201, 96.390, 1954.0, 44.2041
23.285083767, 96.390, 1944.0, 44.0908
23.311344332, 96.390, 2015.0, 44.8888
23.337604898, 96.390, 2028.0, 45.0333
23.363865463, 96.390, 2117.0, 46.0109
23.390126028, 96.390, 2060.0, 45.3872
23.416386594, 96.390, 2011.0, 44.8442
23.442647159, 96.390, 1977.0, 44.4635
23.468907724, 96.390, 2054.0, 45.3211
23.495168290, 96.390, 2072.0, 45.5192
23.521428855, 96.390, 1994.0, 44.6542
23.547689420, 96.390, 2072.0, 45.5192
23.573949986, 96.390, 1988.0, 44.5870
23.600210551, 96.390, 2147.0, 46.3357
23.626471116, 96.390, 2181.0, 46.7012
23.652731682, 96.390, 2164.0, 46.5188
23.678992247, 96.390, 2204.0, 46.9468
23.705252813, 96.390, 2252.0, 47.4552
23.731513378, 96.390, 2330.0, 48.2701
23.757773943, 96.390, 2363.0, 48.6107
23.784034509, 96.390, 2386.0, 48.8467
23.810295074, 96.390, 2479.0, 49.7896
23.836555639, 96.390, 2574.0, 50.7346
23.862816205, 96.390, 2776.0, 52.6878
23.889076770, 96.390, 3026.0, 55.0091
23.915337335, 96.390, 3315.0, 57.5760
23.941597901, 96.390, 3720.0, 60.9918
23.967858466, 96.390, 4246.0, 65.1613
23.994119031, 96.390, 5096.0, 71.3863
24.020379597, 96.390, 5803.0, 76.1774
24.046640162, 96.390, 6331.0, 79.5676
24.072900727, 96.390, 6439.0, 80.2434
24.099161293, 96.390, 5706.0, 75.5381
24.125421858, 96.390, 4784.0, 69.1665
24.151682424, 96.390, 4107.0, 64.0859
24.177942989, 96.390, 3584.0, 59.8665
24.204203554, 96.390, 3255.0, 57.0526
24.230464120, 96.390, 2949.0, 54.3047
24.256724685, 96.390, 2464.0, 49.6387
24.282985250, 96.390, 2337.0, 48.3425
24.309245816, 96.390, 2056.0, 45.3431
24.335506381, 96.390, 2055.0, 45.3321
24.361766946, 96.390, 1940.0, 44.0454
24.388027512, 96.390, 1803.0, 42.4617
24.414288077, 96.390, 1705.0, 41.2916
24.440548642, 96.390, 1736.0, 41.6653
24.466809208, 96.390, 1719.0, 41.4608
24.493069773, 96.390, 1679.0, 40.9756
24.519330338, 96.390, 1623.0, 40.2865
24.545590904, 96.390, 1674.0, 40.9145
24.571851469, 96.390, 1559.0, 39.4842
24.598112035, 96.390, 1580.0, 39.7492
24.624372600, 96.390, 1507.0, 38.8201
24.650633165, 96.390, 1467.0, 38.3014
24.676893731, 96.390, 1459.0, 38.1969
24.703154296, 96.390, 1509.0, 38.8458
24.729414861, 96.390, 1450.0, 38.0789
24.755675427, 96.390, 1457.0, 38.1707
24.781935992, 96.390, 1467.0, 38.3014
24.808196557, 96.390, 1434.0, 37.8682
24.834457123, 96.390, 1356.0, 36.8239
24.860717688, 96.390, 1326.0, 36.4143
24.886978253, 96.390, 1398.0, 37.3898
24.913238819, 96.390, 1425.0, 37.7492
24.939499384, 96.390, 1358.0, 36.8511
24.965759950, 96.390, 1357.0, 36.8375
24.992020515, 96.390, 1349.0, 36.7287
25.018281080, 96.390, 1337.0, 36.5650
25.044541646, 96.390, 1395.0, 37.3497
25.070802211, 96.390, 1364.0, 36.9324
25.097062776, 96.390, 1266.0, 35.5809
25.123323342, 96.390, 1337.0, 36.5650
25.149583907, 96.390, 1421.0, 37.6962
25.175844472, 96.390, 1422.0, 37.7094
25.202105038, 96.390, 1370.0, 37.0135
25.228365603, 96.390, 1369.0, 37.0000
25.254626168, 96.390, 1345.0, 36.6742
25.280886734, 96.390, 1419.0, 37.6696
25.307147299, 96.390, 1330.0, 36.4692
25.333407864, 96.390, 1442.0, 37.9737
25.359668430, 96.390, 1598.0, 39.9750
25.385928995, 96.390, 1772.0, 42.0951
25.412189561, 96.390, 1946.0, 44.1135
25.438450126, 96.390, 2295.0, 47.9062
25.464710691, 96.390, 2658.0, 51.5558
25.490971257, 96.390, 2514.0, 50.1398
25.517231822, 96.390, 2253.0, 47.4658
25.543492387, 96.390, 1966.0, 44.3396
25.569752953, 96.390, 1677.0, 40.9512
25.596013518, 96.390, 1493.0, 38.6394
25.622274083, 96.390, 1339.0, 36.5923
25.648534649, 96.390, 1410.0, 37.5500
25.674795214, 96.390, 1348.0, 36.7151
25.701055779, 96.390, 1279.0, 35.7631
25.727316345, 96.390, 1255.0, 35.4260
25.753576910, 96.390, 1335.0, 36.5377
25.779837476, 96.390, 1344.0, 36.6606
25.806098041, 96.390, 1264.0, 35.5528
25.832358606, 96.390, 1339.0, 36.5923
25.858619172, 96.390, 1355.0, 36.8103
25.884879737, 96.390, 1370.0, 37.0135
25.911140302, 96.390, 1403.0, 37.4566
25.937400868, 96.390, 1495.0, 38.6652
25.963661433, 96.390, 1556.0, 39.4462
25.989921998, 96.390, 1602.0, 40.0250
26.016182564, 96.390, 1779.0, 42.1782
26.042443129, 96.390, 1914.0, 43.7493
26.068703694, 96.390, 1976.0, 44.4522
26.094964260, 96.390, 2004.0, 44.7661
26.121224825, 96.390, 2258.0, 47.5184
26.147485390, 96.390, 2461.0, 49.6085
26.173745956, 96.390, 2616.0, 51.1468
26.200006521, 96.390, 2545.0, 50.4480
26.226267087, 96.390, 2372.0, 48.7032
26.252527652, 96.390, 2137.0, 46.2277
26.278788217, 96.390, 1975.0, 44.4410
26.305048783, 96.390, 1737.0, 41.6773
26.331309348, 96.390, 1622.0, 40.2741
26.357569913, 96.390, 1540.0, 39.2428
26.383830479, 96.390, 1511.0, 38.8716
26.410091044, 96.390, 1503.0, 38.7685
26.436351609, 96.390, 1370.0, 37.0135
26.462612175, 96.390, 1549.0, 39.3573
26.488872740, 96.390, 1487.0, 38.5616
26.515133305, 96.390, 1451.0, 38.0920
26.541393871, 96.390, 1546.0, 39.3192
26.567654436, 96.390, 1486.0, 38.5487
26.593915002, 96.390, 1528.0, 39.0896
26.620175567, 96.390, 1476.0, 38.4187
26.646436132, 96.390, 1523.0, 39.0256
26.672696698, 96.390, 1441.0, 37.9605
26.698957263, 96.390, 1538.0, 39.2173
26.725217828, 96.390, 1620.0, 40.2492
26.751478394, 96.390, 1622.0, 40.2741
26.777738959, 96.390, 1663.0, 40.7799
26.803999524, 96.390, 1714.0, 41.4005
26.830260090, 96.390, 1765.0, 42.0119
26.856520655, 96.390, 1964.0, 44.3170
26.882781220, 96.390, 2070.0, 45.4973
26.909041786, 96.390, 2163.0, 46.5081
26.935302351, 96.390, 2378.0, 48.7647
26.961562916, 96.390, 2306.0, 48.0208
26.987823482, 96.390, 2405.0, 49.0408
27.014084047, 96.390, 2631.0, 51.2933
27.040344613, 96.390, 2630.0, 51.2835
27.066605178, 96.390, 3033.0, 55.0727
27.092865743, 96.390, 3738.0, 61.1392
27.119126309, 96.390, 4493.0, 67.0298
27.145386874, 96.390, 5364.0, 73.2393
27.171647439, 96.390, 6516.0, 80.7217
27.197908005, 96.390, 6900.0, 83.0662
27.224168570, 96.390, 6725.0, 82.0061
27.250429135, 96.390, 5619.0, 74.9600
27.276689701, 96.390, 4721.0, 68.7095
27.302950266, 96.390, 3766.0, 61.3677
27.329210831, 96.390, 2883.0, 53.6936
27.355471397, 96.390, 2435.0, 49.3457
27.381731962, 96.390, 2292.0, 47.8748
27.407992528, 96.390, 2060.0, 45.3872
27.434253093, 96.390, 2004.0, 44.7661
27.460513658, 96.390, 2012.0, 44.8553
27.486774224, 96.390, 1904.0, 43.6348
27.513034789, 96.390, 1956.0, 44.2267
27.539295354, 96.390, 1969.0, 44.3734
27.565555920, 96.390, 2004.0, 44.7661
27.591816485, 96.390, 2172.0, 46.6047
27.618077050, 96.390, 2000.0, 44.7214
27.644337616, 96.390, 2066.0, 45.4533
27.670598181, 96.390, 2210.0, 47.0106
27.696858746, 96.390, 2306.0, 48.0208
27.723119312, 96.390, 2287.0, 47.8226
27.749379877, 96.390, 2447.0, 49.4672
27.775640442, 96.390, 2462.0, 49.6185
27.801901008, 96.390, 2488.0, 49.8799
27.828161573, 96.390, 2608.0, 51.0686
27.854422139, 96.390, 2700.0, 51.9615
27.880682704, 96.390, 2489.0, 49.8899
27.906943269, 96.390, 2466.0, 49.6588
27.933203835, 96.390, 2362.0, 48.6004
27.959464400, 96.390, 2149.0, 46.3573
27.985724965, 96.390, 2173.0, 46.6154
28.011985531, 96.390, 2013.0, 44.8665
28.038246096, 96.390, 1924.0, 43.8634
28.064506661, 96.390, 1882.0, 43.3820
28.090767227, 96.390, 1805.0, 42.4853
28.117027792, 96.390, 1851.0, 43.0232
28.143288357, 96.390, 1733.0, 41.6293
28.169548923, 96.390, 1716.0, 41.4246
28.195809488, 96.390, 1656.0, 40.6940
28.222070054, 96.390, 1532.0, 39.1408
28.248330619, 96.390, 1490.0, 38.6005
28.274591184, 96.390, 1427.0, 37.7757
28.300851750, 96.390, 1506.0, 38.8072
28.327112315, 96.390, 1489.0, 38.5876
28.353372880, 96.390, 1419.0, 37.6696
28.379633446, 96.390, 1386.0, 37.2290
28.405894011, 96.390, 1468.0, 38.3145
28.432154576, 96.390, 1490.0, 38.6005
28.458415142, 96.390, 1383.0, 37.1887
28.484675707, 96.390, 1349.0, 36.7287
28.510936272, 96.390, 1413.0, 37.5899
28.537196838, 96.390, 1352.0, 36.7696
28.563457403, 96.390, 1321.0, 36.3456
28.589717968, 96.390, 1327.0, 36.4280
28.615978534, 96.390, 1325.0, 36.4005
28.642239099, 96.390, 1357.0, 36.8375
28.668499665, 96.390, 1476.0, 38.4187
28.694760230, 96.390, 1500.0, 38.7298
28.721020795, 96.390, 1551.0, 39.3827
28.747281361, 96.390, 1712.0, 41.3763
28.773541926, 96.390, 1755.0, 41.8927
28.799802491, 96.390, 1805.0, 42.4853
28.826063057, 96.390, 1634.0, 40.4228
28.852323622, 96.390, 1681.0, 41.0000
28.878584187, 96.390, 1598.0, 39.9750
28.904844753, 96.390, 1441.0, 37.9605
28.931105318, 96.390, 1397.0, 37.3765
28.957365883, 96.390, 1436.0, 37.8946
28.983626449, 96.390, 1420.0, 37.6829
29.009887014, 96.390, 1539.0, 39.2301
29.036147579, 96.390, 1582.0, 39.7744
29.062408145, 96.390, 1766.0, 42.0238
29.088668710, 96.390, 1899.0, 43.5775
29.114929276, 96.390, 2066.0, 45.4533
29.141189841, 96.390, 2092.0, 45.7384
29.167450406, 96.390, 2004.0, 44.7661
29.193710972, 96.390, 1821.0, 42.6732
29.219971537, 96.390, 1680.0, 40.9878
29.246232102, 96.390, 1537.0, 39.2046
29.272492668, 96.390, 1492.0, 38.6264
29.298753233, 96.390, 1534.0, 39.1663
29.325013798, 96.390, 1436.0, 37.8946
29.351274364, 96.390, 1458.0, 38.1838
29.377534929, 96.390, 1484.0, 38.5227
29.403795494, 96.390, 1522.0, 39.0128
29.430056060, 96.390, 1559.0, 39.4842
29.456316625, 96.390, 1509.0, 38.8458
29.482577191, 96.390, 1545.0, 39.3065
29.508837756, 96.390, 1628.0, 40.3485
29.535098321, 96.390, 1571.0, 39.6358
29.561358887, 96.390, 1532.0, 39.1408
29.587619452, 96.390, 1613.0, 40.1622
29.613880017, 96.390, 1656.0, 40.6940
29.640140583, 96.390, 1593.0, 39.9124
29.666401148, 96.390, 1638.0, 40.4722
29.692661713, 96.390, 1659.0, 40.7308
29.718922279, 96.390, 1685.0, 41.0488
29.745182844, 96.390, 1790.0, 42.3084
29.771443409, 96.390, 1813.0, 42.5793
29.797703975, 96.390, 1955.0, 44.2154
29.823964540, 96.390, 2110.0, 45.9347
29.850225105, 96.390, 2414.0, 49.1325
29.876485671, 96.390, 2613.0, 51.1175
29.902746236, 96.390, 3156.0, 56.1783
29.929006802, 96.390, 3718.0, 60.9754
29.955267367, 96.390, 4622.0, 67.9853
29.981527932, 96.390, 5496.0, 74.1350
30.007788498, 96.390, 5865.0, 76.5833
30.034049063, 96.390, 6061.0, 77.8524
30.060309628, 96.390, 5447.0, 73.8038
30.086570194, 96.390, 4738.0, 68.8331
30.112830759, 96.390, 4121.0, 64.1950
30.139091324, 96.390, 3404.0, 58.3438
30.165351890, 96.390, 2753.0, 52.4690
30.191612455, 96.390, 2319.0, 48.1560
30.217873020, 96.390, 2159.0, 46.4650
30.244133586, 96.390, 1973.0, 44.4185
30.270394151, 96.390, 1769.0, 42.0595
30.296654717, 96.390, 1647.0, 40.5832
30.322915282, 96.390, 1625.0, 40.3113
30.349175847, 96.390, 1589.0, 39.8623
30.375436413, 96.390, 1483.0, 38.5097
30.401696978, 96.390, 1448.0, 38.0526
30.427957543, 96.390, 1457.0, 38.1707
30.454218109, 96.390, 1456.0, 38.1576
30.480478674, 96.390, 1430.0, 37.8153
30.506739239, 96.390, 1419.0, 37.6696
30.532999805, 96.390, 1425.0, 37.7492
30.559260370, 96.390, 1458.0, 38.1838
30.585520935, 96.390, 1543.0, 39.2810
30.611781501, 96.390, 1647.0, 40.5832
30.638042066, 96.390, 1693.0, 41.1461
30.664302631, 96.390, 1923.0, 43.8520
30.690563197, 96.390, 1952.0, 44.1814
30.716823762, 96.390, 1918.0, 43.7950
30.743084328, 96.390, 1801.0, 42.4382
30.769344893, 96.390, 1922.0, 43.8406
30.795605458, 96.390, 1996.0, 44.6766
30.821866024, 96.390, 2100.0, 45.8258
30.848126589, 96.390, 2189.0, 46.7868
30.874387154, 96.390, 2440.0, 49.3964
30.900647720, 96.390, 2459.0, 49.5883
30.926908285, 96.390, 2474.0, 49.7393
30.953168850, 96.390, 2367.0, 48.6518
30.979429416, 96.390, 2258.0, 47.5184
31.005689981, 96.390, 1968.0, 44.3621
31.031950546, 96.390, 1970.0, 44.3847
31.058211112, 96.390, 1687.0, 41.0731
31.084471677, 96.390, 1643.0, 40.5339
31.110732243, 96.390, 1743.0, 41.7493
31.136992808, 96.390, 1801.0, 42.4382
31.163253373, 96.390, 2127.0, 46.1194
31.189513939, 96.390, 2398.0, 48.9694
31.215774504, 96.390, 2811.0, 53.0189
31.242035069, 96.390, 3150.0, 56.1249
31.268295635, 96.390, 2898.0, 53.8331
31.294556200, 96.390, 2514.0, 50.1398
31.320816765, 96.390, 2362.0, 48.6004
31.347077331, 96.390, 2243.0, 47.3603
31.373337896, 96.390, 1934.0, 43.9773
31.399598461, 96.390, 1933.0, 43.9659
31.425859027, 96.390, 1853.0, 43.0465
31.452119592, 96.390, 1838.0, 42.8719
31.478380157, 96.390, 1766.0, 42.0238
31.504640723, 96.390, 1875.0, 43.3013
31.530901288, 96.390, 1898.0, 43.5660
31.557161854, 96.390, 1890.0, 43.4741
31.583422419, 96.390, 1859.0, 43.1161
31.609682984, 96.390, 1855.0, 43.0697
31.635943550, 96.390, 1810.0, 42.5441
31.662204115, 96.390, 1703.0, 41.2674
31.688464680, 96.390, 1809.0, 42.5323
31.714725246, 96.390, 1638.0, 40.4722
31.740985811, 96.390, 1541.0, 39.2556
31.767246376, 96.390, 1543.0, 39.2810
31.793506942, 96.390, 1484.0, 38.5227
31.819767507, 96.390, 1506.0, 38.8072
31.846028072, 96.390, 1490.0, 38.6005
31.872288638, 96.390, 1591.0, 39.8873
31.898549203, 96.390, 1750.0, 41.8330
31.924809769, 96.390, 2047.0, 45.2438
31.951070334, 96.390, 2264.0, 47.5815
31.977330899, 96.390, 2845.0, 53.3385
32.003591465, 96.390, 3646.0, 60.3821
32.029852030, 96.390, 4785.0, 69.1737
32.056112595, 96.390, 6047.0, 77.7625
32.082373161, 96.390, 6887.0, 82.9880
32.108633726, 96.390, 6772.0, 82.2922
32.134894291, 96.390, 5753.0, 75.8485
32.161154857, 96.390, 4853.0, 69.6635
32.187415422, 96.390, 4077.0, 63.8514
32.213675987, 96.390, 3269.0, 57.1752
32.239936553, 96.390, 2452.0, 49.5177
32.266197118, 96.390, 2104.0, 45.8694
32.292457683, 96.390, 1905.0, 43.6463
32.318718249, 96.390, 1759.0, 41.9404
32.344978814, 96.390, 1697.0, 41.1947
32.371239380, 96.390, 1659.0, 40.7308
32.397499945, 96.390, 1622.0, 40.2741
32.423760510, 96.390, 1616.0, 40.1995
32.450021076, 96.390, 1594.0, 39.9249
32.476281641, 96.390, 1607.0, 40.0874
32.502542206, 96.390, 1701.0, 41.2432
32.528802772, 96.390, 1847.0, 42.9767
32.555063337, 96.390, 1879.0, 43.3474
32.581323902, 96.390, 2146.0, 46.3249
32.607584468, 96.390, 2127.0, 46.1194
32.633845033, 96.390, 2169.0, 46.5725
32.660105598, 96.390, 2080.0, 45.6070
32.686366164, 96.390, 1960.0, 44.2719
32.712626729, 96.390, 1866.0, 43.1972
32.738887295, 96.390, 1676.0, 40.9390
32.765147860, 96.390, 1530.0, 39.1152
32.791408425, 96.390, 1480.0, 38.4708
32.817668991, 96.390, 1426.0, 37.7624
32.843929556, 96.390, 1403.0, 37.4566
32.870190121, 96.390, 1423.0, 37.7227
32.896450687, 96.390, 1399.0, 37.4032
32.922711252, 96.390, 1320.0, 36.3318
32.948971817, 96.390, 1425.0, 37.7492
32.975232383, 96.390, 1455.0, 38.1445
33.001492948, 96.390, 1416.0, 37.6298
33.027753513, 96.390, 1489.0, 38.5876
33.054014079, 96.390, 1453.0, 38.1182
33.080274644, 96.390, 1527.0, 39.0768
33.106535209, 96.390, 1499.0, 38.7169
33.132795775, 96.390, 1545.0, 39.3065
33.159056340, 96.390, 1730.0, 41.5933
33.185316906, 96.390, 1670.0, 40.8656
33.211577471, 96.390, 1662.0, 40.7676
33.237838036, 96.390, 1630.0, 40.3733
33.264098602, 96.390, 1582.0, 39.7744
33.290359167, 96.390, 1632.0, 40.3980
33.316619732, 96.390, 1737.0, 41.6773
33.342880298, 96.390, 1738.0, 41.6893
33.369140863, 96.390, 1823.0, 42.6966
33.395401428, 96.390, 1911.0, 43.7150
33.421661994, 96.390, 1828.0, 42.7551
33.447922559, 96.390, 1821.0, 42.6732
33.474183124, 96.390, 1798.0, 42.4028
33.500443690, 96.390, 1841.0, 42.9069
33.526704255, 96.390, 1868.0, 43.2204
33.552964820, 96.390, 1717.0, 41.4367
33.579225386, 96.390, 1742.0, 41.7373
33.605485951, 96.390, 1718.0, 41.4488
33.631746517, 96.390, 1700.0, 41.2311
33.658007082, 96.390, 1640.0, 40.4969
33.684267647, 96.390, 1778.0, 42.1663
33.710528213, 96.390, 1751.0, 41.8450
33.736788778, 96.390, 1797.0, 42.3910
33.763049343, 96.390, 1833.0, 42.8135
33.789309909, 96.390, 1984.0, 44.5421
33.815570474, 96.390, 1940.0, 44.0454
33.841831039, 96.390, 2282.0, 47.7703
33.868091605, 96.390, 2351.0, 48.4871
33.894352170, 96.390, 2613.0, 51.1175
33.920612735, 96.390, 3005.0, 54.8179
33.946873301, 96.390, 3602.0, 60.0167
33.973133866, 96.390, 4097.0, 64.0078
33.999394432, 96.390, 4154.0, 64.4515
34.025654997, 96.390, 3932.0, 62.7057
34.051915562, 96.390, 3742.0, 61.1719
34.078176128, 96.390, 3633.0, 60.2744
34.104436693, 96.390, 3516.0, 59.2959
34.130697258, 96.390, 3548.0, 59.5651
34.156957824, 96.390, 3523.0, 59.3549
34.183218389, 96.390, 3866.0, 62.1772
34.209478954, 96.390, 4292.0, 65.5134
34.235739520, 96.390, 4796.0, 69.2532
34.262000085, 96.390, 5029.0, 70.9154
34.288260650, 96.390, 4583.0, 67.6979
34.314521216, 96.390, 4498.0, 67.0671
34.340781781, 96.390, 4219.0, 64.9538
34.367042346, 96.390, 3823.0, 61.8304
34.393302912, 96.390, 3627.0, 60.2246
34.419563477, 96.390, 3402.0, 58.3267
34.445824043, 96.390, 3333.0, 57.7321
34.472084608, 96.390, 3270.0, 57.1839
34.498345173, 96.390, 3377.0, 58.1120
34.524605739, 96.390, 3214.0, 56.6922
34.550866304, 96.390, 3161.0, 56.2228
34.577126869, 96.390, 2927.0, 54.1018
34.603387435, 96.390, 2850.0, 53.3854
34.629648000, 96.390, 2707.0, 52.0288
34.655908565, 96.390, 2645.0, 51.4296
34.682169131, 96.390, 2475.0, 49.7494
34.708429696, 96.390, 2494.0, 49.9400
34.734690261, 96.390, 2566.0, 50.6557
34.760950827, 96.390, 2501.0, 50.0100
34.787211392, 96.390, 2614.0, 51.1273
34.813471958, 96.390, 2541.0, 50.4083
34.839732523, 96.390, 2689.0, 51.8556
34.865993088, 96.390, 3026.0, 55.0091
34.892253654, 96.390, 3433.0, 58.5918
34.918514219, 96.390, 3709.0, 60.9016
34.944774784, 96.390, 3854.0, 62.0806
34.971035350, 96.390, 4031.0, 63.4902
34.997295915, 96.390, 3496.0, 59.1270
35.023556480, 96.390, 3166.0, 56.2672
35.049817046, 96.390, 2942.0, 54.2402
35.076077611, 96.390, 2665.0, 51.6236
35.102338176, 96.390, 2408.0, 49.0714
35.128598742, 96.390, 2154.0, 46.4112
35.154859307, 96.390, 1995.0, 44.6654
35.181119872, 96.390, 1991.0, 44.6206
35.207380438, 96.390, 1813.0, 42.5793
35.233641003, 96.390, 1843.0, 42.9302
35.259901569, 96.390, 1840.0, 42.8952
35.286162134, 96.390, 1789.0, 42.2966
35.312422699, 96.390, 1792.0, 42.3320
35.338683265, 96.390, 1738.0, 41.6893
35.364943830, 96.390, 1784.0, 42.2374
35.391204395, 96.390, 1724.0, 41.5211
35.417464961, 96.390, 1687.0, 41.0731
35.443725526, 96.390, 1646.0, 40.5709
35.469986091, 96.390, 1608.0, 40.0999
35.496246657, 96.390, 1728.0, 41.5692
35.522507222, 96.390, 1656.0, 40.6940
35.548767787, 96.390, 1599.0, 39.9875
35.575028353, 96.390, 1704.0, 41.2795
35.601288918, 96.390, 1710.0, 41.3521
35.627549484, 96.390, 1866.0, 43.1972
35.653810049, 96.390, 1770.0, 42.0714
35.680070614, 96.390, 1826.0, 42.7317
35.706331180, 96.390, 1755.0, 41.8927
35.732591745, 96.390, 1799.0, 42.4146
35.758852310, 96.390, 1876.0, 43.3128
35.785112876, 96.390, 1823.0, 42.6966
35.811373441, 96.390, 1949.0, 44.1475
35.837634006, 96.390, 1941.0, 44.0568
35.863894572, 96.390, 1950.0, 44.1588
35.890155137, 96.390, 1968.0, 44.3621
35.916415702, 96.390, 1852.0, 43.0349
35.942676268, 96.390, 1800.0, 42.4264
35.968936833, 96.390, 1682.0, 41.0122
35.995197398, 96.390, 1661.0, 40.7554
36.021457964, 96.390, 1594.0, 39.9249
36.047718529, 96.390, 1611.0, 40.1373
36.073979095, 96.390, 1563.0, 39.5348
36.100239660, 96.390, 1616.0, 40.1995
36.126500225, 96.390, 1619.0, 40.2368
36.152760791, 96.390, 1526.0, 39.0640
36.179021356, 96.390, 1520.0, 38.9872
36.205281921, 96.390, 1551.0, 39.3827
36.231542487, 96.390, 1598.0, 39.9750
36.257803052, 96.390, 1590.0, 39.8748
36.284063617, 96.390, 1640.0, 40.4969
36.310324183, 96.390, 1594.0, 39.9249
36.336584748, 96.390, 1543.0, 39.2810
36.362845313, 96.390, 1556.0, 39.4462
36.389105879, 96.390, 1521.0, 39.0000
36.415366444, 96.390, 1606.0, 40.0749
36.441627010, 96.390, 1598.0, 39.9750
36.467887575, 96.390, 1557.0, 39.4588
36.494148140, 96.390, 1649.0, 40.6079
36.520408706, 96.390, 1721.0, 41.4849
36.546669271, 96.390, 1883.0, 43.3935
36.572929836, 96.390, 1861.0, 43.1393
36.599190402, 96.390, 1795.0, 42.3674
36.625450967, 96.390, 1812.0, 42.5676
36.651711532, 96.390, 1700.0, 41.2311
36.677972098, 96.390, 1619.0, 40.2368
36.704232663, 96.390, 1523.0, 39.0256
36.730493228, 96.390, 1496.0, 38.6782
36.756753794, 96.390, 1466.0, 38.2884
36.783014359, 96.390, 1312.0, 36.2215
36.809274924, 96.390, 1343.0, 36.6470
36.835535490, 96.390, 1351.0, 36.7560
36.861796055, 96.390, 1396.0, 37.3631
36.888056621, 96.390, 1270.0, 35.6371
36.914317186, 96.390, 1321.0, 36.3456
36.940577751, 96.390, 1301.0, 36.0694
36.966838317, 96.390, 1409.0, 37.5366
36.993098882, 96.390, 1287.0, 35.8748
37.019359447, 96.390, 1278.0, 35.7491
37.045620013, 96.390, 1340.0, 36.6060
37.071880578, 96.390, 1317.0, 36.2905
37.098141143, 96.390, 1275.0, 35.7071
37.124401709, 96.390, 1362.0, 36.9053
37.150662274, 96.390, 1309.0, 36.1801
37.176922839, 96.390, 1354.0, 36.7967
37.203183405, 96.390, 1318.0, 36.3043
37.229443970, 96.390, 1363.0, 36.9188
37.255704535, 96.390, 1370.0, 37.0135
37.281965101, 96.390, 1397.0, 37.3765
37.308225666, 96.390, 1420.0, 37.6829
37.334486232, 96.390, 1409.0, 37.5366
37.360746797, 96.390, 1443.0, 37.9868
37.387007362, 96.390, 1487.0, 38.5616
37.413267928, 96.390, 1521.0, 39.0000
37.439528493, 96.390, 1552.0, 39.3954
37.465789058, 96.390, 1485.0, 38.5357
37.492049624, 96.390, 1544.0, 39.2938
37.518310189, 96.390, 1608.0, 40.0999
37.544570754, 96.390, 1645.0, 40.5586
37.570831320, 96.390, 1621.0, 40.2616
37.597091885, 96.390, 1587.0, 39.8372
37.623352450, 96.390, 1783.0, 42.2256
37.649613016, 96.390, 1699.0, 41.2189
37.675873581, 96.390, 1832.0, 42.8019
37.702134147, 96.390, 2100.0, 45.8258
37.728394712, 96.390, 2247.0, 47.4025
37.754655277, 96.390, 2371.0, 48.6929
37.780915843, 96.390, 2309.0, 48.0521
37.807176408, 96.390, 2217.0, 47.0850
37.833436973, 96.390, 2083.0, 45.6399
37.859697539, 96.390, 2115.0, 45.9891
37.885958104, 96.390, 2021.0, 44.9555
37.912218669, 96.390, 1917.0, 43.7836
37.938479235, 96.390, 1850.0, 43.0116
37.964739800, 96.390, 1816.0, 42.6146
37.991000365, 96.390, 1875.0, 43.3013
38.017260931, 96.390, 1844.0, 42.9418
38.043521496, 96.390, 1946.0, 44.1135
38.069782061, 96.390, 2058.0, 45.3652
38.096042627, 96.390, 2078.0, 45.5851
38.122303192, 96.390, 2075.0, 45.5522
38.148563758, 96.390, 2017.0, 44.9110
38.174824323, 96.390, 2057.0, 45.3542
38.201084888, 96.390, 2026.0, 45.0111
38.227345454, 96.390, 1974.0, 44.4297
38.253606019, 96.390, 1749.0, 41.8210
38.279866584, 96.390, 1747.0, 41.7971
38.306127150, 96.390, 1693.0, 41.1461
38.332387715, 96.390, 1647.0, 40.5832
38.358648280, 96.390, 1571.0, 39.6358
38.384908846, 96.390, 1540.0, 39.2428
38.411169411, 96.390, 1570.0, 39.6232
38.437429976, 96.390, 1521.0, 39.0000
38.463690542, 96.390, 1556.0, 39.4462
38.489951107, 96.390, 1584.0, 39.7995
38.516211673, 96.390, 1630.0, 40.3733
38.542472238, 96.390, 1664.0, 40.7922
38.568732803, 96.390, 1665.0, 40.8044
38.594993369, 96.390, 1693.0, 41.1461
38.621253934, 96.390, 1742.0, 41.7373
38.647514499, 96.390, 1709.0, 41.3401
38.673775065, 96.390, 1729.0, 41.5812
38.700035630, 96.390, 1802.0, 42.4500
38.726296195, 96.390, 1915.0, 43.7607
38.752556761, 96.390, 1984.0, 44.5421
38.778817326, 96.390, 2107.0, 45.9021
38.805077891, 96.390, 2180.0, 46.6905
38.831338457, 96.390, 2045.0, 45.2217
38.857599022, 96.390, 1870.0, 43.2435
38.883859587, 96.390, 1806.0, 42.4971
38.910120153, 96.390, 1752.0, 41.8569
38.936380718, 96.390, 1657.0, 40.7063
38.962641284, 96.390, 1576.0, 39.6989
38.988901849, 96.390, 1578.0, 39.7240
39.015162414, 96.390, 1512.0, 38.8844
39.041422980, 96.390, 1510.0, 38.8587
39.067683545, 96.390, 1497.0, 38.6911
39.093944110, 96.390, 1387.0, 37.2424
39.120204676, 96.390, 1529.0, 39.1024
39.146465241, 96.390, 1510.0, 38.8587
39.172725806, 96.390, 1490.0, 38.6005
39.198986372, 96.390, 1503.0, 38.7685
39.225246937, 96.390, 1517.0, 38.9487
39.251507502, 96.390, 1575.0, 39.6863
39.277768068, 96.390, 1668.0, 40.8412
39.304028633, 96.390, 1651.0, 40.6325
39.330289199, 96.390, 1698.0, 41.2068
39.356549764, 96.390, 1816.0, 42.6146
39.382810329, 96.390, 2006.0, 44.7884
39.409070895, 96.390, 2208.0, 46.9894
39.435331460, 96.390, 2428.0, 49.2747
39.461592025, 96.390, 2513.0, 50.1298
39.487852591, 96.390, 2369.0, 48.6724
39.514113156, 96.390, 2226.0, 47.1805
39.540373721, 96.390, 2038.0, 45.1442
39.566634287, 96.390, 2075.0, 45.5522
39.592894852, 96.390, 1943.0, 44.0795
39.619155417, 96.390, 1721.0, 41.4849
39.645415983, 96.390, 1634.0, 40.4228
39.671676548, 96.390, 1615.0, 40.1871
39.697937113, 96.390, 1592.0, 39.8999
39.724197679, 96.390, 1657.0, 40.7063
39.750458244, 96.390, 1573.0, 39.6611
39.776718810, 96.390, 1619.0, 40.2368
39.802979375, 96.390, 1629.0, 40.3609
39.829239940, 96.390, 1584.0, 39.7995
39.855500506, 96.390, 1612.0, 40.1497
39.881761071, 96.390, 1696.0, 41.1825
39.908021636, 96.390, 1686.0, 41.0609
39.934282202, 96.390, 1748.0, 41.8091
39.960542767, 96.390, 1735.0, 41.6533
39.986803332, 96.390, 1739.0, 41.7013
40.013063898, 96.390, 1818.0, 42.6380
40.039324463, 96.390, 1905.0, 43.6463
40.065585028, 96.390, 1984.0, 44.5421
40.091845594, 96.390, 2014.0, 44.8776
40.118106159, 96.390, 2198.0, 46.8828
40.144366725, 96.390, 2295.0, 47.9062
40.170627290, 96.390, 2364.0, 48.6210
40.196887855, 96.390, 2384.0, 48.8262
40.223148421, 96.390, 2360.0, 48.5798
40.249408986, 96.390, 2543.0, 50.4282
40.275669551, 96.390, 2629.0, 51.2738
40.301930117, 96.390, 2767.0, 52.6023
40.328190682, 96.390, 2709.0, 52.0481
40.354451247, 96.390, 2845.0, 53.3385
40.380711813, 96.390, 3064.0, 55.3534
40.406972378, 96.390, 3234.0, 56.8683
40.433232943, 96.390, 3442.0, 58.6686
40.459493509, 96.390, 3548.0, 59.5651
40.485754074, 96.390, 3768.0, 61.3840
40.512014639, 96.390, 4017.0, 63.3798
40.538275205, 96.390, 4139.0, 64.3351
40.564535770, 96.390, 4323.0, 65.7495
40.590796336, 96.390, 4541.0, 67.3869
40.617056901, 96.390, 4478.0, 66.9179
40.643317466, 96.390, 4332.0, 65.8179
40.669578032, 96.390, 4013.0, 63.3482
40.695838597, 96.390, 3735.0, 61.1146
40.722099162, 96.390, 3535.0, 59.4559
40.748359728, 96.390, 3266.0, 57.1489
40.774620293, 96.390, 2890.0, 53.7587
40.800880858, 96.390, 2525.0, 50.2494
40.827141424, 96.390, 2331.0, 48.2804
40.853401989, 96.390, 2138.0, 46.2385
40.879662554, 96.390, 2115.0, 45.9891
40.905923120, 96.390, 1895.0, 43.5316
40.932183685, 96.390, 1832.0, 42.8019
40.958444251, 96.390, 1694.0, 41.1582
40.984704816, 96.390, 1712.0, 41.3763
41.010965381, 96.390, 1626.0, 40.3237
41.037225947, 96.390, 1649.0, 40.6079
41.063486512, 96.390, 1635.0, 40.4351
41.089747077, 96.390, 1501.0, 38.7427
41.116007643, 96.390, 1546.0, 39.3192
41.142268208, 96.390, 1493.0, 38.6394
41.168528773, 96.390, 1519.0, 38.9744
41.194789339, 96.390, 1518.0, 38.9615
41.221049904, 96.390, 1553.0, 39.4081
41.247310469, 96.390, 1515.0, 38.9230
41.273571035, 96.390, 1560.0, 39.4968
41.299831600, 96.390, 1742.0, 41.7373
41.326092165, 96.390, 1849.0, 43.0000
41.352352731, 96.390, 2068.0, 45.4753
41.378613296, 96.390, 2257.0, 47.5079
41.404873862, 96.390, 2313.0, 48.0937
41.431134427, 96.390, 2397.0, 48.9592
41.457394992, 96.390, 2237.0, 47.2969
41.483655558, 96.390, 2062.0, 45.4093
41.509916123, 96.390, 2165.0, 46.5296
41.536176688, 96.390, 2025.0, 45.0000
41.562437254, 96.390, 2015.0, 44.8888
41.588697819, 96.390, 2000.0, 44.7214
41.614958384, 96.390, 1946.0, 44.1135
41.641218950, 96.390, 1798.0, 42.4028
41.667479515, 96.390, 1879.0, 43.3474
41.693740080, 96.390, 1701.0, 41.2432
41.720000646, 96.390, 1708.0, 41.3280
41.746261211, 96.390, 1635.0, 40.4351
41.772521776, 96.390, 1498.0, 38.7040
41.798782342, 96.390, 1512.0, 38.8844
41.825042907, 96.390, 1443.0, 37.9868
41.851303473, 96.390, 1425.0, 37.7492
41.877564038, 96.390, 1392.0, 37.3095
41.903824603, 96.390, 1367.0, 36.9730
41.930085169, 96.390, 1345.0, 36.6742
41.956345734, 96.390, 1347.0, 36.7015
41.982606299, 96.390, 1336.0, 36.5513
42.008866865, 96.390, 1326.0, 36.4143
42.035127430, 96.390, 1382.0, 37.1753
42.061387995, 96.390, 1351.0, 36.7560
42.087648561, 96.390, 1451.0, 38.0920
42.113909126, 96.390, 1489.0, 38.5876
42.140169691, 96.390, 1599.0, 39.9875
42.166430257, 96.390, 1648.0, 40.5956
42.192690822, 96.390, 1682.0, 41.0122
42.218951388, 96.390, 1583.0, 39.7869
42.245211953, 96.390, 1611.0, 40.1373
42.271472518, 96.390, 1612.0, 40.1497
42.297733084, 96.390, 1616.0, 40.1995
42.323993649, 96.390, 1607.0, 40.0874
42.350254214, 96.390, 1532.0, 39.1408
42.376514780, 96.390, 1432.0, 37.8418
42.402775345, 96.390, 1373.0, 37.0540
42.429035910, 96.390, 1417.0, 37.6431
42.455296476, 96.390, 1338.0, 36.5787
42.481557041, 96.390, 1340.0, 36.6060
42.507817606, 96.390, 1479.0, 38.4578
42.534078172, 96.390, 1532.0, 39.1408
42.560338737, 96.390, 1477.0, 38.4318
42.586599302, 96.390, 1548.0, 39.3446
42.612859868, 96.390, 1448.0, 38.0526
42.639120433, 96.390, 1418.0, 37.6563
42.665380999, 96.390, 1357.0, 36.8375
42.691641564, 96.390, 1442.0, 37.9737
42.717902129, 96.390, 1350.0, 36.7423
42.744162695, 96.390, 1320.0, 36.3318
42.770423260, 96.390, 1189.0, 34.4819
42.796683825, 96.390, 1168.0, 34.1760
42.822944391, 96.390, 1136.0, 33.7046
42.849204956, 96.390, 1164.0, 34.1174
42.875465521, 96.390, 1226.0, 35.0143
42.901726087, 96.390, 1244.0, 35.2704
42.927986652, 96.390, 1344.0, 36.6606
42.954247217, 96.390, 1335.0, 36.5377
42.980507783, 96.390, 1261.0, 35.5106
43.006768348, 96.390, 1281.0, 35.7911
43.033028914, 96.390, 1201.0, 34.6554
43.059289479, 96.390, 1158.0, 34.0294
43.085550044, 96.390, 1186.0, 34.4384
43.111810610, 96.390, 1132.0, 33.6452
43.138071175, 96.390, 1176.0, 34.2929
43.164331740, 96.390, 1169.0, 34.1906
43.190592306, 96.390, 1164.0, 34.1174
43.216852871, 96.390, 1092.0, 33.0454
43.243113436, 96.390, 1121.0, 33.4813
43.269374002, 96.390, 1066.0, 32.6497
43.295634567, 96.390, 1167.0, 34.1614
43.321895132, 96.390, 1121.0, 33.4813
43.348155698, 96.390, 1121.0, 33.4813
43.374416263, 96.390, 1133.0, 33.6601
43.400676828, 96.390, 1153.0, 33.9559
43.426937394, 96.390, 1143.0, 33.8083
43.453197959, 96.390, 1153.0, 33.9559
43.479458525, 96.390, 1188.0, 34.4674
43.505719090, 96.390, 1295.0, 35.9861
43.531979655, 96.390, 1252.0, 35.3836
43.558240221, 96.390, 1383.0, 37.1887
43.584500786, 96.390, 1393.0, 37.3229
43.610761351, 96.390, 1487.0, 38.5616
43.637021917, 96.390, 1458.0, 38.1838
43.663282482, 96.390, 1535.0, 39.1791
43.689543047, 96.390, 1652.0, 40.6448
43.715803613, 96.390, 1763.0, 41.9881
43.742064178, 96.390, 1979.0, 44.4860
43.768324743, 96.390, 2030.0, 45.0555
43.794585309, 96.390, 2174.0, 46.6262
43.820845874, 96.390, 1995.0, 44.6654
43.847106440, 96.390, 1850.0, 43.0116
43.873367005, 96.390, 1803.0, 42.4617
43.899627570, 96.390, 1821.0, 42.6732
43.925888136, 96.390, 1671.0, 40.8779
43.952148701, 96.390, 1514.0, 38.9102
43.978409266, 96.390, 1365.0, 36.9459
44.004669832, 96.390, 1372.0, 37.0405
44.030930397, 96.390, 1320.0, 36.3318
44.057190962, 96.390, 1272.0, 35.6651
44.083451528, 96.390, 1302.0, 36.0832
44.109712093, 96.390, 1353.0, 36.7831
44.135972658, 96.390, 1348.0, 36.7151
44.162233224, 96.390, 1380.0, 37.1484
44.188493789, 96.390, 1456.0, 38.1576
44.214754354, 96.390, 1549.0, 39.3573
44.241014920, 96.390, 1672.0, 40.8901
44.267275485, 96.390, 1654.0, 40.6694
44.293536051, 96.390, 1688.0, 41.0853
44.319796616, 96.390, 1702.0, 41.2553
44.346057181, 96.390, 1834.0, 42.8252
44.372317747, 96.390, 1811.0, 42.5558
44.398578312, 96.390, 1736.0, 41.6653
44.424838877, 96.390, 1808.0, 42.5206
44.451099443, 96.390, 1694.0, 41.1582
44.477360008, 96.390, 1605.0, 40.0625
44.503620573, 96.390, 1517.0, 38.9487
44.529881139, 96.390, 1417.0, 37.6431
44.556141704, 96.390, 1370.0, 37.0135
44.582402269, 96.390, 1250.0, 35.3553
44.608662835, 96.390, 1209.0, 34.7707
44.634923400, 96.390, 1117.0, 33.4215
44.661183966, 96.390, 1118.0, 33.4365
44.687444531, 96.390, 1102.0, 33.1964
44.713705096, 96.390, 1111.0, 33.3317
44.739965662, 96.390, 1111.0, 33.3317
44.766226227, 96.390, 1094.0, 33.0757
44.792486792, 96.390, 1161.0, 34.0735
44.818747358, 96.390, 1242.0, 35.2420
44.845007923, 96.390, 1264.0, 35.5528
44.871268488, 96.390, 1363.0, 36.9188
44.897529054, 96.390, 1350.0, 36.7423
44.923789619, 96.390, 1281.0, 35.7911
44.950050184, 96.390, 1280.0, 35.7771
44.976310750, 96.390, 1257.0, 35.4542
45.002571315, 96.390, 1302.0, 36.0832
45.028831880, 96.390, 1365.0, 36.9459
45.055092446, 96.390, 1374.0, 37.0675
45.081353011, 96.390, 1416.0, 37.6298
45.107613577, 96.390, 1498.0, 38.7040
45.133874142, 96.390, 1725.0, 41.5331
45.160134707, 96.390, 1667.0, 40.8289
45.186395273, 96.390, 1536.0, 39.1918
45.212655838, 96.390, 1510.0, 38.8587
45.238916403, 96.390, 1509.0, 38.8458
45.265176969, 96.390, 1575.0, 39.6863
45.291437534, 96.390, 1561.0, 39.5095
45.317698099, 96.390, 1645.0, 40.5586
45.343958665, 96.390, 1654.0, 40.6694
45.370219230, 96.390, 1728.0, 41.5692
45.396479795, 96.390, 1606.0, 40.0749
45.422740361, 96.390, 1587.0, 39.8372
45.449000926, 96.390, 1798.0, 42.4028
45.475261492, 96.390, 1875.0, 43.3013
45.501522057, 96.390, 1840.0, 42.8952
45.527782622, 96.390, 1748.0, 41.8091
45.554043188, 96.390, 1637.0, 40.4599
45.580303753, 96.390, 1547.0, 39.3319
45.606564318, 96.390, 1529.0, 39.1024
45.632824884, 96.390, 1504.0, 38.7814
45.659085449, 96.390, 1451.0, 38.0920
45.685346014, 96.390, 1387.0, 37.2424
45.711606580, 96.390, 1332.0, 36.4966
45.737867145, 96.390, 1319.0, 36.3180
45.764127710, 96.390, 1353.0, 36.7831
45.790388276, 96.390, 1391.0, 37.2961
45.816648841, 96.390, 1367.0, 36.9730
45.842909406, 96.390, 1361.0, 36.8917
45.869169972, 96.390, 1377.0, 37.1080
45.895430537, 96.390, 1329.0, 36.4555
45.921691103, 96.390, 1353.0, 36.7831
45.947951668, 96.390, 1316.0, 36.2767
45.974212233, 96.390, 1289.0, 35.9026
46.000472799, 96.390, 1216.0, 34.8712
46.026733364, 96.390, 1297.0, 36.0139
46.052993929, 96.390, 1292.0, 35.9444
46.079254495, 96.390, 1300.0, 36.0555
46.105515060, 96.390, 1239.0, 35.1994
46.131775625, 96.390, 1288.0, 35.8887
46.158036191, 96.390, 1272.0, 35.6651
46.184296756, 96.390, 1301.0, 36.0694
46.210557321, 96.390, 1373.0, 37.0540
46.236817887, 96.390, 1393.0, 37.3229
46.263078452, 96.390, 1490.0, 38.6005
46.289339017, 96.390, 1515.0, 38.9230
46.315599583, 96.390, 1469.0, 38.3275
46.341860148, 96.390, 1388.0, 37.2559
46.368120714, 96.390, 1422.0, 37.7094
46.394381279, 96.390, 1448.0, 38.0526
46.420641844, 96.390, 1376.0, 37.0945
46.446902410, 96.390, 1366.0, 36.9594
46.473162975, 96.390, 1312.0, 36.2215
46.499423540, 96.390, 1237.0, 35.1710
46.525684106, 96.390, 1220.0, 34.9285
46.551944671, 96.390, 1184.0, 34.4093
46.578205236, 96.390, 1206.0, 34.7275
46.604465802, 96.390, 1233.0, 35.1141
46.630726367, 96.390, 1110.0, 33.3167
46.656986932, 96.390, 1158.0, 34.0294
46.683247498, 96.390, 1096.0, 33.1059
46.709508063, 96.390, 1131.0, 33.6303
46.735768629, 96.390, 1087.0, 32.9697
46.762029194, 96.390, 1129.0, 33.6006
46.788289759, 96.390, 1058.0, 32.5269
46.814550325, 96.390, 1101.0, 33.1813
46.840810890, 96.390, 1129.0, 33.6006
46.867071455, 96.390, 1103.0, 33.2114
46.893332021, 96.390, 1141.0, 33.7787
46.919592586, 96.390, 1151.0, 33.9264
46.945853151, 96.390, 1231.0, 35.0856
46.972113717, 96.390, 1307.0, 36.1525
46.998374282, 96.390, 1326.0, 36.4143
47.024634847, 96.390, 1382.0, 37.1753
47.050895413, 96.390, 1418.0, 37.6563
47.077155978, 96.390, 1259.0, 35.4824
47.103416543, 96.390, 1302.0, 36.0832
47.129677109, 96.390, 1328.0, 36.4417
47.155937674, 96.390, 1304.0, 36.1109
47.182198240, 96.390, 1321.0, 36.3456
47.208458805, 96.390, 1276.0, 35.7211
47.234719370, 96.390, 1261.0, 35.5106
47.260979936, 96.390, 1248.0, 35.3270
47.287240501, 96.390, 1382.0, 37.1753
47.313501066, 96.390, 1378.0, 37.1214
47.339761632, 96.390, 1429.0, 37.8021
47.366022197, 96.390, 1447.0, 38.0395
47.392282762, 96.390, 1520.0, 38.9872
47.418543328, 96.390, 1514.0, 38.9102
47.444803893, 96.390, 1487.0, 38.5616
47.471064458, 96.390, 1468.0, 38.3145
47.497325024, 96.390, 1499.0, 38.7169
47.523585589, 96.390, 1394.0, 37.3363
47.549846155, 96.390, 1344.0, 36.6606
47.576106720, 96.390, 1272.0, 35.6651
47.602367285, 96.390, 1289.0, 35.9026
47.628627851, 96.390, 1207.0, 34.7419
47.654888416, 96.390, 1183.0, 34.3948
47.681148981, 96.390, 1196.0, 34.5832
47.707409547, 96.390, 1133.0, 33.6601
47.733670112, 96.390, 1176.0, 34.2929
47.759930677, 96.390, 1104.0, 33.2265
47.786191243, 96.390, 1124.0, 33.5261
47.812451808, 96.390, 1127.0, 33.5708
47.838712373, 96.390, 1128.0, 33.5857
47.864972939, 96.390, 1112.0, 33.3467
47.891233504, 96.390, 1157.0, 34.0147
47.917494069, 96.390, 1185.0, 34.4238
47.943754635, 96.390, 1314.0, 36.2491
47.970015200, 96.390, 1311.0, 36.2077
47.996275766, 96.390, 1340.0, 36.6060
48.022536331, 96.390, 1389.0, 37.2693
48.048796896, 96.390, 1400.0, 37.4166
48.075057462, 96.390, 1360.0, 36.8782
48.101318027, 96.390, 1424.0, 37.7359
48.127578592, 96.390, 1436.0, 37.8946
48.153839158, 96.390, 1501.0, 38.7427
48.180099723, 96.390, 1410.0, 37.5500
48.206360288, 96.390, 1484.0, 38.5227
48.232620854, 96.390, 1437.0, 37.9078
48.258881419, 96.390, 1368.0, 36.9865
48.285141984, 96.390, 1287.0, 35.8748
48.311402550, 96.390, 1141.0, 33.7787
48.337663115, 96.390, 1155.0, 33.9853
48.363923681, 96.390, 1115.0, 33.3916
48.390184246, 96.390, 1209.0, 34.7707
48.416444811, 96.390, 1171.0, 34.2199
48.442705377, 96.390, 1140.0, 33.7639
48.468965942, 96.390, 1253.0, 35.3977
48.495226507, 96.390, 1329.0, 36.4555
48.521487073, 96.390, 1381.0, 37.1618
48.547747638, 96.390, 1318.0, 36.3043
48.574008203, 96.390, 1264.0, 35.5528
48.600268769, 96.390, 1219.0, 34.9142
48.626529334, 96.390, 1245.0, 35.2846
48.652789899, 96.390, 1204.0, 34.6987
48.679050465, 96.390, 1187.0, 34.4529
48.705311030, 96.390, 1096.0, 33.1059
48.731571595, 96.390, 1087.0, 32.9697
48.757832161, 96.390, 1081.0, 32.8786
48.784092726, 96.390, 1021.0, 31.9531
48.810353292, 96.390, 1072.0, 32.7414
48.836613857, 96.390, 1025.0, 32.0156
48.862874422, 96.390, 1028.0, 32.0624
48.889134988, 96.390, 1074.0, 32.7719
48.915395553, 96.390, 1033.0, 32.1403
48.941656118, 96.390, 1021.0, 31.9531
48.967916684, 96.390, 1075.0, 32.7872
48.994177249, 96.390, 1113.0, 33.3617
49.020437814, 96.390, 1111.0, 33.3317
49.046698380, 96.390, 1054.0, 32.4654
49.072958945, 96.390, 1074.0, 32.7719
49.099219510, 96.390, 1066.0, 32.6497
49.125480076, 96.390, 1055.0, 32.4808
49.151740641, 96.390, 1086.0, 32.9545
49.178001207, 96.390, 1141.0, 33.7787
49.204261772, 96.390, 1122.0, 33.4963
49.230522337, 96.390, 1153.0, 33.9559
49.256782903, 96.390, 1137.0, 33.7194
49.283043468, 96.390, 1095.0, 33.0908
49.309304033, 96.390, 1016.0, 31.8748
49.335564599, 96.390, 1068.0, 32.6803
49.361825164, 96.390, 1053.0, 32.4500
49.388085729, 96.390, 1105.0, 33.2415
49.414346295, 96.390, 977.0, 31.2570
49.440606860, 96.390, 1076.0, 32.8024
49.466867425, 96.390, 1061.0, 32.5730
49.493127991, 96.390, 1070.0, 32.7109
49.519388556, 96.390, 1046.0, 32.3419
49.545649121, 96.390, 994.0, 31.5278
49.571909687, 96.390, 1018.0, 31.9061
49.598170252, 96.390, 1019.0, 31.9218
49.624430818, 96.390, 1026.0, 32.0312
49.650691383, 96.390, 995.0, 31.5436
49.676951948, 96.390, 1013.0, 31.8277
49.703212514, 96.390, 1021.0, 31.9531
49.729473079, 96.390, 1095.0, 33.0908
49.755733644, 96.390, 1091.0, 33.0303
49.781994210, 96.390, 1096.0, 33.1059
49.808254775, 96.390, 1145.0, 33.8378
49.834515340, 96.390, 1004.0, 31.6860
49.860775906, 96.390, 1039.0, 32.2335
49.887036471, 96.390, 1095.0, 33.0908
49.913297036, 96.390, 1070.0, 32.7109
49.939557602, 96.390, 1014.0, 31.8434
49.965818167, 96.390, 1038.0, 32.2180
49.992078732, 96.390, 992.0, 31.4960
50.018339298, 96.390, 926.0, 30.4302
50.044599863, 96.390, 936.0, 30.5941
50.070860429, 96.390, 905.0, 30.0832
50.097120994, 96.390, 1009.0, 31.7648
50.123381559, 96.390, 927.0, 30.4467
50.149642125, 96.390, 994.0, 31.5278
50.175902690, 96.390, 1053.0, 32.4500
50.202163255, 96.390, 1123.0, 33.5112
50.228423821, 96.390, 1145.0, 33.8378
50.254684386, 96.390, 1242.0, 35.2420
50.280944951, 96.390, 1327.0, 36.4280
50.307205517, 96.390, 1241.0, 35.2278
50.333466082, 96.390, 1161.0, 34.0735
50.359726647, 96.390, 1150.0, 33.9116
50.385987213, 96.390, 1185.0, 34.4238
50.412247778, 96.390, 1124.0, 33.5261
50.438508344, 96.390, 1096.0, 33.1059
50.464768909, 96.390, 1049.0, 32.3883
50.491029474, 96.390, 968.0, 31.1127
50.517290040, 96.390, 988.0, 31.4325
50.543550605, 96.390, 942.0, 30.6920
50.569811170, 96.390, 916.0, 30.2655
50.596071736, 96.390, 923.0, 30.3809
50.622332301, 96.390, 979.0, 31.2890
50.648592866, 96.390, 900.0, 30.0000
50.674853432, 96.390, 931.0, 30.5123
50.701113997, 96.390, 881.0, 29.6816
50.727374562, 96.390, 948.0, 30.7896
50.753635128, 96.390, 910.0, 30.1662
50.779895693, 96.390, 985.0, 31.3847
50.806156258, 96.390, 929.0, 30.4795
50.832416824, 96.390, 944.0, 30.7246
50.858677389, 96.390, 942.0, 30.6920
50.884937955, 96.390, 928.0, 30.4631
50.911198520, 96.390, 877.0, 29.6142
50.937459085, 96.390, 905.0, 30.0832
50.963719651, 96.390, 927.0, 30.4467
50.989980216, 96.390, 905.0, 30.0832
51.016240781, 96.390, 923.0, 30.3809
51.042501347, 96.390, 965.0, 31.0644
51.068761912, 96.390, 985.0, 31.3847
51.095022477, 96.390, 981.0, 31.3209
51.121283043, 96.390, 990.0, 31.4643
51.147543608, 96.390, 933.0, 30.5450
51.173804173, 96.390, 1040.0, 32.2490
51.200064739, 96.390, 1049.0, 32.3883
51.226325304, 96.390, 1115.0, 33.3916
51.252585870, 96.390, 1083.0, 32.9090
51.278846435, 96.390, 1153.0, 33.9559
51.305107000, 96.390, 1062.0, 32.5883
51.331367566, 96.390, 1094.0, 33.0757
51.357628131, 96.390, 1032.0, 32.1248
51.383888696, 96.390, 1052.0, 32.4345
51.410149262, 96.390, 1023.0, 31.9844
51.436409827, 96.390, 963.0, 31.0322
51.462670392, 96.390, 951.0, 30.8383
51.488930958, 96.390, 935.0, 30.5778
51.515191523, 96.390, 998.0, 31.5911
51.541452088, 96.390, 930.0, 30.4959
51.567712654, 96.390, 934.0, 30.5614
51.593973219, 96.390, 934.0, 30.5614
51.620233784, 96.390, 954.0, 30.8869
51.646494350, 96.390, 961.0, 31.0000
51.672754915, 96.390, 867.0, 29.4449
51.699015481, 96.390, 979.0, 31.2890
51.725276046, 96.390, 998.0, 31.5911
51.751536611, 96.390, 1085.0, 32.9393
51.777797177, 96.390, 1057.0, 32.5115
51.804057742, 96.390, 1078.0, 32.8329
51.830318307, 96.390, 1051.0, 32.4191
51.856578873, 96.390, 1056.0, 32.4962
51.882839438, 96.390, 1039.0, 32.2335
51.909100003, 96.390, 1117.0, 33.4215
51.935360569, 96.390, 1039.0, 32.2335
51.961621134, 96.390, 1043.0, 32.2955
51.987881699, 96.390, 1138.0, 33.7343
52.014142265, 96.390, 1095.0, 33.0908
52.040402830, 96.390, 1116.0, 33.4066
52.066663396, 96.390, 1193.0, 34.5398
52.092923961, 96.390, 1157.0, 34.0147
52.119184526, 96.390, 1253.0, 35.3977
52.145445092, 96.390, 1395.0, 37.3497
52.171705657, 96.390, 1400.0, 37.4166
52.197966222, 96.390, 1529.0, 39.1024
52.224226788, 96.390, 1594.0, 39.9249
52.250487353, 96.390, 1558.0, 39.4715
52.276747918, 96.390, 1611.0, 40.1373
52.303008484, 96.390, 1587.0, 39.8372
52.329269049, 96.390, 1615.0, 40.1871
52.355529614, 96.390, 1531.0, 39.1280
52.381790180, 96.390, 1469.0, 38.3275
52.408050745, 96.390, 1473.0, 38.3797
52.434311310, 96.390, 1444.0, 38.0000
52.460571876, 96.390, 1439.0, 37.9342
52.486832441, 96.390, 1336.0, 36.5513
52.513093007, 96.390, 1407.0, 37.5100
52.539353572, 96.390, 1374.0, 37.0675
52.565614137, 96.390, 1452.0, 38.1051
52.591874703, 96.390, 1529.0, 39.1024
52.618135268, 96.390, 1590.0, 39.8748
52.644395833, 96.390, 1748.0, 41.8091
52.670656399, 96.390, 1906.0, 43.6578
52.696916964, 96.390, 2013.0, 44.8665
52.723177529, 96.390, 1994.0, 44.6542
52.749438095, 96.390, 1876.0, 43.3128
52.775698660, 96.390, 1952.0, 44.1814
52.801959225, 96.390, 1936.0, 44.0000
52.828219791, 96.390, 1892.0, 43.4971
52.854480356, 96.390, 1882.0, 43.3820
52.880740922, 96.390, 1962.0, 44.2945
52.907001487, 96.390, 1830.0, 42.7785
52.933262052, 96.390, 1838.0, 42.8719
52.959522618, 96.390, 1770.0, 42.0714
52.985783183, 96.390, 1745.0, 41.7732
53.012043748, 96.390, 1809.0, 42.5323
53.038304314, 96.390, 1886.0, 43.4281
53.064564879, 96.390, 1920.0, 43.8178
53.090825444, 96.390, 1948.0, 44.1362
53.117086010, 96.390, 2015.0, 44.8888
53.143346575, 96.390, 2049.0, 45.2659
53.169607140, 96.390, 2042.0, 45.1885
53.195867706, 96.390, 2031.0, 45.0666
53.222128271, 96.390, 2096.0, 45.7821
53.248388836, 96.390, 1912.0, 43.7264
53.274649402, 96.390, 1924.0, 43.8634
53.300909967, 96.390, 1745.0, 41.7732
53.327170533, 96.390, 1738.0, 41.6893
53.353431098, 96.390, 1617.0, 40.2119
53.379691663, 96.390, 1524.0, 39.0384
53.405952229, 96.390, 1510.0, 38.8587
53.432212794, 96.390, 1357.0, 36.8375
53.458473359, 96.390, 1382.0, 37.1753
53.484733925, 96.390, 1370.0, 37.0135
53.510994490, 96.390, 1252.0, 35.3836
53.537255055, 96.390, 1246.0, 35.2987
53.563515621, 96.390, 1178.0, 34.3220
53.589776186, 96.390, 1101.0, 33.1813
53.616036751, 96.390, 1122.0, 33.4963
53.642297317, 96.390, 1072.0, 32.7414
53.668557882, 96.390, 1075.0, 32.7872
53.694818448, 96.390, 1016.0, 31.8748
53.721079013, 96.390, 1003.0, 31.6702
53.747339578, 96.390, 976.0, 31.2410
53.773600144, 96.390, 1002.0, 31.6544
53.799860709, 96.390, 957.0, 30.9354
53.826121274, 96.390, 933.0, 30.5450
53.852381840, 96.390, 974.0, 31.2090
53.878642405, 96.390, 991.0, 31.4802
53.904902970, 96.390, 936.0, 30.5941
53.931163536, 96.390, 982.0, 31.3369
53.957424101, 96.390, 966.0, 31.0805
53.983684666, 96.390, 973.0, 31.1929
54.009945232, 96.390, 976.0, 31.2410
54.036205797, 96.390, 976.0, 31.2410
54.062466362, 96.390, 1095.0, 33.0908
54.088726928, 96.390, 1064.0, 32.6190
54.114987493, 96.390, 1096.0, 33.1059
54.141248059, 96.390, 1129.0, 33.6006
54.167508624, 96.390, 1198.0, 34.6121
54.193769189, 96.390, 1239.0, 35.1994
54.220029755, 96.390, 1206.0, 34.7275
54.246290320, 96.390, 1226.0, 35.0143
54.272550885, 96.390, 1234.0, 35.1283
54.298811451, 96.390, 1292.0, 35.9444
54.325072016, 96.390, 1388.0, 37.2559
54.351332581, 96.390, 1465.0, 38.2753
54.377593147, 96.390, 1430.0, 37.8153
54.403853712, 96.390, 1340.0, 36.6060
54.430114277, 96.390, 1330.0, 36.4692
54.456374843, 96.390, 1242.0, 35.2420
54.482635408, 96.390, 1196.0, 34.5832
54.508895973, 96.390, 1197.0, 34.5977
54.535156539, 96.390, 1129.0, 33.6006
54.561417104, 96.390, 1058.0, 32.5269
54.587677670, 96.390, 1018.0, 31.9061
54.613938235, 96.390, 937.0, 30.6105
54.640198800, 96.390, 880.0, 29.6648
54.666459366, 96.390, 904.0, 30.0666
54.692719931, 96.390, 818.0, 28.6007
54.718980496, 96.390, 841.0, 29.0000
54.745241062, 96.390, 853.0, 29.2062
54.771501627, 96.390, 819.0, 28.6182
54.797762192, 96.390, 836.0, 28.9137
54.824022758, 96.390, 831.0, 28.8271
54.850283323, 96.390, 803.0, 28.3373
54.876543888, 96.390, 869.0, 29.4788
54.902804454, 96.390, 845.0, 29.0689
54.929065019, 96.390, 845.0, 29.0689
54.955325585, 96.390, 795.0, 28.1957
54.981586150, 96.390, 830.0, 28.8097
55.007846715, 96.390, 888.0, 29.7993
55.034107281, 96.390, 837.0, 28.9310
55.060367846, 96.390, 857.0, 29.2746
55.086628411, 96.390, 812.0, 28.4956
55.112888977, 96.390, 778.0, 27.8927
55.139149542, 96.390, 817.0, 28.5832
55.165410107, 96.390, 746.0, 27.3130
55.191670673, 96.390, 720.0, 26.8328
55.217931238, 96.390, 734.0, 27.0924
55.244191803, 96.390, 774.0, 27.8209
55.270452369, 96.390, 792.0, 28.1425
55.296712934, 96.390, 735.0, 27.1109
55.322973499, 96.390, 718.0, 26.7955
55.349234065, 96.390, 804.0, 28.3549
55.375494630, 96.390, 753.0, 27.4408
55.401755196, 96.390, 778.0, 27.8927
55.428015761, 96.390, 797.0, 28.2312
55.454276326, 96.390, 773.0, 27.8029
55.480536892, 96.390, 843.0, 29.0345
55.506797457, 96.390, 854.0, 29.2233
55.533058022, 96.390, 868.0, 29.4618
55.559318588, 96.390, 864.0, 29.3939
55.585579153, 96.390, 900.0, 30.0000
55.611839718, 96.390, 862.0, 29.3598
55.638100284, 96.390, 958.0, 30.9516
55.664360849, 96.390, 884.0, 29.7321
55.690621414, 96.390, 876.0, 29.5973
55.716881980, 96.390, 894.0, 29.8998
55.743142545, 96.390, 916.0, 30.2655
55.769403111, 96.390, 896.0, 29.9333
55.795663676, 96.390, 912.0, 30.1993
55.821924241, 96.390, 923.0, 30.3809
55.848184807, 96.390, 828.0, 28.7750
55.874445372, 96.390, 869.0, 29.4788
55.900705937, 96.390, 869.0, 29.4788
55.926966503, 96.390, 833.0, 28.8617
55.953227068, 96.390, 841.0, 29.0000
55.979487633, 96.390, 852.0, 29.1890
56.005748199, 96.390, 848.0, 29.1204
56.032008764, 96.390, 793.0, 28.1603
56.058269329, 96.390, 876.0, 29.5973
56.084529895, 96.390, 862.0, 29.3598
56.110790460, 96.390, 830.0, 28.8097
56.137051025, 96.390, 814.0, 28.5307
56.163311591, 96.390, 781.0, 27.9464
56.189572156, 96.390, 739.0, 27.1846
56.215832722, 96.390, 826.0, 28.7402
56.242093287, 96.390, 784.0, 28.0000
56.268353852, 96.390, 804.0, 28.3549
56.294614418, 96.390, 798.0, 28.2489
56.320874983, 96.390, 723.0, 26.8887
56.347135548, 96.390, 749.0, 27.3679
56.373396114, 96.390, 785.0, 28.0179
56.399656679, 96.390, 786.0, 28.0357
56.425917244, 96.390, 774.0, 27.8209
56.452177810, 96.390, 769.0, 27.7308
56.478438375, 96.390, 855.0, 29.2404
56.504698940, 96.390, 832.0, 28.8444
56.530959506, 96.390, 846.0, 29.0861
56.557220071, 96.390, 867.0, 29.4449
56.583480637, 96.390, 914.0, 30.2324
56.609741202, 96.390, 881.0, 29.6816
56.636001767, 96.390, 896.0, 29.9333
56.662262333, 96.390, 816.0, 28.5657
56.688522898, 96.390, 901.0, 30.0167
56.714783463, 96.390, 849.0, 29.1376
56.741044029, 96.390, 834.0, 28.8791
56.767304594, 96.390, 790.0, 28.1069
56.793565159, 96.390, 772.0, 27.7849
56.819825725, 96.390, 825.0, 28.7228
56.846086290, 96.390, 811.0, 28.4781
56.872346855, 96.390, 775.0, 27.8388
56.898607421, 96.390, 768.0, 27.7128
56.924867986, 96.390, 768.0, 27.7128
56.951128551, 96.390, 759.0, 27.5500
56.977389117, 96.390, 760.0, 27.5681
57.003649682, 96.390, 779.0, 27.9106
57.029910248, 96.390, 786.0, 28.0357
57.056170813, 96.390, 803.0, 28.3373
57.082431378, 96.390, 868.0, 29.4618
57.108691944, 96.390, 845.0, 29.0689
57.134952509, 96.390, 853.0, 29.2062
57.161213074, 96.390, 827.0, 28.7576
57.187473640, 96.390, 852.0, 29.1890
57.213734205, 96.390, 845.0, 29.0689
57.239994770, 96.390, 841.0, 29.0000
57.266255336, 96.390, 856.0, 29.2575
57.292515901, 96.390, 918.0, 30.2985
57.318776466, 96.390, 835.0, 28.8964
57.345037032, 96.390, 885.0, 29.7489
57.371297597, 96.390, 878.0, 29.6311
57.397558163, 96.390, 940.0, 30.6594
57.423818728, 96.390, 895.0, 29.9166
57.450079293, 96.390, 916.0, 30.2655
57.476339859, 96.390, 959.0, 30.9677
57.502600424, 96.390, 963.0, 31.0322
57.528860989, 96.390, 994.0, 31.5278
57.555121555, 96.390, 962.0, 31.0161
57.581382120, 96.390, 1048.0, 32.3728
57.607642685, 96.390, 1042.0, 32.2800
57.633903251, 96.390, 1119.0, 33.4515
57.660163816, 96.390, 1164.0, 34.1174
57.686424381, 96.390, 1098.0, 33.1361
57.712684947, 96.390, 1039.0, 32.2335
57.738945512, 96.390, 1009.0, 31.7648
57.765206077, 96.390, 946.0, 30.7571
57.791466643, 96.390, 997.0, 31.5753
57.817727208, 96.390, 927.0, 30.4467
57.843987774, 96.390, 932.0, 30.5287
57.870248339, 96.390, 890.0, 29.8329
57.896508904, 96.390, 925.0, 30.4138
57.922769470, 96.390, 860.0, 29.3258
57.949030035, 96.390, 805.0, 28.3725
57.975290600, 96.390, 829.0, 28.7924
58.001551166, 96.390, 908.0, 30.1330
58.027811731, 96.390, 941.0, 30.6757
58.054072296, 96.390, 987.0, 31.4166
58.080332862, 96.390, 1103.0, 33.2114
58.106593427, 96.390, 1117.0, 33.4215
58.132853992, 96.390, 917.0, 30.2820
58.159114558, 96.390, 876.0, 29.5973
58.185375123, 96.390, 918.0, 30.2985
58.211635689, 96.390, 871.0, 29.5127
58.237896254, 96.390, 893.0, 29.8831
58.264156819, 96.390, 873.0, 29.5466
58.290417385, 96.390, 878.0, 29.6311
58.316677950, 96.390, 828.0, 28.7750
58.342938515, 96.390, 810.0, 28.4605
58.369199081, 96.390, 766.0, 27.6767
58.395459646, 96.390, 799.0, 28.2666
58.421720211, 96.390, 786.0, 28.0357
58.447980777, 96.390, 789.0, 28.0891
58.474241342, 96.390, 768.0, 27.7128
58.500501907, 96.390, 887.0, 29.7825
58.526762473, 96.390, 869.0, 29.4788
58.553023038, 96.390, 897.0, 29.9500
58.579283603, 96.390, 977.0, 31.2570
58.605544169, 96.390, 978.0, 31.2730
58.631804734, 96.390, 1044.0, 32.3110
58.658065300, 96.390, 1019.0, 31.9218
58.684325865, 96.390, 1172.0, 34.2345
58.710586430, 96.390, 1113.0, 33.3617
58.736846996, 96.390, 1036.0, 32.1870
58.763107561, 96.390, 1078.0, 32.8329
58.789368126, 96.390, 1030.0, 32.0936
58.815628692, 96.390, 1026.0, 32.0312
58.841889257, 96.390, 1005.0, 31.7017
58.868149822, 96.390, 948.0, 30.7896
58.894410388, 96.390, 959.0, 30.9677
58.920670953, 96.390, 892.0, 29.8664
58.946931518, 96.390, 889.0, 29.8161
58.973192084, 96.390, 858.0, 29.2916
58.999452649, 96.390, 920.0, 30.3315
59.025713214, 96.390, 902.0, 30.0333
59.051973780, 96.390, 842.0, 29.0172
59.078234345, 96.390, 835.0, 28.8964
59.104494911, 96.390, 835.0, 28.8964
59.130755476, 96.390, 874.0, 29.5635
59.157016041, 96.390, 850.0, 29.1548
59.183276607, 96.390, 935.0, 30.5778
59.209537172, 96.390, 897.0, 29.9500
59.235797737, 96.390, 963.0, 31.0322
59.262058303, 96.390, 998.0, 31.5911
59.288318868, 96.390, 1005.0, 31.7017
59.314579433, 96.390, 1011.0, 31.7962
59.340839999, 96.390, 892.0, 29.8664
59.367100564, 96.390, 856.0, 29.2575
59.393361129, 96.390, 890.0, 29.8329
59.419621695, 96.390, 909.0, 30.1496
59.445882260, 96.390, 914.0, 30.2324
59.472142826, 96.390, 899.0, 29.9833
59.498403391, 96.390, 891.0, 29.8496
59.524663956, 96.390, 910.0, 30.1662
59.550924522, 96.390, 859.0, 29.3087
59.577185087, 96.390, 878.0, 29.6311
59.603445652, 96.390, 813.0, 28.5132
59.629706218, 96.390, 838.0, 28.9482
59.655966783, 96.390, 807.0, 28.4077
59.682227348, 96.390, 775.0, 27.8388
59.708487914, 96.390, 818.0, 28.6007
59.734748479, 96.390, 821.0, 28.6531
59.761009044, 96.390, 764.0, 27.6405
59.787269610, 96.390, 852.0, 29.1890
59.813530175, 96.390, 777.0, 27.8747
59.839790740, 96.390, 815.0, 28.5482
59.866051306, 96.390, 813.0, 28.5132
59.892311871, 96.390, 786.0, 28.0357
59.918572437, 96.390, 821.0, 28.6531
59.944833002, 96.390, 871.0, 29.5127
59.971093567, 96.390, 855.0, 29.2404
59.997354133, 96.390, 856.0, 29.2575
60.023614698, 96.390, 873.0, 29.5466
60.049875263, 96.390, 844.0, 29.0517
60.076135829, 96.390, 863.0, 29.3769
60.102396394, 96.390, 898.0, 29.9666
60.128656959, 96.390, 869.0, 29.4788
60.154917525, 96.390, 828.0, 28.7750
60.181178090, 96.390, 836.0, 28.9137
60.207438655, 96.390, 855.0, 29.2404
60.233699221, 96.390, 906.0, 30.0998
60.259959786, 96.390, 912.0, 30.1993
60.286220352, 96.390, 883.0, 29.7153
60.312480917, 96.390, 876.0, 29.5973
60.338741482, 96.390, 838.0, 28.9482
60.365002048, 96.390, 864.0, 29.3939
60.391262613, 96.390, 923.0, 30.3809
60.417523178, 96.390, 918.0, 30.2985
60.443783744, 96.390, 894.0, 29.8998
60.470044309, 96.390, 953.0, 30.8707
60.496304874, 96.390, 893.0, 29.8831
60.522565440, 96.390, 915.0, 30.2490
60.548826005, 96.390, 918.0, 30.2985
60.575086570, 96.390, 908.0, 30.1330
60.601347136, 96.390, 863.0, 29.3769
60.627607701, 96.390, 944.0, 30.7246
60.653868266, 96.390, 945.0, 30.7409
60.680128832, 96.390, 1053.0, 32.4500
60.706389397, 96.390, 1084.0, 32.9242
60.732649963, 96.390, 1100.0, 33.1662
60.758910528, 96.390, 1225.0, 35.0000
60.785171093, 96.390, 1260.0, 35.4965
60.811431659, 96.390, 1337.0, 36.5650
60.837692224, 96.390, 1332.0, 36.4966
60.863952789, 96.390, 1384.0, 37.2022
60.890213355, 96.390, 1474.0, 38.3927
60.916473920, 96.390, 1408.0, 37.5233
60.942734485, 96.390, 1406.0, 37.4967
60.968995051, 96.390, 1360.0, 36.8782
60.995255616, 96.390, 1363.0, 36.9188
61.021516181, 96.390, 1318.0, 36.3043
61.047776747, 96.390, 1302.0, 36.0832
61.074037312, 96.390, 1217.0, 34.8855
61.100297878, 96.390, 1128.0, 33.5857
61.126558443, 96.390, 1131.0, 33.6303
61.152819008, 96.390, 1111.0, 33.3317
61.179079574, 96.390, 1011.0, 31.7962
61.205340139, 96.390, 1076.0, 32.8024
61.231600704, 96.390, 943.0, 30.7083
61.257861270, 96.390, 1033.0, 32.1403
61.284121835, 96.390, 970.0, 31.1448
61.310382400, 96.390, 1030.0, 32.0936
61.336642966, 96.390, 940.0, 30.6594
61.362903531, 96.390, 928.0, 30.4631
61.389164096, 96.390, 955.0, 30.9031
61.415424662, 96.390, 912.0, 30.1993
61.441685227, 96.390, 906.0, 30.0998
61.467945792, 96.390, 1007.0, 31.7333
61.494206358, 96.390, 997.0, 31.5753
61.520466923, 96.390, 1006.0, 31.7175
61.546727489, 96.390, 951.0, 30.8383
61.572988054, 96.390, 975.0, 31.2250
61.599248619, 96.390, 936.0, 30.5941
61.625509185, 96.390, 862.0, 29.3598
61.651769750, 96.390, 846.0, 29.0861
61.678030315, 96.390, 873.0, 29.5466
61.704290881, 96.390, 985.0, 31.3847
61.730551446, 96.390, 902.0, 30.0333
61.756812011, 96.390, 902.0, 30.0333
61.783072577, 96.390, 884.0, 29.7321
61.809333142, 96.390, 927.0, 30.4467
61.835593707, 96.390, 879.0, 29.6479
61.861854273, 96.390, 938.0, 30.6268
61.888114838, 96.390, 946.0, 30.7571
61.914375404, 96.390, 930.0, 30.4959
61.940635969, 96.390, 965.0, 31.0644
61.966896534, 96.390, 944.0, 30.7246
61.993157100, 96.390, 1041.0, 32.2645
62.019417665, 96.390, 1032.0, 32.1248
62.045678230, 96.390, 1063.0, 32.6037
62.071938796, 96.390, 1048.0, 32.3728
62.098199361, 96.390, 1028.0, 32.0624
62.124459926, 96.390, 1034.0, 32.1559
62.150720492, 96.390, 1070.0, 32.7109
62.176981057, 96.390, 1093.0, 33.0606
62.203241622, 96.390, 1070.0, 32.7109
62.229502188, 96.390, 1098.0, 33.1361
62.255762753, 96.390, 1136.0, 33.7046
62.282023318, 96.390, 1015.0, 31.8591
62.308283884, 96.390, 1084.0, 32.9242
62.334544449, 96.390, 1103.0, 33.2114
62.360805015, 96.390, 1072.0, 32.7414
62.387065580, 96.390, 1013.0, 31.8277
62.413326145, 96.390, 1031.0, 32.1092
62.439586711, 96.390, 1051.0, 32.4191
62.465847276, 96.390, 1054.0, 32.4654
62.492107841, 96.390, 1000.0, 31.6228
62.518368407, 96.390, 951.0, 30.8383
62.544628972, 96.390, 911.0, 30.1828
62.570889537, 96.390, 951.0, 30.8383
62.597150103, 96.390, 982.0, 31.3369
62.623410668, 96.390, 984.0, 31.3688
62.649671233, 96.390, 973.0, 31.1929
62.675931799, 96.390, 1002.0, 31.6544
62.702192364, 96.390, 920.0, 30.3315
62.728452930, 96.390, 946.0, 30.7571
62.754713495, 96.390, 979.0, 31.2890
62.780974060, 96.390, 917.0, 30.2820
62.807234626, 96.390, 943.0, 30.7083
62.833495191, 96.390, 963.0, 31.0322
62.859755756, 96.390, 907.0, 30.1164
62.886016322, 96.390, 927.0, 30.4467
62.912276887, 96.390, 840.0, 28.9828
62.938537452, 96.390, 848.0, 29.1204
62.964798018, 96.390, 779.0, 27.9106
62.991058583, 96.390, 810.0, 28.4605
63.017319148, 96.390, 739.0, 27.1846
63.043579714, 96.390, 738.0, 27.1662
63.069840279, 96.390, 761.0, 27.5862
63.096100844, 96.390, 688.0, 26.2298
63.122361410, 96.390, 714.0, 26.7208
63.148621975, 96.390, 659.0, 25.6710
63.174882541, 96.390, 717.0, 26.7769
63.201143106, 96.390, 729.0, 27.0000
63.227403671, 96.390, 696.0, 26.3818
63.253664237, 96.390, 696.0, 26.3818
63.279924802, 96.390, 712.0, 26.6833
63.306185367, 96.390, 736.0, 27.1293
63.332445933, 96.390, 732.0, 27.0555
63.358706498, 96.390, 744.0, 27.2764
63.384967063, 96.390, 739.0, 27.1846
63.411227629, 96.390, 777.0, 27.8747
63.437488194, 96.390, 744.0, 27.2764
63.463748759, 96.390, 754.0, 27.4591
63.490009325, 96.390, 780.0, 27.9285
63.516269890, 96.390, 774.0, 27.8209
63.542530455, 96.390, 776.0, 27.8568
63.568791021, 96.390, 785.0, 28.0179
63.595051586, 96.390, 858.0, 29.2916
63.621312152, 96.390, 874.0, 29.5635
63.647572717, 96.390, 920.0, 30.3315
63.673833282, 96.390, 952.0, 30.8545
63.700093848, 96.390, 1068.0, 32.6803
63.726354413, 96.390, 1153.0, 33.9559
63.752614978, 96.390, 1236.0, 35.1568
63.778875544, 96.390, 1314.0, 36.2491
63.805136109, 96.390, 1331.0, 36.4829
63.831396674, 96.390, 1341.0, 36.6197
63.857657240, 96.390, 1293.0, 35.9583
63.883917805, 96.390, 1299.0, 36.0416
63.910178370, 96.390, 1305.0, 36.1248
63.936438936, 96.390, 1218.0, 34.8999
63.962699501, 96.390, 1185.0, 34.4238
63.988960067, 96.390, 1171.0, 34.2199
64.015220632, 96.390, 1250.0, 35.3553
64.041481197, 96.390, 1115.0, 33.3916
64.067741763, 96.390, 1108.0, 33.2866
64.094002328, 96.390, 1039.0, 32.2335
64.120262893, 96.390, 985.0, 31.3847
64.146523459, 96.390, 997.0, 31.5753
64.172784024, 96.390, 1031.0, 32.1092
64.199044589, 96.390, 1006.0, 31.7175
64.225305155, 96.390, 1026.0, 32.0312
64.251565720, 96.390, 1043.0, 32.2955
64.277826285, 96.390, 1070.0, 32.7109
64.304086851, 96.390, 1048.0, 32.3728
64.330347416, 96.390, 1117.0, 33.4215
64.356607981, 96.390, 1085.0, 32.9393
64.382868547, 96.390, 1069.0, 32.6956
64.409129112, 96.390, 1034.0, 32.1559
64.435389678, 96.390, 1048.0, 32.3728
64.461650243, 96.390, 1011.0, 31.7962
64.487910808, 96.390, 1017.0, 31.8904
64.514171374, 96.390, 887.0, 29.7825
64.540431939, 96.390, 954.0, 30.8869
64.566692504, 96.390, 886.0, 29.7658
64.592953070, 96.390, 833.0, 28.8617
64.619213635, 96.390, 808.0, 28.4253
64.645474200, 96.390, 770.0, 27.7489
64.671734766, 96.390, 791.0, 28.1247
64.697995331, 96.390, 792.0, 28.1425
64.724255896, 96.390, 739.0, 27.1846
64.750516462, 96.390, 677.0, 26.0192
64.776777027, 96.390, 771.0, 27.7669
64.803037593, 96.390, 726.0, 26.9444
64.829298158, 96.390, 730.0, 27.0185
64.855558723, 96.390, 685.0, 26.1725
64.881819289, 96.390, 674.0, 25.9615
64.908079854, 96.390, 709.0, 26.6271
64.934340419, 96.390, 710.0, 26.6458
64.960600985, 96.390, 671.0, 25.9037
64.986861550, 96.390, 703.0, 26.5141
