[Measurement conditions]
Sample identification,XRD_Centroid16Mar22_Act23Mar22_B2_0714M_NaOH_LS0172_1
Comment - 1,"Configuration=Stage for Flat Samples/Holders, Owner=User-1, Creation date=7/1/2020 9:53:24 AM"
Comment - 2,"Goniometer=Theta/Theta; Minimum step size 2Theta:0.0001; Minimum step size Omega:0.0001"
Comment - 3,"Sample stage=Stage for flat samples/holders"
Comment - 4,"Diffractometer system=EMPYREAN"
Comment - 5,"Measurement program=C:\Users\ibo5034\OneDrive - The Pennsylvania State University\NEUP\Zerobackground scan.xrdmp, Identifier={98A3B11C-88F9-4AA6-982C-73314A311EF5}"
Anode material,Cu
K-Alpha1 wavelength,1.5405980
K-Alpha2 wavelength,1.5444260
Ratio K-Alpha2/K-Alpha1,0.500
Divergence slit,Fixed,0.25
Monochromator used,NO
Generator voltage, 45
Tube current, 40
File date and time,01/Apr/2022 16:35
Unit cell,
h k l, 0 0 0
Scan axis,Gonio
Scan range,4.994599997,64.999991833
Scan step size,0.0262606
No. of points, 2285
Scan type,CONTINUOUS
Time per step,96.390
[Scan points]
Angle, TimePerStep, Intensity, ESD
5.007730280, 96.390, 3937.0, 62.7455
5.033990845, 96.390, 3999.0, 63.2376
5.060251411, 96.390, 3948.0, 62.8331
5.086511976, 96.390, 3961.0, 62.9365
5.112772541, 96.390, 3840.0, 61.9677
5.139033107, 96.390, 3808.0, 61.7090
5.165293672, 96.390, 3857.0, 62.1048
5.191554237, 96.390, 3903.0, 62.4740
5.217814803, 96.390, 3935.0, 62.7296
5.244075368, 96.390, 3825.0, 61.8466
5.270335934, 96.390, 3923.0, 62.6339
5.296596499, 96.390, 3815.0, 61.7657
5.322857064, 96.390, 3917.0, 62.5859
5.349117630, 96.390, 3700.0, 60.8276
5.375378195, 96.390, 3729.0, 61.0655
5.401638760, 96.390, 3740.0, 61.1555
5.427899326, 96.390, 3688.0, 60.7289
5.454159891, 96.390, 3714.0, 60.9426
5.480420456, 96.390, 3682.0, 60.6795
5.506681022, 96.390, 3566.0, 59.7160
5.532941587, 96.390, 3682.0, 60.6795
5.559202152, 96.390, 3593.0, 59.9416
5.585462718, 96.390, 3696.0, 60.7947
5.611723283, 96.390, 3609.0, 60.0750
5.637983849, 96.390, 3580.0, 59.8331
5.664244414, 96.390, 3596.0, 59.9667
5.690504979, 96.390, 3635.0, 60.2910
5.716765545, 96.390, 3647.0, 60.3904
5.743026110, 96.390, 3605.0, 60.0417
5.769286675, 96.390, 3515.0, 59.2874
5.795547241, 96.390, 3563.0, 59.6909
5.821807806, 96.390, 3496.0, 59.1270
5.848068371, 96.390, 3539.0, 59.4895
5.874328937, 96.390, 3540.0, 59.4979
5.900589502, 96.390, 3565.0, 59.7076
5.926850067, 96.390, 3635.0, 60.2910
5.953110633, 96.390, 3566.0, 59.7160
5.979371198, 96.390, 3547.0, 59.5567
6.005631763, 96.390, 3543.0, 59.5231
6.031892329, 96.390, 3497.0, 59.1354
6.058152894, 96.390, 3579.0, 59.8247
6.084413460, 96.390, 3545.0, 59.5399
6.110674025, 96.390, 3412.0, 58.4123
6.136934590, 96.390, 3514.0, 59.2790
6.163195156, 96.390, 3538.0, 59.4811
6.189455721, 96.390, 3425.0, 58.5235
6.215716286, 96.390, 3402.0, 58.3267
6.241976852, 96.390, 3526.0, 59.3801
6.268237417, 96.390, 3389.0, 58.2151
6.294497982, 96.390, 3569.0, 59.7411
6.320758548, 96.390, 3410.0, 58.3952
6.347019113, 96.390, 3531.0, 59.4222
6.373279678, 96.390, 3487.0, 59.0508
6.399540244, 96.390, 3454.0, 58.7707
6.425800809, 96.390, 3506.0, 59.2115
6.452061375, 96.390, 3461.0, 58.8303
6.478321940, 96.390, 3356.0, 57.9310
6.504582505, 96.390, 3425.0, 58.5235
6.530843071, 96.390, 3458.0, 58.8048
6.557103636, 96.390, 3413.0, 58.4209
6.583364201, 96.390, 3459.0, 58.8133
6.609624767, 96.390, 3489.0, 59.0678
6.635885332, 96.390, 3437.0, 58.6259
6.662145897, 96.390, 3384.0, 58.1722
6.688406463, 96.390, 3391.0, 58.2323
6.714667028, 96.390, 3399.0, 58.3009
6.740927593, 96.390, 3355.0, 57.9224
6.767188159, 96.390, 3413.0, 58.4209
6.793448724, 96.390, 3442.0, 58.6686
6.819709289, 96.390, 3363.0, 57.9914
6.845969855, 96.390, 3417.0, 58.4551
6.872230420, 96.390, 3429.0, 58.5577
6.898490986, 96.390, 3465.0, 58.8643
6.924751551, 96.390, 3502.0, 59.1777
6.951012116, 96.390, 3424.0, 58.5150
6.977272682, 96.390, 3315.0, 57.5760
7.003533247, 96.390, 3321.0, 57.6281
7.029793812, 96.390, 3320.0, 57.6194
7.056054378, 96.390, 3443.0, 58.6771
7.082314943, 96.390, 3335.0, 57.7495
7.108575508, 96.390, 3368.0, 58.0345
7.134836074, 96.390, 3352.0, 57.8965
7.161096639, 96.390, 3399.0, 58.3009
7.187357204, 96.390, 3311.0, 57.5413
7.213617770, 96.390, 3258.0, 57.0789
7.239878335, 96.390, 3334.0, 57.7408
7.266138900, 96.390, 3284.0, 57.3062
7.292399466, 96.390, 3333.0, 57.7321
7.318660031, 96.390, 3370.0, 58.0517
7.344920597, 96.390, 3341.0, 57.8014
7.371181162, 96.390, 3353.0, 57.9051
7.397441727, 96.390, 3291.0, 57.3672
7.423702293, 96.390, 3405.0, 58.3524
7.449962858, 96.390, 3341.0, 57.8014
7.476223423, 96.390, 3264.0, 57.1314
7.502483989, 96.390, 3351.0, 57.8878
7.528744554, 96.390, 3356.0, 57.9310
7.555005119, 96.390, 3357.0, 57.9396
7.581265685, 96.390, 3338.0, 57.7754
7.607526250, 96.390, 3323.0, 57.6455
7.633786815, 96.390, 3344.0, 57.8273
7.660047381, 96.390, 3293.0, 57.3847
7.686307946, 96.390, 3314.0, 57.5674
7.712568512, 96.390, 3388.0, 58.2065
7.738829077, 96.390, 3290.0, 57.3585
7.765089642, 96.390, 3362.0, 57.9828
7.791350208, 96.390, 3307.0, 57.5065
7.817610773, 96.390, 3342.0, 57.8100
7.843871338, 96.390, 3425.0, 58.5235
7.870131904, 96.390, 3208.0, 56.6392
7.896392469, 96.390, 3317.0, 57.5934
7.922653034, 96.390, 3357.0, 57.9396
7.948913600, 96.390, 3411.0, 58.4038
7.975174165, 96.390, 3290.0, 57.3585
8.001434730, 96.390, 3296.0, 57.4108
8.027695296, 96.390, 3353.0, 57.9051
8.053955861, 96.390, 3451.0, 58.7452
8.080216426, 96.390, 3404.0, 58.3438
8.106476992, 96.390, 3509.0, 59.2368
8.132737557, 96.390, 3478.0, 58.9746
8.158998123, 96.390, 3511.0, 59.2537
8.185258688, 96.390, 3538.0, 59.4811
8.211519253, 96.390, 3363.0, 57.9914
8.237779819, 96.390, 3411.0, 58.4038
8.264040384, 96.390, 3278.0, 57.2538
8.290300949, 96.390, 3318.0, 57.6021
8.316561515, 96.390, 3238.0, 56.9034
8.342822080, 96.390, 3254.0, 57.0438
8.369082645, 96.390, 3313.0, 57.5587
8.395343211, 96.390, 3161.0, 56.2228
8.421603776, 96.390, 3360.0, 57.9655
8.447864341, 96.390, 3293.0, 57.3847
8.474124907, 96.390, 3227.0, 56.8067
8.500385472, 96.390, 3248.0, 56.9912
8.526646038, 96.390, 3366.0, 58.0172
8.552906603, 96.390, 3313.0, 57.5587
8.579167168, 96.390, 3225.0, 56.7891
8.605427734, 96.390, 3157.0, 56.1872
8.631688299, 96.390, 3320.0, 57.6194
8.657948864, 96.390, 3130.0, 55.9464
8.684209430, 96.390, 3303.0, 57.4717
8.710469995, 96.390, 3262.0, 57.1139
8.736730560, 96.390, 3379.0, 58.1292
8.762991126, 96.390, 3269.0, 57.1752
8.789251691, 96.390, 3306.0, 57.4978
8.815512256, 96.390, 3256.0, 57.0614
8.841772822, 96.390, 3291.0, 57.3672
8.868033387, 96.390, 3193.0, 56.5066
8.894293952, 96.390, 3280.0, 57.2713
8.920554518, 96.390, 3182.0, 56.4092
8.946815083, 96.390, 3235.0, 56.8771
8.973075649, 96.390, 3340.0, 57.7927
8.999336214, 96.390, 3297.0, 57.4195
9.025596779, 96.390, 3226.0, 56.7979
9.051857345, 96.390, 3229.0, 56.8243
9.078117910, 96.390, 3321.0, 57.6281
9.104378475, 96.390, 3240.0, 56.9210
9.130639041, 96.390, 3317.0, 57.5934
9.156899606, 96.390, 3172.0, 56.3205
9.183160171, 96.390, 3210.0, 56.6569
9.209420737, 96.390, 3202.0, 56.5862
9.235681302, 96.390, 3205.0, 56.6127
9.261941867, 96.390, 3188.0, 56.4624
9.288202433, 96.390, 3242.0, 56.9386
9.314462998, 96.390, 3172.0, 56.3205
9.340723564, 96.390, 3112.0, 55.7853
9.366984129, 96.390, 3179.0, 56.3826
9.393244694, 96.390, 3274.0, 57.2189
9.419505260, 96.390, 3218.0, 56.7274
9.445765825, 96.390, 3145.0, 56.0803
9.472026390, 96.390, 3298.0, 57.4282
9.498286956, 96.390, 3162.0, 56.2317
9.524547521, 96.390, 3107.0, 55.7405
9.550808086, 96.390, 3073.0, 55.4346
9.577068652, 96.390, 3282.0, 57.2887
9.603329217, 96.390, 3174.0, 56.3383
9.629589782, 96.390, 3245.0, 56.9649
9.655850348, 96.390, 3170.0, 56.3028
9.682110913, 96.390, 3178.0, 56.3738
9.708371478, 96.390, 3165.0, 56.2583
9.734632044, 96.390, 3290.0, 57.3585
9.760892609, 96.390, 3219.0, 56.7362
9.787153175, 96.390, 3221.0, 56.7539
9.813413740, 96.390, 3168.0, 56.2850
9.839674305, 96.390, 3255.0, 57.0526
9.865934871, 96.390, 3216.0, 56.7098
9.892195436, 96.390, 3177.0, 56.3649
9.918456001, 96.390, 3098.0, 55.6597
9.944716567, 96.390, 3192.0, 56.4978
9.970977132, 96.390, 3139.0, 56.0268
9.997237697, 96.390, 3146.0, 56.0892
10.023498263, 96.390, 3101.0, 55.6866
10.049758828, 96.390, 3157.0, 56.1872
10.076019393, 96.390, 3141.0, 56.0446
10.102279959, 96.390, 3196.0, 56.5332
10.128540524, 96.390, 3191.0, 56.4889
10.154801090, 96.390, 3186.0, 56.4447
10.181061655, 96.390, 3275.0, 57.2276
10.207322220, 96.390, 3171.0, 56.3116
10.233582786, 96.390, 3179.0, 56.3826
10.259843351, 96.390, 3129.0, 55.9375
10.286103916, 96.390, 3185.0, 56.4358
10.312364482, 96.390, 3194.0, 56.5155
10.338625047, 96.390, 3093.0, 55.6147
10.364885612, 96.390, 3184.0, 56.4269
10.391146178, 96.390, 3228.0, 56.8155
10.417406743, 96.390, 3225.0, 56.7891
10.443667308, 96.390, 3219.0, 56.7362
10.469927874, 96.390, 3405.0, 58.3524
10.496188439, 96.390, 3306.0, 57.4978
10.522449004, 96.390, 3051.0, 55.2359
10.548709570, 96.390, 2986.0, 54.6443
10.574970135, 96.390, 3036.0, 55.0999
10.601230701, 96.390, 3010.0, 54.8635
10.627491266, 96.390, 3033.0, 55.0727
10.653751831, 96.390, 2997.0, 54.7449
10.680012397, 96.390, 3016.0, 54.9181
10.706272962, 96.390, 3050.0, 55.2268
10.732533527, 96.390, 3111.0, 55.7763
10.758794093, 96.390, 3043.0, 55.1634
10.785054658, 96.390, 3075.0, 55.4527
10.811315223, 96.390, 3009.0, 54.8544
10.837575789, 96.390, 2847.0, 53.3573
10.863836354, 96.390, 3098.0, 55.6597
10.890096919, 96.390, 3153.0, 56.1516
10.916357485, 96.390, 3035.0, 55.0908
10.942618050, 96.390, 2973.0, 54.5252
10.968878616, 96.390, 3011.0, 54.8726
10.995139181, 96.390, 3072.0, 55.4256
11.021399746, 96.390, 3185.0, 56.4358
11.047660312, 96.390, 3321.0, 57.6281
11.073920877, 96.390, 3183.0, 56.4181
11.100181442, 96.390, 2981.0, 54.5985
11.126442008, 96.390, 2856.0, 53.4416
11.152702573, 96.390, 2893.0, 53.7866
11.178963138, 96.390, 2983.0, 54.6168
11.205223704, 96.390, 2911.0, 53.9537
11.231484269, 96.390, 2919.0, 54.0278
11.257744834, 96.390, 2930.0, 54.1295
11.284005400, 96.390, 2960.0, 54.4059
11.310265965, 96.390, 2933.0, 54.1572
11.336526530, 96.390, 2967.0, 54.4702
11.362787096, 96.390, 2964.0, 54.4426
11.389047661, 96.390, 2855.0, 53.4322
11.415308227, 96.390, 2838.0, 53.2729
11.441568792, 96.390, 2896.0, 53.8145
11.467829357, 96.390, 2833.0, 53.2259
11.494089923, 96.390, 2942.0, 54.2402
11.520350488, 96.390, 2846.0, 53.3479
11.546611053, 96.390, 3025.0, 55.0000
11.572871619, 96.390, 2799.0, 52.9056
11.599132184, 96.390, 2890.0, 53.7587
11.625392749, 96.390, 2882.0, 53.6843
11.651653315, 96.390, 2772.0, 52.6498
11.677913880, 96.390, 2891.0, 53.7680
11.704174445, 96.390, 2902.0, 53.8702
11.730435011, 96.390, 2818.0, 53.0848
11.756695576, 96.390, 2880.0, 53.6656
11.782956141, 96.390, 2783.0, 52.7541
11.809216707, 96.390, 2833.0, 53.2259
11.835477272, 96.390, 2731.0, 52.2590
11.861737838, 96.390, 2774.0, 52.6688
11.887998403, 96.390, 2759.0, 52.5262
11.914258968, 96.390, 2871.0, 53.5817
11.940519534, 96.390, 2762.0, 52.5547
11.966780099, 96.390, 2786.0, 52.7826
11.993040664, 96.390, 2816.0, 53.0660
12.019301230, 96.390, 2643.0, 51.4101
12.045561795, 96.390, 2722.0, 52.1728
12.071822360, 96.390, 2699.0, 51.9519
12.098082926, 96.390, 2760.0, 52.5357
12.124343491, 96.390, 2722.0, 52.1728
12.150604056, 96.390, 2750.0, 52.4404
12.176864622, 96.390, 2654.0, 51.5170
12.203125187, 96.390, 2705.0, 52.0096
12.229385753, 96.390, 2784.0, 52.7636
12.255646318, 96.390, 2768.0, 52.6118
12.281906883, 96.390, 2678.0, 51.7494
12.308167449, 96.390, 2693.0, 51.8941
12.334428014, 96.390, 2602.0, 51.0098
12.360688579, 96.390, 2679.0, 51.7591
12.386949145, 96.390, 2739.0, 52.3355
12.413209710, 96.390, 2623.0, 51.2152
12.439470275, 96.390, 2593.0, 50.9215
12.465730841, 96.390, 2676.0, 51.7301
12.491991406, 96.390, 2580.0, 50.7937
12.518251971, 96.390, 2509.0, 50.0899
12.544512537, 96.390, 2684.0, 51.8073
12.570773102, 96.390, 2589.0, 50.8822
12.597033667, 96.390, 2571.0, 50.7050
12.623294233, 96.390, 2466.0, 49.6588
12.649554798, 96.390, 2569.0, 50.6853
12.675815364, 96.390, 2586.0, 50.8527
12.702075929, 96.390, 2545.0, 50.4480
12.728336494, 96.390, 2526.0, 50.2593
12.754597060, 96.390, 2554.0, 50.5371
12.780857625, 96.390, 2570.0, 50.6952
12.807118190, 96.390, 2548.0, 50.4777
12.833378756, 96.390, 2417.0, 49.1630
12.859639321, 96.390, 2516.0, 50.1597
12.885899886, 96.390, 2479.0, 49.7896
12.912160452, 96.390, 2540.0, 50.3984
12.938421017, 96.390, 2474.0, 49.7393
12.964681582, 96.390, 2439.0, 49.3862
12.990942148, 96.390, 2403.0, 49.0204
13.017202713, 96.390, 2494.0, 49.9400
13.043463279, 96.390, 2393.0, 48.9183
13.069723844, 96.390, 2551.0, 50.5074
13.095984409, 96.390, 2607.0, 51.0588
13.122244975, 96.390, 2450.0, 49.4975
13.148505540, 96.390, 2495.0, 49.9500
13.174766105, 96.390, 2434.0, 49.3356
13.201026671, 96.390, 2367.0, 48.6518
13.227287236, 96.390, 2392.0, 48.9081
13.253547801, 96.390, 2504.0, 50.0400
13.279808367, 96.390, 2462.0, 49.6185
13.306068932, 96.390, 2420.0, 49.1935
13.332329497, 96.390, 2396.0, 48.9490
13.358590063, 96.390, 2430.0, 49.2950
13.384850628, 96.390, 2417.0, 49.1630
13.411111193, 96.390, 2433.0, 49.3254
13.437371759, 96.390, 2352.0, 48.4974
13.463632324, 96.390, 2360.0, 48.5798
13.489892890, 96.390, 2485.0, 49.8498
13.516153455, 96.390, 2472.0, 49.7192
13.542414020, 96.390, 2481.0, 49.8096
13.568674586, 96.390, 2422.0, 49.2138
13.594935151, 96.390, 2429.0, 49.2849
13.621195716, 96.390, 2413.0, 49.1223
13.647456282, 96.390, 2402.0, 49.0102
13.673716847, 96.390, 2420.0, 49.1935
13.699977412, 96.390, 2378.0, 48.7647
13.726237978, 96.390, 2571.0, 50.7050
13.752498543, 96.390, 2596.0, 50.9510
13.778759108, 96.390, 2946.0, 54.2771
13.805019674, 96.390, 3224.0, 56.7803
13.831280239, 96.390, 3350.0, 57.8792
13.857540805, 96.390, 2674.0, 51.7107
13.883801370, 96.390, 2561.0, 50.6063
13.910061935, 96.390, 2319.0, 48.1560
13.936322501, 96.390, 2399.0, 48.9796
13.962583066, 96.390, 2352.0, 48.4974
13.988843631, 96.390, 2400.0, 48.9898
14.015104197, 96.390, 2237.0, 47.2969
14.041364762, 96.390, 2266.0, 47.6025
14.067625327, 96.390, 2341.0, 48.3839
14.093885893, 96.390, 2298.0, 47.9375
14.120146458, 96.390, 2293.0, 47.8853
14.146407023, 96.390, 2362.0, 48.6004
14.172667589, 96.390, 2389.0, 48.8774
14.198928154, 96.390, 2445.0, 49.4469
14.225188719, 96.390, 2551.0, 50.5074
14.251449285, 96.390, 2611.0, 51.0979
14.277709850, 96.390, 3139.0, 56.0268
14.303970416, 96.390, 3496.0, 59.1270
14.330230981, 96.390, 3865.0, 62.1691
14.356491546, 96.390, 2989.0, 54.6717
14.382752112, 96.390, 2652.0, 51.4976
14.409012677, 96.390, 2427.0, 49.2646
14.435273242, 96.390, 2481.0, 49.8096
14.461533808, 96.390, 2502.0, 50.0200
14.487794373, 96.390, 2519.0, 50.1896
14.514054938, 96.390, 2736.0, 52.3068
14.540315504, 96.390, 2991.0, 54.6900
14.566576069, 96.390, 3205.0, 56.6127
14.592836634, 96.390, 2969.0, 54.4885
14.619097200, 96.390, 2626.0, 51.2445
14.645357765, 96.390, 2357.0, 48.5489
14.671618331, 96.390, 2208.0, 46.9894
14.697878896, 96.390, 2200.0, 46.9042
14.724139461, 96.390, 2165.0, 46.5296
14.750400027, 96.390, 2184.0, 46.7333
14.776660592, 96.390, 2046.0, 45.2327
14.802921157, 96.390, 2136.0, 46.2169
14.829181723, 96.390, 2204.0, 46.9468
14.855442288, 96.390, 2293.0, 47.8853
14.881702853, 96.390, 2158.0, 46.4543
14.907963419, 96.390, 2169.0, 46.5725
14.934223984, 96.390, 2192.0, 46.8188
14.960484549, 96.390, 2212.0, 47.0319
14.986745115, 96.390, 2246.0, 47.3920
15.013005680, 96.390, 2307.0, 48.0312
15.039266245, 96.390, 2264.0, 47.5815
15.065526811, 96.390, 2209.0, 47.0000
15.091787376, 96.390, 2238.0, 47.3075
15.118047942, 96.390, 2286.0, 47.8121
15.144308507, 96.390, 2355.0, 48.5283
15.170569072, 96.390, 2394.0, 48.9285
15.196829638, 96.390, 2507.0, 50.0700
15.223090203, 96.390, 2579.0, 50.7839
15.249350768, 96.390, 2474.0, 49.7393
15.275611334, 96.390, 2476.0, 49.7594
15.301871899, 96.390, 2431.0, 49.3052
15.328132464, 96.390, 2403.0, 49.0204
15.354393030, 96.390, 2323.0, 48.1975
15.380653595, 96.390, 2192.0, 46.8188
15.406914160, 96.390, 2181.0, 46.7012
15.433174726, 96.390, 2137.0, 46.2277
15.459435291, 96.390, 2109.0, 45.9239
15.485695857, 96.390, 2147.0, 46.3357
15.511956422, 96.390, 2167.0, 46.5510
15.538216987, 96.390, 2213.0, 47.0425
15.564477553, 96.390, 2219.0, 47.1063
15.590738118, 96.390, 2193.0, 46.8295
15.616998683, 96.390, 2210.0, 47.0106
15.643259249, 96.390, 2190.0, 46.7974
15.669519814, 96.390, 2269.0, 47.6340
15.695780379, 96.390, 2434.0, 49.3356
15.722040945, 96.390, 2229.0, 47.2123
15.748301510, 96.390, 2329.0, 48.2597
15.774562075, 96.390, 2255.0, 47.4868
15.800822641, 96.390, 2262.0, 47.5605
15.827083206, 96.390, 2124.0, 46.0869
15.853343771, 96.390, 2192.0, 46.8188
15.879604337, 96.390, 2102.0, 45.8476
15.905864902, 96.390, 2156.0, 46.4327
15.932125468, 96.390, 2161.0, 46.4866
15.958386033, 96.390, 2179.0, 46.6798
15.984646598, 96.390, 2173.0, 46.6154
16.010907164, 96.390, 2184.0, 46.7333
16.037167729, 96.390, 2189.0, 46.7868
16.063428294, 96.390, 2161.0, 46.4866
16.089688860, 96.390, 2169.0, 46.5725
16.115949425, 96.390, 2111.0, 45.9456
16.142209990, 96.390, 2162.0, 46.4973
16.168470556, 96.390, 2208.0, 46.9894
16.194731121, 96.390, 2261.0, 47.5500
16.220991686, 96.390, 2142.0, 46.2817
16.247252252, 96.390, 2338.0, 48.3529
16.273512817, 96.390, 2348.0, 48.4562
16.299773382, 96.390, 2497.0, 49.9700
16.326033948, 96.390, 2635.0, 51.3323
16.352294513, 96.390, 2736.0, 52.3068
16.378555079, 96.390, 2660.0, 51.5752
16.404815644, 96.390, 2413.0, 49.1223
16.431076209, 96.390, 2273.0, 47.6760
16.457336775, 96.390, 2248.0, 47.4131
16.483597340, 96.390, 2135.0, 46.2061
16.509857905, 96.390, 2154.0, 46.4112
16.536118471, 96.390, 2160.0, 46.4758
16.562379036, 96.390, 2111.0, 45.9456
16.588639601, 96.390, 2186.0, 46.7547
16.614900167, 96.390, 2184.0, 46.7333
16.641160732, 96.390, 2145.0, 46.3141
16.667421297, 96.390, 2120.0, 46.0435
16.693681863, 96.390, 2151.0, 46.3789
16.719942428, 96.390, 2146.0, 46.3249
16.746202994, 96.390, 2090.0, 45.7165
16.772463559, 96.390, 2198.0, 46.8828
16.798724124, 96.390, 2129.0, 46.1411
16.824984690, 96.390, 2138.0, 46.2385
16.851245255, 96.390, 2158.0, 46.4543
16.877505820, 96.390, 2165.0, 46.5296
16.903766386, 96.390, 2162.0, 46.4973
16.930026951, 96.390, 2090.0, 45.7165
16.956287516, 96.390, 2111.0, 45.9456
16.982548082, 96.390, 2267.0, 47.6130
17.008808647, 96.390, 2237.0, 47.2969
17.035069212, 96.390, 2221.0, 47.1275
17.061329778, 96.390, 2119.0, 46.0326
17.087590343, 96.390, 2092.0, 45.7384
17.113850908, 96.390, 2046.0, 45.2327
17.140111474, 96.390, 2130.0, 46.1519
17.166372039, 96.390, 2063.0, 45.4203
17.192632605, 96.390, 2175.0, 46.6369
17.218893170, 96.390, 2137.0, 46.2277
17.245153735, 96.390, 2141.0, 46.2709
17.271414301, 96.390, 2089.0, 45.7056
17.297674866, 96.390, 2140.0, 46.2601
17.323935431, 96.390, 2190.0, 46.7974
17.350195997, 96.390, 2247.0, 47.4025
17.376456562, 96.390, 2216.0, 47.0744
17.402717127, 96.390, 2367.0, 48.6518
17.428977693, 96.390, 2353.0, 48.5077
17.455238258, 96.390, 2380.0, 48.7852
17.481498823, 96.390, 2259.0, 47.5289
17.507759389, 96.390, 2272.0, 47.6655
17.534019954, 96.390, 2158.0, 46.4543
17.560280520, 96.390, 2177.0, 46.6583
17.586541085, 96.390, 2114.0, 45.9783
17.612801650, 96.390, 2171.0, 46.5940
17.639062216, 96.390, 2165.0, 46.5296
17.665322781, 96.390, 2190.0, 46.7974
17.691583346, 96.390, 2138.0, 46.2385
17.717843912, 96.390, 2056.0, 45.3431
17.744104477, 96.390, 2052.0, 45.2990
17.770365042, 96.390, 2135.0, 46.2061
17.796625608, 96.390, 2110.0, 45.9347
17.822886173, 96.390, 2109.0, 45.9239
17.849146738, 96.390, 2033.0, 45.0888
17.875407304, 96.390, 2149.0, 46.3573
17.901667869, 96.390, 2143.0, 46.2925
17.927928434, 96.390, 2146.0, 46.3249
17.954189000, 96.390, 2156.0, 46.4327
17.980449565, 96.390, 2135.0, 46.2061
18.006710131, 96.390, 2229.0, 47.2123
18.032970696, 96.390, 2123.0, 46.0760
18.059231261, 96.390, 2199.0, 46.8935
18.085491827, 96.390, 2297.0, 47.9270
18.111752392, 96.390, 2228.0, 47.2017
18.138012957, 96.390, 2313.0, 48.0937
18.164273523, 96.390, 2417.0, 49.1630
18.190534088, 96.390, 2240.0, 47.3286
18.216794653, 96.390, 2304.0, 48.0000
18.243055219, 96.390, 2249.0, 47.4236
18.269315784, 96.390, 2445.0, 49.4469
18.295576349, 96.390, 2418.0, 49.1732
18.321836915, 96.390, 2397.0, 48.9592
18.348097480, 96.390, 2482.0, 49.8197
18.374358046, 96.390, 2363.0, 48.6107
18.400618611, 96.390, 2348.0, 48.4562
18.426879176, 96.390, 2396.0, 48.9490
18.453139742, 96.390, 2476.0, 49.7594
18.479400307, 96.390, 2666.0, 51.6333
18.505660872, 96.390, 2636.0, 51.3420
18.531921438, 96.390, 2502.0, 50.0200
18.558182003, 96.390, 2268.0, 47.6235
18.584442568, 96.390, 2235.0, 47.2758
18.610703134, 96.390, 2159.0, 46.4650
18.636963699, 96.390, 2194.0, 46.8402
18.663224264, 96.390, 2193.0, 46.8295
18.689484830, 96.390, 2218.0, 47.0956
18.715745395, 96.390, 2121.0, 46.0543
18.742005960, 96.390, 2268.0, 47.6235
18.768266526, 96.390, 2288.0, 47.8330
18.794527091, 96.390, 2438.0, 49.3761
18.820787657, 96.390, 2445.0, 49.4469
18.847048222, 96.390, 2519.0, 50.1896
18.873308787, 96.390, 2653.0, 51.5073
18.899569353, 96.390, 2906.0, 53.9073
18.925829918, 96.390, 2787.0, 52.7920
18.952090483, 96.390, 2915.0, 53.9907
18.978351049, 96.390, 2974.0, 54.5344
19.004611614, 96.390, 3012.0, 54.8817
19.030872179, 96.390, 3114.0, 55.8032
19.057132745, 96.390, 2655.0, 51.5267
19.083393310, 96.390, 2735.0, 52.2972
19.109653875, 96.390, 2527.0, 50.2693
19.135914441, 96.390, 2531.0, 50.3090
19.162175006, 96.390, 2445.0, 49.4469
19.188435572, 96.390, 2358.0, 48.5592
19.214696137, 96.390, 2401.0, 49.0000
19.240956702, 96.390, 2276.0, 47.7074
19.267217268, 96.390, 2305.0, 48.0104
19.293477833, 96.390, 2248.0, 47.4131
19.319738398, 96.390, 2235.0, 47.2758
19.345998964, 96.390, 2389.0, 48.8774
19.372259529, 96.390, 2329.0, 48.2597
19.398520094, 96.390, 2365.0, 48.6313
19.424780660, 96.390, 2365.0, 48.6313
19.451041225, 96.390, 2301.0, 47.9687
19.477301790, 96.390, 2450.0, 49.4975
19.503562356, 96.390, 2430.0, 49.2950
19.529822921, 96.390, 2405.0, 49.0408
19.556083486, 96.390, 2397.0, 48.9592
19.582344052, 96.390, 2326.0, 48.2286
19.608604617, 96.390, 2356.0, 48.5386
19.634865183, 96.390, 2296.0, 47.9166
19.661125748, 96.390, 2353.0, 48.5077
19.687386313, 96.390, 2421.0, 49.2037
19.713646879, 96.390, 2533.0, 50.3289
19.739907444, 96.390, 2514.0, 50.1398
19.766168009, 96.390, 2640.0, 51.3809
19.792428575, 96.390, 2715.0, 52.1057
19.818689140, 96.390, 2960.0, 54.4059
19.844949705, 96.390, 2675.0, 51.7204
19.871210271, 96.390, 2657.0, 51.5461
19.897470836, 96.390, 2450.0, 49.4975
19.923731401, 96.390, 2330.0, 48.2701
19.949991967, 96.390, 2294.0, 47.8957
19.976252532, 96.390, 2276.0, 47.7074
20.002513097, 96.390, 2319.0, 48.1560
20.028773663, 96.390, 2332.0, 48.2908
20.055034228, 96.390, 2370.0, 48.6826
20.081294794, 96.390, 2335.0, 48.3218
20.107555359, 96.390, 2294.0, 47.8957
20.133815924, 96.390, 2348.0, 48.4562
20.160076490, 96.390, 2278.0, 47.7284
20.186337055, 96.390, 2250.0, 47.4342
20.212597620, 96.390, 2359.0, 48.5695
20.238858186, 96.390, 2375.0, 48.7340
20.265118751, 96.390, 2420.0, 49.1935
20.291379316, 96.390, 2372.0, 48.7032
20.317639882, 96.390, 2477.0, 49.7695
20.343900447, 96.390, 2408.0, 49.0714
20.370161012, 96.390, 2518.0, 50.1797
20.396421578, 96.390, 2661.0, 51.5849
20.422682143, 96.390, 2652.0, 51.4976
20.448942709, 96.390, 2844.0, 53.3292
20.475203274, 96.390, 2761.0, 52.5452
20.501463839, 96.390, 2716.0, 52.1153
20.527724405, 96.390, 2672.0, 51.6914
20.553984970, 96.390, 2652.0, 51.4976
20.580245535, 96.390, 2809.0, 53.0000
20.606506101, 96.390, 2922.0, 54.0555
20.632766666, 96.390, 2833.0, 53.2259
20.659027231, 96.390, 2866.0, 53.5350
20.685287797, 96.390, 2633.0, 51.3128
20.711548362, 96.390, 2689.0, 51.8556
20.737808927, 96.390, 2750.0, 52.4404
20.764069493, 96.390, 2549.0, 50.4876
20.790330058, 96.390, 2580.0, 50.7937
20.816590623, 96.390, 2498.0, 49.9800
20.842851189, 96.390, 2451.0, 49.5076
20.869111754, 96.390, 2420.0, 49.1935
20.895372320, 96.390, 2416.0, 49.1528
20.921632885, 96.390, 2513.0, 50.1298
20.947893450, 96.390, 2530.0, 50.2991
20.974154016, 96.390, 2499.0, 49.9900
21.000414581, 96.390, 2459.0, 49.5883
21.026675146, 96.390, 2494.0, 49.9400
21.052935712, 96.390, 2411.0, 49.1019
21.079196277, 96.390, 2430.0, 49.2950
21.105456842, 96.390, 2431.0, 49.3052
21.131717408, 96.390, 2409.0, 49.0816
21.157977973, 96.390, 2408.0, 49.0714
21.184238538, 96.390, 2481.0, 49.8096
21.210499104, 96.390, 2369.0, 48.6724
21.236759669, 96.390, 2505.0, 50.0500
21.263020235, 96.390, 2586.0, 50.8527
21.289280800, 96.390, 2656.0, 51.5364
21.315541365, 96.390, 2570.0, 50.6952
21.341801931, 96.390, 2704.0, 52.0000
21.368062496, 96.390, 2858.0, 53.4603
21.394323061, 96.390, 2570.0, 50.6952
21.420583627, 96.390, 2580.0, 50.7937
21.446844192, 96.390, 2570.0, 50.6952
21.473104757, 96.390, 2493.0, 49.9300
21.499365323, 96.390, 2497.0, 49.9700
21.525625888, 96.390, 2647.0, 51.4490
21.551886453, 96.390, 2564.0, 50.6360
21.578147019, 96.390, 2620.0, 51.1859
21.604407584, 96.390, 2862.0, 53.4977
21.630668149, 96.390, 3010.0, 54.8635
21.656928715, 96.390, 2961.0, 54.4151
21.683189280, 96.390, 2888.0, 53.7401
21.709449846, 96.390, 2889.0, 53.7494
21.735710411, 96.390, 2587.0, 50.8626
21.761970976, 96.390, 2679.0, 51.7591
21.788231542, 96.390, 2589.0, 50.8822
21.814492107, 96.390, 2487.0, 49.8698
21.840752672, 96.390, 2484.0, 49.8397
21.867013238, 96.390, 2415.0, 49.1426
21.893273803, 96.390, 2437.0, 49.3660
21.919534368, 96.390, 2375.0, 48.7340
21.945794934, 96.390, 2524.0, 50.2394
21.972055499, 96.390, 2488.0, 49.8799
21.998316064, 96.390, 2572.0, 50.7149
22.024576630, 96.390, 2443.0, 49.4267
22.050837195, 96.390, 2517.0, 50.1697
22.077097761, 96.390, 2455.0, 49.5480
22.103358326, 96.390, 2585.0, 50.8429
22.129618891, 96.390, 2501.0, 50.0100
22.155879457, 96.390, 2595.0, 50.9411
22.182140022, 96.390, 2615.0, 51.1371
22.208400587, 96.390, 2561.0, 50.6063
22.234661153, 96.390, 2687.0, 51.8363
22.260921718, 96.390, 2713.0, 52.0865
22.287182283, 96.390, 2791.0, 52.8299
22.313442849, 96.390, 2764.0, 52.5738
22.339703414, 96.390, 2757.0, 52.5071
22.365963979, 96.390, 2800.0, 52.9150
22.392224545, 96.390, 2808.0, 52.9906
22.418485110, 96.390, 2776.0, 52.6878
22.444745675, 96.390, 2778.0, 52.7067
22.471006241, 96.390, 2724.0, 52.1920
22.497266806, 96.390, 2718.0, 52.1344
22.523527372, 96.390, 2787.0, 52.7920
22.549787937, 96.390, 2612.0, 51.1077
22.576048502, 96.390, 2689.0, 51.8556
22.602309068, 96.390, 2754.0, 52.4786
22.628569633, 96.390, 2781.0, 52.7352
22.654830198, 96.390, 2706.0, 52.0192
22.681090764, 96.390, 2590.0, 50.8920
22.707351329, 96.390, 2712.0, 52.0769
22.733611894, 96.390, 2509.0, 50.0899
22.759872460, 96.390, 2776.0, 52.6878
22.786133025, 96.390, 2799.0, 52.9056
22.812393590, 96.390, 2846.0, 53.3479
22.838654156, 96.390, 2957.0, 54.3783
22.864914721, 96.390, 2886.0, 53.7215
22.891175287, 96.390, 3013.0, 54.8908
22.917435852, 96.390, 2896.0, 53.8145
22.943696417, 96.390, 2873.0, 53.6004
22.969956983, 96.390, 2844.0, 53.3292
22.996217548, 96.390, 2906.0, 53.9073
23.022478113, 96.390, 2896.0, 53.8145
23.048738679, 96.390, 3048.0, 55.2087
23.074999244, 96.390, 3101.0, 55.6866
23.101259809, 96.390, 3125.0, 55.9017
23.127520375, 96.390, 3344.0, 57.8273
23.153780940, 96.390, 3447.0, 58.7112
23.180041505, 96.390, 3621.0, 60.1747
23.206302071, 96.390, 3485.0, 59.0339
23.232562636, 96.390, 3490.0, 59.0762
23.258823201, 96.390, 3281.0, 57.2800
23.285083767, 96.390, 3049.0, 55.2178
23.311344332, 96.390, 3016.0, 54.9181
23.337604898, 96.390, 2799.0, 52.9056
23.363865463, 96.390, 2852.0, 53.4041
23.390126028, 96.390, 2984.0, 54.6260
23.416386594, 96.390, 3027.0, 55.0182
23.442647159, 96.390, 2859.0, 53.4696
23.468907724, 96.390, 2874.0, 53.6097
23.495168290, 96.390, 2857.0, 53.4509
23.521428855, 96.390, 2989.0, 54.6717
23.547689420, 96.390, 3521.0, 59.3380
23.573949986, 96.390, 3679.0, 60.6548
23.600210551, 96.390, 3336.0, 57.7581
23.626471116, 96.390, 2974.0, 54.5344
23.652731682, 96.390, 2800.0, 52.9150
23.678992247, 96.390, 2591.0, 50.9019
23.705252813, 96.390, 2483.0, 49.8297
23.731513378, 96.390, 2592.0, 50.9117
23.757773943, 96.390, 2389.0, 48.8774
23.784034509, 96.390, 2291.0, 47.8644
23.810295074, 96.390, 2505.0, 50.0500
23.836555639, 96.390, 2319.0, 48.1560
23.862816205, 96.390, 2427.0, 49.2646
23.889076770, 96.390, 2335.0, 48.3218
23.915337335, 96.390, 2345.0, 48.4252
23.941597901, 96.390, 2408.0, 49.0714
23.967858466, 96.390, 2359.0, 48.5695
23.994119031, 96.390, 2369.0, 48.6724
24.020379597, 96.390, 2413.0, 49.1223
24.046640162, 96.390, 2270.0, 47.6445
24.072900727, 96.390, 2271.0, 47.6550
24.099161293, 96.390, 2340.0, 48.3735
24.125421858, 96.390, 2431.0, 49.3052
24.151682424, 96.390, 2405.0, 49.0408
24.177942989, 96.390, 2390.0, 48.8876
24.204203554, 96.390, 2527.0, 50.2693
24.230464120, 96.390, 2485.0, 49.8498
24.256724685, 96.390, 2543.0, 50.4282
24.282985250, 96.390, 2454.0, 49.5379
24.309245816, 96.390, 2388.0, 48.8672
24.335506381, 96.390, 2483.0, 49.8297
24.361766946, 96.390, 2438.0, 49.3761
24.388027512, 96.390, 2348.0, 48.4562
24.414288077, 96.390, 2334.0, 48.3115
24.440548642, 96.390, 2301.0, 47.9687
24.466809208, 96.390, 2267.0, 47.6130
24.493069773, 96.390, 2214.0, 47.0532
24.519330338, 96.390, 2290.0, 47.8539
24.545590904, 96.390, 2313.0, 48.0937
24.571851469, 96.390, 2342.0, 48.3942
24.598112035, 96.390, 2489.0, 49.8899
24.624372600, 96.390, 2366.0, 48.6415
24.650633165, 96.390, 2426.0, 49.2544
24.676893731, 96.390, 2223.0, 47.1487
24.703154296, 96.390, 2222.0, 47.1381
24.729414861, 96.390, 2207.0, 46.9787
24.755675427, 96.390, 2192.0, 46.8188
24.781935992, 96.390, 2226.0, 47.1805
24.808196557, 96.390, 2346.0, 48.4355
24.834457123, 96.390, 2219.0, 47.1063
24.860717688, 96.390, 2244.0, 47.3709
24.886978253, 96.390, 2250.0, 47.4342
24.913238819, 96.390, 2193.0, 46.8295
24.939499384, 96.390, 2126.0, 46.1086
24.965759950, 96.390, 2130.0, 46.1519
24.992020515, 96.390, 2243.0, 47.3603
25.018281080, 96.390, 2419.0, 49.1833
25.044541646, 96.390, 2286.0, 47.8121
25.070802211, 96.390, 2216.0, 47.0744
25.097062776, 96.390, 2209.0, 47.0000
25.123323342, 96.390, 2104.0, 45.8694
25.149583907, 96.390, 2130.0, 46.1519
25.175844472, 96.390, 1998.0, 44.6990
25.202105038, 96.390, 2101.0, 45.8367
25.228365603, 96.390, 2065.0, 45.4423
25.254626168, 96.390, 2064.0, 45.4313
25.280886734, 96.390, 1986.0, 44.5646
25.307147299, 96.390, 2105.0, 45.8803
25.333407864, 96.390, 2067.0, 45.4643
25.359668430, 96.390, 2113.0, 45.9674
25.385928995, 96.390, 2187.0, 46.7654
25.412189561, 96.390, 2345.0, 48.4252
25.438450126, 96.390, 2265.0, 47.5920
25.464710691, 96.390, 2262.0, 47.5605
25.490971257, 96.390, 2178.0, 46.6690
25.517231822, 96.390, 2079.0, 45.5961
25.543492387, 96.390, 2004.0, 44.7661
25.569752953, 96.390, 1937.0, 44.0114
25.596013518, 96.390, 1944.0, 44.0908
25.622274083, 96.390, 1920.0, 43.8178
25.648534649, 96.390, 1923.0, 43.8520
25.674795214, 96.390, 2020.0, 44.9444
25.701055779, 96.390, 2044.0, 45.2106
25.727316345, 96.390, 1928.0, 43.9090
25.753576910, 96.390, 1951.0, 44.1701
25.779837476, 96.390, 2027.0, 45.0222
25.806098041, 96.390, 1930.0, 43.9318
25.832358606, 96.390, 2046.0, 45.2327
25.858619172, 96.390, 2193.0, 46.8295
25.884879737, 96.390, 2209.0, 47.0000
25.911140302, 96.390, 2093.0, 45.7493
25.937400868, 96.390, 2197.0, 46.8722
25.963661433, 96.390, 2213.0, 47.0425
25.989921998, 96.390, 2249.0, 47.4236
26.016182564, 96.390, 2154.0, 46.4112
26.042443129, 96.390, 2202.0, 46.9255
26.068703694, 96.390, 2149.0, 46.3573
26.094964260, 96.390, 2107.0, 45.9021
26.121224825, 96.390, 1979.0, 44.4860
26.147485390, 96.390, 2024.0, 44.9889
26.173745956, 96.390, 1896.0, 43.5431
26.200006521, 96.390, 1883.0, 43.3935
26.226267087, 96.390, 1939.0, 44.0341
26.252527652, 96.390, 1873.0, 43.2782
26.278788217, 96.390, 1923.0, 43.8520
26.305048783, 96.390, 1898.0, 43.5660
26.331309348, 96.390, 1889.0, 43.4626
26.357569913, 96.390, 1836.0, 42.8486
26.383830479, 96.390, 1827.0, 42.7434
26.410091044, 96.390, 1851.0, 43.0232
26.436351609, 96.390, 1893.0, 43.5086
26.462612175, 96.390, 1855.0, 43.0697
26.488872740, 96.390, 1726.0, 41.5452
26.515133305, 96.390, 1831.0, 42.7902
26.541393871, 96.390, 1816.0, 42.6146
26.567654436, 96.390, 1905.0, 43.6463
26.593915002, 96.390, 1808.0, 42.5206
26.620175567, 96.390, 1820.0, 42.6615
26.646436132, 96.390, 1832.0, 42.8019
26.672696698, 96.390, 1976.0, 44.4522
26.698957263, 96.390, 1970.0, 44.3847
26.725217828, 96.390, 2186.0, 46.7547
26.751478394, 96.390, 2236.0, 47.2864
26.777738959, 96.390, 2537.0, 50.3686
26.803999524, 96.390, 2443.0, 49.4267
26.830260090, 96.390, 2531.0, 50.3090
26.856520655, 96.390, 2478.0, 49.7795
26.882781220, 96.390, 2317.0, 48.1352
26.909041786, 96.390, 2267.0, 47.6130
26.935302351, 96.390, 2120.0, 46.0435
26.961562916, 96.390, 2128.0, 46.1303
26.987823482, 96.390, 2111.0, 45.9456
27.014084047, 96.390, 2348.0, 48.4562
27.040344613, 96.390, 2387.0, 48.8569
27.066605178, 96.390, 2536.0, 50.3587
27.092865743, 96.390, 2378.0, 48.7647
27.119126309, 96.390, 2442.0, 49.4166
27.145386874, 96.390, 2413.0, 49.1223
27.171647439, 96.390, 2492.0, 49.9199
27.197908005, 96.390, 2626.0, 51.2445
27.224168570, 96.390, 2663.0, 51.6043
27.250429135, 96.390, 2713.0, 52.0865
27.276689701, 96.390, 2434.0, 49.3356
27.302950266, 96.390, 2239.0, 47.3181
27.329210831, 96.390, 2138.0, 46.2385
27.355471397, 96.390, 2149.0, 46.3573
27.381731962, 96.390, 2015.0, 44.8888
27.407992528, 96.390, 2005.0, 44.7772
27.434253093, 96.390, 2084.0, 45.6508
27.460513658, 96.390, 1929.0, 43.9204
27.486774224, 96.390, 1778.0, 42.1663
27.513034789, 96.390, 1794.0, 42.3556
27.539295354, 96.390, 1832.0, 42.8019
27.565555920, 96.390, 1842.0, 42.9185
27.591816485, 96.390, 1801.0, 42.4382
27.618077050, 96.390, 1815.0, 42.6028
27.644337616, 96.390, 1896.0, 43.5431
27.670598181, 96.390, 1943.0, 44.0795
27.696858746, 96.390, 2096.0, 45.7821
27.723119312, 96.390, 2278.0, 47.7284
27.749379877, 96.390, 2014.0, 44.8776
27.775640442, 96.390, 1966.0, 44.3396
27.801901008, 96.390, 1990.0, 44.6094
27.828161573, 96.390, 1881.0, 43.3705
27.854422139, 96.390, 1907.0, 43.6692
27.880682704, 96.390, 1833.0, 42.8135
27.906943269, 96.390, 1751.0, 41.8450
27.933203835, 96.390, 1797.0, 42.3910
27.959464400, 96.390, 1752.0, 41.8569
27.985724965, 96.390, 1833.0, 42.8135
28.011985531, 96.390, 1775.0, 42.1307
28.038246096, 96.390, 1787.0, 42.2729
28.064506661, 96.390, 1829.0, 42.7668
28.090767227, 96.390, 1859.0, 43.1161
28.117027792, 96.390, 1835.0, 42.8369
28.143288357, 96.390, 1753.0, 41.8688
28.169548923, 96.390, 1814.0, 42.5911
28.195809488, 96.390, 1797.0, 42.3910
28.222070054, 96.390, 1788.0, 42.2847
28.248330619, 96.390, 1755.0, 41.8927
28.274591184, 96.390, 1824.0, 42.7083
28.300851750, 96.390, 1819.0, 42.6497
28.327112315, 96.390, 1823.0, 42.6966
28.353372880, 96.390, 1815.0, 42.6028
28.379633446, 96.390, 1816.0, 42.6146
28.405894011, 96.390, 1902.0, 43.6119
28.432154576, 96.390, 1906.0, 43.6578
28.458415142, 96.390, 1865.0, 43.1856
28.484675707, 96.390, 1825.0, 42.7200
28.510936272, 96.390, 1941.0, 44.0568
28.537196838, 96.390, 1863.0, 43.1625
28.563457403, 96.390, 1925.0, 43.8748
28.589717968, 96.390, 1872.0, 43.2666
28.615978534, 96.390, 1816.0, 42.6146
28.642239099, 96.390, 1812.0, 42.5676
28.668499665, 96.390, 1863.0, 43.1625
28.694760230, 96.390, 1749.0, 41.8210
28.721020795, 96.390, 1706.0, 41.3038
28.747281361, 96.390, 1750.0, 41.8330
28.773541926, 96.390, 1751.0, 41.8450
28.799802491, 96.390, 1766.0, 42.0238
28.826063057, 96.390, 1825.0, 42.7200
28.852323622, 96.390, 1791.0, 42.3202
28.878584187, 96.390, 1816.0, 42.6146
28.904844753, 96.390, 1818.0, 42.6380
28.931105318, 96.390, 1808.0, 42.5206
28.957365883, 96.390, 1870.0, 43.2435
28.983626449, 96.390, 1805.0, 42.4853
29.009887014, 96.390, 1863.0, 43.1625
29.036147579, 96.390, 1855.0, 43.0697
29.062408145, 96.390, 1748.0, 41.8091
29.088668710, 96.390, 1858.0, 43.1045
29.114929276, 96.390, 1956.0, 44.2267
29.141189841, 96.390, 1988.0, 44.5870
29.167450406, 96.390, 2111.0, 45.9456
29.193710972, 96.390, 2138.0, 46.2385
29.219971537, 96.390, 2156.0, 46.4327
29.246232102, 96.390, 2159.0, 46.4650
29.272492668, 96.390, 2302.0, 47.9792
29.298753233, 96.390, 2401.0, 49.0000
29.325013798, 96.390, 2680.0, 51.7687
29.351274364, 96.390, 2646.0, 51.4393
29.377534929, 96.390, 2572.0, 50.7149
29.403795494, 96.390, 2450.0, 49.4975
29.430056060, 96.390, 2326.0, 48.2286
29.456316625, 96.390, 2326.0, 48.2286
29.482577191, 96.390, 2326.0, 48.2286
29.508837756, 96.390, 2395.0, 48.9387
29.535098321, 96.390, 2422.0, 49.2138
29.561358887, 96.390, 2321.0, 48.1768
29.587619452, 96.390, 2185.0, 46.7440
29.613880017, 96.390, 2163.0, 46.5081
29.640140583, 96.390, 2065.0, 45.4423
29.666401148, 96.390, 2019.0, 44.9333
29.692661713, 96.390, 1991.0, 44.6206
29.718922279, 96.390, 1962.0, 44.2945
29.745182844, 96.390, 2010.0, 44.8330
29.771443409, 96.390, 1934.0, 43.9773
29.797703975, 96.390, 1925.0, 43.8748
29.823964540, 96.390, 1762.0, 41.9762
29.850225105, 96.390, 1825.0, 42.7200
29.876485671, 96.390, 1750.0, 41.8330
29.902746236, 96.390, 1869.0, 43.2319
29.929006802, 96.390, 1861.0, 43.1393
29.955267367, 96.390, 1719.0, 41.4608
29.981527932, 96.390, 1834.0, 42.8252
30.007788498, 96.390, 1831.0, 42.7902
30.034049063, 96.390, 1827.0, 42.7434
30.060309628, 96.390, 1896.0, 43.5431
30.086570194, 96.390, 1886.0, 43.4281
30.112830759, 96.390, 1738.0, 41.6893
30.139091324, 96.390, 1714.0, 41.4005
30.165351890, 96.390, 1709.0, 41.3401
30.191612455, 96.390, 1811.0, 42.5558
30.217873020, 96.390, 1782.0, 42.2137
30.244133586, 96.390, 1726.0, 41.5452
30.270394151, 96.390, 1719.0, 41.4608
30.296654717, 96.390, 1761.0, 41.9643
30.322915282, 96.390, 1685.0, 41.0488
30.349175847, 96.390, 1863.0, 43.1625
30.375436413, 96.390, 1710.0, 41.3521
30.401696978, 96.390, 1782.0, 42.2137
30.427957543, 96.390, 1827.0, 42.7434
30.454218109, 96.390, 1805.0, 42.4853
30.480478674, 96.390, 1797.0, 42.3910
30.506739239, 96.390, 1969.0, 44.3734
30.532999805, 96.390, 1883.0, 43.3935
30.559260370, 96.390, 2020.0, 44.9444
30.585520935, 96.390, 1899.0, 43.5775
30.611781501, 96.390, 2003.0, 44.7549
30.638042066, 96.390, 2164.0, 46.5188
30.664302631, 96.390, 2193.0, 46.8295
30.690563197, 96.390, 2422.0, 49.2138
30.716823762, 96.390, 3057.0, 55.2901
30.743084328, 96.390, 2761.0, 52.5452
30.769344893, 96.390, 2331.0, 48.2804
30.795605458, 96.390, 2569.0, 50.6853
30.821866024, 96.390, 2366.0, 48.6415
30.848126589, 96.390, 2195.0, 46.8508
30.874387154, 96.390, 2074.0, 45.5412
30.900647720, 96.390, 1971.0, 44.3959
30.926908285, 96.390, 1950.0, 44.1588
30.953168850, 96.390, 1896.0, 43.5431
30.979429416, 96.390, 1956.0, 44.2267
31.005689981, 96.390, 1949.0, 44.1475
31.031950546, 96.390, 1914.0, 43.7493
31.058211112, 96.390, 1969.0, 44.3734
31.084471677, 96.390, 1979.0, 44.4860
31.110732243, 96.390, 1897.0, 43.5546
31.136992808, 96.390, 1906.0, 43.6578
31.163253373, 96.390, 2162.0, 46.4973
31.189513939, 96.390, 2061.0, 45.3982
31.215774504, 96.390, 2154.0, 46.4112
31.242035069, 96.390, 2238.0, 47.3075
31.268295635, 96.390, 2323.0, 48.1975
31.294556200, 96.390, 2362.0, 48.6004
31.320816765, 96.390, 2538.0, 50.3786
31.347077331, 96.390, 2469.0, 49.6890
31.373337896, 96.390, 2506.0, 50.0600
31.399598461, 96.390, 2379.0, 48.7750
31.425859027, 96.390, 2318.0, 48.1456
31.452119592, 96.390, 2168.0, 46.5618
31.478380157, 96.390, 2110.0, 45.9347
31.504640723, 96.390, 2120.0, 46.0435
31.530901288, 96.390, 2001.0, 44.7325
31.557161854, 96.390, 1939.0, 44.0341
31.583422419, 96.390, 2024.0, 44.9889
31.609682984, 96.390, 1946.0, 44.1135
31.635943550, 96.390, 1979.0, 44.4860
31.662204115, 96.390, 2412.0, 49.1121
31.688464680, 96.390, 2314.0, 48.1041
31.714725246, 96.390, 2396.0, 48.9490
31.740985811, 96.390, 2498.0, 49.9800
31.767246376, 96.390, 2552.0, 50.5173
31.793506942, 96.390, 2340.0, 48.3735
31.819767507, 96.390, 2335.0, 48.3218
31.846028072, 96.390, 2409.0, 49.0816
31.872288638, 96.390, 2502.0, 50.0200
31.898549203, 96.390, 2441.0, 49.4065
31.924809769, 96.390, 2469.0, 49.6890
31.951070334, 96.390, 2580.0, 50.7937
31.977330899, 96.390, 2549.0, 50.4876
32.003591465, 96.390, 2426.0, 49.2544
32.029852030, 96.390, 2368.0, 48.6621
32.056112595, 96.390, 2244.0, 47.3709
32.082373161, 96.390, 2227.0, 47.1911
32.108633726, 96.390, 2185.0, 46.7440
32.134894291, 96.390, 2104.0, 45.8694
32.161154857, 96.390, 2180.0, 46.6905
32.187415422, 96.390, 2135.0, 46.2061
32.213675987, 96.390, 2051.0, 45.2880
32.239936553, 96.390, 2178.0, 46.6690
32.266197118, 96.390, 2143.0, 46.2925
32.292457683, 96.390, 2335.0, 48.3218
32.318718249, 96.390, 2388.0, 48.8672
32.344978814, 96.390, 2123.0, 46.0760
32.371239380, 96.390, 2075.0, 45.5522
32.397499945, 96.390, 1973.0, 44.4185
32.423760510, 96.390, 1815.0, 42.6028
32.450021076, 96.390, 1857.0, 43.0929
32.476281641, 96.390, 1801.0, 42.4382
32.502542206, 96.390, 1711.0, 41.3642
32.528802772, 96.390, 1756.0, 41.9047
32.555063337, 96.390, 1651.0, 40.6325
32.581323902, 96.390, 1759.0, 41.9404
32.607584468, 96.390, 1813.0, 42.5793
32.633845033, 96.390, 1816.0, 42.6146
32.660105598, 96.390, 1929.0, 43.9204
32.686366164, 96.390, 1996.0, 44.6766
32.712626729, 96.390, 2088.0, 45.6946
32.738887295, 96.390, 2061.0, 45.3982
32.765147860, 96.390, 1996.0, 44.6766
32.791408425, 96.390, 2033.0, 45.0888
32.817668991, 96.390, 2028.0, 45.0333
32.843929556, 96.390, 2079.0, 45.5961
32.870190121, 96.390, 2181.0, 46.7012
32.896450687, 96.390, 2050.0, 45.2769
32.922711252, 96.390, 2127.0, 46.1194
32.948971817, 96.390, 2302.0, 47.9792
32.975232383, 96.390, 2279.0, 47.7389
33.001492948, 96.390, 2261.0, 47.5500
33.027753513, 96.390, 2236.0, 47.2864
33.054014079, 96.390, 2249.0, 47.4236
33.080274644, 96.390, 2304.0, 48.0000
33.106535209, 96.390, 2158.0, 46.4543
33.132795775, 96.390, 2375.0, 48.7340
33.159056340, 96.390, 2333.0, 48.3011
33.185316906, 96.390, 2431.0, 49.3052
33.211577471, 96.390, 2138.0, 46.2385
33.237838036, 96.390, 2135.0, 46.2061
33.264098602, 96.390, 2184.0, 46.7333
33.290359167, 96.390, 2057.0, 45.3542
33.316619732, 96.390, 2018.0, 44.9222
33.342880298, 96.390, 1952.0, 44.1814
33.369140863, 96.390, 2007.0, 44.7996
33.395401428, 96.390, 2162.0, 46.4973
33.421661994, 96.390, 2290.0, 47.8539
33.447922559, 96.390, 3584.0, 59.8665
33.474183124, 96.390, 4561.0, 67.5352
33.500443690, 96.390, 4079.0, 63.8670
33.526704255, 96.390, 3159.0, 56.2050
33.552964820, 96.390, 3022.0, 54.9727
33.579225386, 96.390, 3050.0, 55.2268
33.605485951, 96.390, 2341.0, 48.3839
33.631746517, 96.390, 1974.0, 44.4297
33.658007082, 96.390, 1831.0, 42.7902
33.684267647, 96.390, 1857.0, 43.0929
33.710528213, 96.390, 1858.0, 43.1045
33.736788778, 96.390, 1875.0, 43.3013
33.763049343, 96.390, 1869.0, 43.2319
33.789309909, 96.390, 1812.0, 42.5676
33.815570474, 96.390, 1853.0, 43.0465
33.841831039, 96.390, 1746.0, 41.7852
33.868091605, 96.390, 1828.0, 42.7551
33.894352170, 96.390, 1898.0, 43.5660
33.920612735, 96.390, 1884.0, 43.4051
33.946873301, 96.390, 1939.0, 44.0341
33.973133866, 96.390, 1950.0, 44.1588
33.999394432, 96.390, 1889.0, 43.4626
34.025654997, 96.390, 1899.0, 43.5775
34.051915562, 96.390, 1914.0, 43.7493
34.078176128, 96.390, 1912.0, 43.7264
34.104436693, 96.390, 1865.0, 43.1856
34.130697258, 96.390, 1885.0, 43.4166
34.156957824, 96.390, 1864.0, 43.1741
34.183218389, 96.390, 1901.0, 43.6005
34.209478954, 96.390, 1837.0, 42.8602
34.235739520, 96.390, 1953.0, 44.1928
34.262000085, 96.390, 1928.0, 43.9090
34.288260650, 96.390, 1992.0, 44.6318
34.314521216, 96.390, 1994.0, 44.6542
34.340781781, 96.390, 1968.0, 44.3621
34.367042346, 96.390, 2158.0, 46.4543
34.393302912, 96.390, 2121.0, 46.0543
34.419563477, 96.390, 2137.0, 46.2277
34.445824043, 96.390, 2179.0, 46.6798
34.472084608, 96.390, 2262.0, 47.5605
34.498345173, 96.390, 2431.0, 49.3052
34.524605739, 96.390, 2587.0, 50.8626
34.550866304, 96.390, 2539.0, 50.3885
34.577126869, 96.390, 2630.0, 51.2835
34.603387435, 96.390, 2682.0, 51.7880
34.629648000, 96.390, 2821.0, 53.1131
34.655908565, 96.390, 2708.0, 52.0384
34.682169131, 96.390, 2560.0, 50.5964
34.708429696, 96.390, 2609.0, 51.0784
34.734690261, 96.390, 2478.0, 49.7795
34.760950827, 96.390, 2352.0, 48.4974
34.787211392, 96.390, 2265.0, 47.5920
34.813471958, 96.390, 2178.0, 46.6690
34.839732523, 96.390, 2136.0, 46.2169
34.865993088, 96.390, 2160.0, 46.4758
34.892253654, 96.390, 2201.0, 46.9148
34.918514219, 96.390, 2190.0, 46.7974
34.944774784, 96.390, 2173.0, 46.6154
34.971035350, 96.390, 2355.0, 48.5283
34.997295915, 96.390, 2597.0, 50.9608
35.023556480, 96.390, 3068.0, 55.3895
35.049817046, 96.390, 2976.0, 54.5527
35.076077611, 96.390, 2739.0, 52.3355
35.102338176, 96.390, 2741.0, 52.3546
35.128598742, 96.390, 2786.0, 52.7826
35.154859307, 96.390, 2507.0, 50.0700
35.181119872, 96.390, 2425.0, 49.2443
35.207380438, 96.390, 2375.0, 48.7340
35.233641003, 96.390, 2450.0, 49.4975
35.259901569, 96.390, 2375.0, 48.7340
35.286162134, 96.390, 2311.0, 48.0729
35.312422699, 96.390, 2187.0, 46.7654
35.338683265, 96.390, 2201.0, 46.9148
35.364943830, 96.390, 2160.0, 46.4758
35.391204395, 96.390, 2007.0, 44.7996
35.417464961, 96.390, 2031.0, 45.0666
35.443725526, 96.390, 2035.0, 45.1110
35.469986091, 96.390, 1969.0, 44.3734
35.496246657, 96.390, 1950.0, 44.1588
35.522507222, 96.390, 1988.0, 44.5870
35.548767787, 96.390, 1898.0, 43.5660
35.575028353, 96.390, 1996.0, 44.6766
35.601288918, 96.390, 1974.0, 44.4297
35.627549484, 96.390, 1901.0, 43.6005
35.653810049, 96.390, 2041.0, 45.1774
35.680070614, 96.390, 1961.0, 44.2832
35.706331180, 96.390, 2048.0, 45.2548
35.732591745, 96.390, 1966.0, 44.3396
35.758852310, 96.390, 2011.0, 44.8442
35.785112876, 96.390, 1967.0, 44.3509
35.811373441, 96.390, 2032.0, 45.0777
35.837634006, 96.390, 1979.0, 44.4860
35.863894572, 96.390, 1958.0, 44.2493
35.890155137, 96.390, 2117.0, 46.0109
35.916415702, 96.390, 2236.0, 47.2864
35.942676268, 96.390, 2247.0, 47.4025
35.968936833, 96.390, 2339.0, 48.3632
35.995197398, 96.390, 2424.0, 49.2341
36.021457964, 96.390, 2430.0, 49.2950
36.047718529, 96.390, 2253.0, 47.4658
36.073979095, 96.390, 2261.0, 47.5500
36.100239660, 96.390, 2212.0, 47.0319
36.126500225, 96.390, 2277.0, 47.7179
36.152760791, 96.390, 2274.0, 47.6865
36.179021356, 96.390, 2478.0, 49.7795
36.205281921, 96.390, 2532.0, 50.3190
36.231542487, 96.390, 2524.0, 50.2394
36.257803052, 96.390, 2379.0, 48.7750
36.284063617, 96.390, 2167.0, 46.5510
36.310324183, 96.390, 2189.0, 46.7868
36.336584748, 96.390, 2213.0, 47.0425
36.362845313, 96.390, 2054.0, 45.3211
36.389105879, 96.390, 2039.0, 45.1553
36.415366444, 96.390, 2049.0, 45.2659
36.441627010, 96.390, 2058.0, 45.3652
36.467887575, 96.390, 1858.0, 43.1045
36.494148140, 96.390, 1810.0, 42.5441
36.520408706, 96.390, 1869.0, 43.2319
36.546669271, 96.390, 1713.0, 41.3884
36.572929836, 96.390, 1685.0, 41.0488
36.599190402, 96.390, 1686.0, 41.0609
36.625450967, 96.390, 1706.0, 41.3038
36.651711532, 96.390, 1674.0, 40.9145
36.677972098, 96.390, 1771.0, 42.0833
36.704232663, 96.390, 1737.0, 41.6773
36.730493228, 96.390, 1842.0, 42.9185
36.756753794, 96.390, 1766.0, 42.0238
36.783014359, 96.390, 1620.0, 40.2492
36.809274924, 96.390, 1672.0, 40.8901
36.835535490, 96.390, 1684.0, 41.0366
36.861796055, 96.390, 1605.0, 40.0625
36.888056621, 96.390, 1587.0, 39.8372
36.914317186, 96.390, 1577.0, 39.7115
36.940577751, 96.390, 1536.0, 39.1918
36.966838317, 96.390, 1512.0, 38.8844
36.993098882, 96.390, 1527.0, 39.0768
37.019359447, 96.390, 1514.0, 38.9102
37.045620013, 96.390, 1566.0, 39.5727
37.071880578, 96.390, 1595.0, 39.9375
37.098141143, 96.390, 1561.0, 39.5095
37.124401709, 96.390, 1583.0, 39.7869
37.150662274, 96.390, 1634.0, 40.4228
37.176922839, 96.390, 1640.0, 40.4969
37.203183405, 96.390, 1616.0, 40.1995
37.229443970, 96.390, 1600.0, 40.0000
37.255704535, 96.390, 1624.0, 40.2989
37.281965101, 96.390, 1625.0, 40.3113
37.308225666, 96.390, 1649.0, 40.6079
37.334486232, 96.390, 1669.0, 40.8534
37.360746797, 96.390, 1653.0, 40.6571
37.387007362, 96.390, 1617.0, 40.2119
37.413267928, 96.390, 1688.0, 41.0853
37.439528493, 96.390, 1671.0, 40.8779
37.465789058, 96.390, 1670.0, 40.8656
37.492049624, 96.390, 1706.0, 41.3038
37.518310189, 96.390, 1766.0, 42.0238
37.544570754, 96.390, 1742.0, 41.7373
37.570831320, 96.390, 1774.0, 42.1189
37.597091885, 96.390, 1792.0, 42.3320
37.623352450, 96.390, 1710.0, 41.3521
37.649613016, 96.390, 1684.0, 41.0366
37.675873581, 96.390, 1623.0, 40.2865
37.702134147, 96.390, 1651.0, 40.6325
37.728394712, 96.390, 1657.0, 40.7063
37.754655277, 96.390, 1634.0, 40.4228
37.780915843, 96.390, 1617.0, 40.2119
37.807176408, 96.390, 1826.0, 42.7317
37.833436973, 96.390, 1887.0, 43.4396
37.859697539, 96.390, 1897.0, 43.5546
37.885958104, 96.390, 2100.0, 45.8258
37.912218669, 96.390, 1920.0, 43.8178
37.938479235, 96.390, 1812.0, 42.5676
37.964739800, 96.390, 1797.0, 42.3910
37.991000365, 96.390, 1885.0, 43.4166
38.017260931, 96.390, 1819.0, 42.6497
38.043521496, 96.390, 1771.0, 42.0833
38.069782061, 96.390, 1646.0, 40.5709
38.096042627, 96.390, 1508.0, 38.8330
38.122303192, 96.390, 1618.0, 40.2244
38.148563758, 96.390, 1699.0, 41.2189
38.174824323, 96.390, 1664.0, 40.7922
38.201084888, 96.390, 1640.0, 40.4969
38.227345454, 96.390, 1677.0, 40.9512
38.253606019, 96.390, 1854.0, 43.0581
38.279866584, 96.390, 1927.0, 43.8976
38.306127150, 96.390, 1651.0, 40.6325
38.332387715, 96.390, 1632.0, 40.3980
38.358648280, 96.390, 1729.0, 41.5812
38.384908846, 96.390, 1593.0, 39.9124
38.411169411, 96.390, 1460.0, 38.2099
38.437429976, 96.390, 1600.0, 40.0000
38.463690542, 96.390, 1506.0, 38.8072
38.489951107, 96.390, 1470.0, 38.3406
38.516211673, 96.390, 1463.0, 38.2492
38.542472238, 96.390, 1476.0, 38.4187
38.568732803, 96.390, 1453.0, 38.1182
38.594993369, 96.390, 1560.0, 39.4968
38.621253934, 96.390, 1408.0, 37.5233
38.647514499, 96.390, 1492.0, 38.6264
38.673775065, 96.390, 1452.0, 38.1051
38.700035630, 96.390, 1458.0, 38.1838
38.726296195, 96.390, 1497.0, 38.6911
38.752556761, 96.390, 1498.0, 38.7040
38.778817326, 96.390, 1484.0, 38.5227
38.805077891, 96.390, 1513.0, 38.8973
38.831338457, 96.390, 1391.0, 37.2961
38.857599022, 96.390, 1402.0, 37.4433
38.883859587, 96.390, 1421.0, 37.6962
38.910120153, 96.390, 1423.0, 37.7227
38.936380718, 96.390, 1476.0, 38.4187
38.962641284, 96.390, 1478.0, 38.4448
38.988901849, 96.390, 1456.0, 38.1576
39.015162414, 96.390, 1556.0, 39.4462
39.041422980, 96.390, 1400.0, 37.4166
39.067683545, 96.390, 1488.0, 38.5746
39.093944110, 96.390, 1418.0, 37.6563
39.120204676, 96.390, 1462.0, 38.2361
39.146465241, 96.390, 1536.0, 39.1918
39.172725806, 96.390, 1541.0, 39.2556
39.198986372, 96.390, 1587.0, 39.8372
39.225246937, 96.390, 1625.0, 40.3113
39.251507502, 96.390, 1611.0, 40.1373
39.277768068, 96.390, 1641.0, 40.5093
39.304028633, 96.390, 1547.0, 39.3319
39.330289199, 96.390, 1520.0, 38.9872
39.356549764, 96.390, 1501.0, 38.7427
39.382810329, 96.390, 1437.0, 37.9078
39.409070895, 96.390, 1375.0, 37.0810
39.435331460, 96.390, 1411.0, 37.5633
39.461592025, 96.390, 1388.0, 37.2559
39.487852591, 96.390, 1397.0, 37.3765
39.514113156, 96.390, 1433.0, 37.8550
39.540373721, 96.390, 1395.0, 37.3497
39.566634287, 96.390, 1413.0, 37.5899
39.592894852, 96.390, 1436.0, 37.8946
39.619155417, 96.390, 1405.0, 37.4833
39.645415983, 96.390, 1364.0, 36.9324
39.671676548, 96.390, 1469.0, 38.3275
39.697937113, 96.390, 1467.0, 38.3014
39.724197679, 96.390, 1440.0, 37.9473
39.750458244, 96.390, 1333.0, 36.5103
39.776718810, 96.390, 1529.0, 39.1024
39.802979375, 96.390, 1468.0, 38.3145
39.829239940, 96.390, 1445.0, 38.0132
39.855500506, 96.390, 1493.0, 38.6394
39.881761071, 96.390, 1385.0, 37.2156
39.908021636, 96.390, 1478.0, 38.4448
39.934282202, 96.390, 1508.0, 38.8330
39.960542767, 96.390, 1536.0, 39.1918
39.986803332, 96.390, 1363.0, 36.9188
40.013063898, 96.390, 1390.0, 37.2827
40.039324463, 96.390, 1411.0, 37.5633
40.065585028, 96.390, 1468.0, 38.3145
40.091845594, 96.390, 1265.0, 35.5668
40.118106159, 96.390, 1332.0, 36.4966
40.144366725, 96.390, 1304.0, 36.1109
40.170627290, 96.390, 1316.0, 36.2767
40.196887855, 96.390, 1346.0, 36.6879
40.223148421, 96.390, 1313.0, 36.2353
40.249408986, 96.390, 1298.0, 36.0278
40.275669551, 96.390, 1215.0, 34.8569
40.301930117, 96.390, 1254.0, 35.4119
40.328190682, 96.390, 1331.0, 36.4829
40.354451247, 96.390, 1270.0, 35.6371
40.380711813, 96.390, 1253.0, 35.3977
40.406972378, 96.390, 1278.0, 35.7491
40.433232943, 96.390, 1249.0, 35.3412
40.459493509, 96.390, 1293.0, 35.9583
40.485754074, 96.390, 1207.0, 34.7419
40.512014639, 96.390, 1260.0, 35.4965
40.538275205, 96.390, 1266.0, 35.5809
40.564535770, 96.390, 1278.0, 35.7491
40.590796336, 96.390, 1312.0, 36.2215
40.617056901, 96.390, 1280.0, 35.7771
40.643317466, 96.390, 1320.0, 36.3318
40.669578032, 96.390, 1265.0, 35.5668
40.695838597, 96.390, 1307.0, 36.1525
40.722099162, 96.390, 1315.0, 36.2629
40.748359728, 96.390, 1272.0, 35.6651
40.774620293, 96.390, 1271.0, 35.6511
40.800880858, 96.390, 1252.0, 35.3836
40.827141424, 96.390, 1305.0, 36.1248
40.853401989, 96.390, 1238.0, 35.1852
40.879662554, 96.390, 1201.0, 34.6554
40.905923120, 96.390, 1200.0, 34.6410
40.932183685, 96.390, 1239.0, 35.1994
40.958444251, 96.390, 1297.0, 36.0139
40.984704816, 96.390, 1265.0, 35.5668
41.010965381, 96.390, 1246.0, 35.2987
41.037225947, 96.390, 1356.0, 36.8239
41.063486512, 96.390, 1326.0, 36.4143
41.089747077, 96.390, 1299.0, 36.0416
41.116007643, 96.390, 1339.0, 36.5923
41.142268208, 96.390, 1332.0, 36.4966
41.168528773, 96.390, 1263.0, 35.5387
41.194789339, 96.390, 1335.0, 36.5377
41.221049904, 96.390, 1241.0, 35.2278
41.247310469, 96.390, 1204.0, 34.6987
41.273571035, 96.390, 1221.0, 34.9428
41.299831600, 96.390, 1191.0, 34.5109
41.326092165, 96.390, 1208.0, 34.7563
41.352352731, 96.390, 1288.0, 35.8887
41.378613296, 96.390, 1298.0, 36.0278
41.404873862, 96.390, 1196.0, 34.5832
41.431134427, 96.390, 1157.0, 34.0147
41.457394992, 96.390, 1240.0, 35.2136
41.483655558, 96.390, 1233.0, 35.1141
41.509916123, 96.390, 1232.0, 35.0999
41.536176688, 96.390, 1209.0, 34.7707
41.562437254, 96.390, 1192.0, 34.5254
41.588697819, 96.390, 1205.0, 34.7131
41.614958384, 96.390, 1237.0, 35.1710
41.641218950, 96.390, 1166.0, 34.1467
41.667479515, 96.390, 1197.0, 34.5977
41.693740080, 96.390, 1176.0, 34.2929
41.720000646, 96.390, 1171.0, 34.2199
41.746261211, 96.390, 1249.0, 35.3412
41.772521776, 96.390, 1264.0, 35.5528
41.798782342, 96.390, 1235.0, 35.1426
41.825042907, 96.390, 1246.0, 35.2987
41.851303473, 96.390, 1157.0, 34.0147
41.877564038, 96.390, 1176.0, 34.2929
41.903824603, 96.390, 1213.0, 34.8281
41.930085169, 96.390, 1127.0, 33.5708
41.956345734, 96.390, 1205.0, 34.7131
41.982606299, 96.390, 1240.0, 35.2136
42.008866865, 96.390, 1177.0, 34.3074
42.035127430, 96.390, 1160.0, 34.0588
42.061387995, 96.390, 1232.0, 35.0999
42.087648561, 96.390, 1294.0, 35.9722
42.113909126, 96.390, 1377.0, 37.1080
42.140169691, 96.390, 1551.0, 39.3827
42.166430257, 96.390, 1677.0, 40.9512
42.192690822, 96.390, 1609.0, 40.1123
42.218951388, 96.390, 1492.0, 38.6264
42.245211953, 96.390, 1393.0, 37.3229
42.271472518, 96.390, 1434.0, 37.8682
42.297733084, 96.390, 1411.0, 37.5633
42.323993649, 96.390, 1304.0, 36.1109
42.350254214, 96.390, 1277.0, 35.7351
42.376514780, 96.390, 1219.0, 34.9142
42.402775345, 96.390, 1149.0, 33.8969
42.429035910, 96.390, 1215.0, 34.8569
42.455296476, 96.390, 1068.0, 32.6803
42.481557041, 96.390, 1132.0, 33.6452
42.507817606, 96.390, 1086.0, 32.9545
42.534078172, 96.390, 1053.0, 32.4500
42.560338737, 96.390, 1060.0, 32.5576
42.586599302, 96.390, 1133.0, 33.6601
42.612859868, 96.390, 1162.0, 34.0881
42.639120433, 96.390, 1191.0, 34.5109
42.665380999, 96.390, 1215.0, 34.8569
42.691641564, 96.390, 1211.0, 34.7994
42.717902129, 96.390, 1228.0, 35.0428
42.744162695, 96.390, 1224.0, 34.9857
42.770423260, 96.390, 1249.0, 35.3412
42.796683825, 96.390, 1159.0, 34.0441
42.822944391, 96.390, 1161.0, 34.0735
42.849204956, 96.390, 1151.0, 33.9264
42.875465521, 96.390, 1115.0, 33.3916
42.901726087, 96.390, 1116.0, 33.4066
42.927986652, 96.390, 1138.0, 33.7343
42.954247217, 96.390, 1085.0, 32.9393
42.980507783, 96.390, 1064.0, 32.6190
43.006768348, 96.390, 1113.0, 33.3617
43.033028914, 96.390, 1100.0, 33.1662
43.059289479, 96.390, 1096.0, 33.1059
43.085550044, 96.390, 1118.0, 33.4365
43.111810610, 96.390, 1186.0, 34.4384
43.138071175, 96.390, 1142.0, 33.7935
43.164331740, 96.390, 1124.0, 33.5261
43.190592306, 96.390, 1231.0, 35.0856
43.216852871, 96.390, 1134.0, 33.6749
43.243113436, 96.390, 1132.0, 33.6452
43.269374002, 96.390, 1141.0, 33.7787
43.295634567, 96.390, 1170.0, 34.2053
43.321895132, 96.390, 1126.0, 33.5559
43.348155698, 96.390, 1113.0, 33.3617
43.374416263, 96.390, 1037.0, 32.2025
43.400676828, 96.390, 1087.0, 32.9697
43.426937394, 96.390, 1063.0, 32.6037
43.453197959, 96.390, 1027.0, 32.0468
43.479458525, 96.390, 1080.0, 32.8634
43.505719090, 96.390, 1134.0, 33.6749
43.531979655, 96.390, 1043.0, 32.2955
43.558240221, 96.390, 1072.0, 32.7414
43.584500786, 96.390, 1099.0, 33.1512
43.610761351, 96.390, 1101.0, 33.1813
43.637021917, 96.390, 1099.0, 33.1512
43.663282482, 96.390, 1087.0, 32.9697
43.689543047, 96.390, 1143.0, 33.8083
43.715803613, 96.390, 1087.0, 32.9697
43.742064178, 96.390, 1095.0, 33.0908
43.768324743, 96.390, 1081.0, 32.8786
43.794585309, 96.390, 1124.0, 33.5261
43.820845874, 96.390, 1159.0, 34.0441
43.847106440, 96.390, 1065.0, 32.6343
43.873367005, 96.390, 1139.0, 33.7491
43.899627570, 96.390, 1128.0, 33.5857
43.925888136, 96.390, 1147.0, 33.8674
43.952148701, 96.390, 1146.0, 33.8526
43.978409266, 96.390, 1136.0, 33.7046
44.004669832, 96.390, 1098.0, 33.1361
44.030930397, 96.390, 1091.0, 33.0303
44.057190962, 96.390, 1167.0, 34.1614
44.083451528, 96.390, 1079.0, 32.8481
44.109712093, 96.390, 1124.0, 33.5261
44.135972658, 96.390, 1218.0, 34.8999
44.162233224, 96.390, 1138.0, 33.7343
44.188493789, 96.390, 1159.0, 34.0441
44.214754354, 96.390, 1333.0, 36.5103
44.241014920, 96.390, 1401.0, 37.4299
44.267275485, 96.390, 1350.0, 36.7423
44.293536051, 96.390, 1184.0, 34.4093
44.319796616, 96.390, 1252.0, 35.3836
44.346057181, 96.390, 1324.0, 36.3868
44.372317747, 96.390, 1326.0, 36.4143
44.398578312, 96.390, 1165.0, 34.1321
44.424838877, 96.390, 1208.0, 34.7563
44.451099443, 96.390, 1184.0, 34.4093
44.477360008, 96.390, 1215.0, 34.8569
44.503620573, 96.390, 1194.0, 34.5543
44.529881139, 96.390, 1127.0, 33.5708
44.556141704, 96.390, 1154.0, 33.9706
44.582402269, 96.390, 1141.0, 33.7787
44.608662835, 96.390, 1192.0, 34.5254
44.634923400, 96.390, 1169.0, 34.1906
44.661183966, 96.390, 1146.0, 33.8526
44.687444531, 96.390, 1198.0, 34.6121
44.713705096, 96.390, 1218.0, 34.8999
44.739965662, 96.390, 1201.0, 34.6554
44.766226227, 96.390, 1166.0, 34.1467
44.792486792, 96.390, 1192.0, 34.5254
44.818747358, 96.390, 1167.0, 34.1614
44.845007923, 96.390, 1234.0, 35.1283
44.871268488, 96.390, 1180.0, 34.3511
44.897529054, 96.390, 1131.0, 33.6303
44.923789619, 96.390, 1226.0, 35.0143
44.950050184, 96.390, 1145.0, 33.8378
44.976310750, 96.390, 1191.0, 34.5109
45.002571315, 96.390, 1211.0, 34.7994
45.028831880, 96.390, 1206.0, 34.7275
45.055092446, 96.390, 1124.0, 33.5261
45.081353011, 96.390, 1169.0, 34.1906
45.107613577, 96.390, 1149.0, 33.8969
45.133874142, 96.390, 1241.0, 35.2278
45.160134707, 96.390, 1239.0, 35.1994
45.186395273, 96.390, 1366.0, 36.9594
45.212655838, 96.390, 1263.0, 35.5387
45.238916403, 96.390, 1236.0, 35.1568
45.265176969, 96.390, 1275.0, 35.7071
45.291437534, 96.390, 1183.0, 34.3948
45.317698099, 96.390, 1218.0, 34.8999
45.343958665, 96.390, 1184.0, 34.4093
45.370219230, 96.390, 1239.0, 35.1994
45.396479795, 96.390, 1151.0, 33.9264
45.422740361, 96.390, 1106.0, 33.2566
45.449000926, 96.390, 1224.0, 34.9857
45.475261492, 96.390, 1200.0, 34.6410
45.501522057, 96.390, 1182.0, 34.3802
45.527782622, 96.390, 1152.0, 33.9411
45.554043188, 96.390, 1284.0, 35.8329
45.580303753, 96.390, 1272.0, 35.6651
45.606564318, 96.390, 1327.0, 36.4280
45.632824884, 96.390, 1265.0, 35.5668
45.659085449, 96.390, 1391.0, 37.2961
45.685346014, 96.390, 1340.0, 36.6060
45.711606580, 96.390, 1199.0, 34.6266
45.737867145, 96.390, 1250.0, 35.3553
45.764127710, 96.390, 1228.0, 35.0428
45.790388276, 96.390, 1311.0, 36.2077
45.816648841, 96.390, 1253.0, 35.3977
45.842909406, 96.390, 1177.0, 34.3074
45.869169972, 96.390, 1171.0, 34.2199
45.895430537, 96.390, 1175.0, 34.2783
45.921691103, 96.390, 1103.0, 33.2114
45.947951668, 96.390, 1118.0, 33.4365
45.974212233, 96.390, 1132.0, 33.6452
46.000472799, 96.390, 1155.0, 33.9853
46.026733364, 96.390, 1192.0, 34.5254
46.052993929, 96.390, 1174.0, 34.2637
46.079254495, 96.390, 1193.0, 34.5398
46.105515060, 96.390, 1191.0, 34.5109
46.131775625, 96.390, 1220.0, 34.9285
46.158036191, 96.390, 1183.0, 34.3948
46.184296756, 96.390, 1272.0, 35.6651
46.210557321, 96.390, 1399.0, 37.4032
46.236817887, 96.390, 1454.0, 38.1314
46.263078452, 96.390, 1500.0, 38.7298
46.289339017, 96.390, 1434.0, 37.8682
46.315599583, 96.390, 1451.0, 38.0920
46.341860148, 96.390, 1424.0, 37.7359
46.368120714, 96.390, 1523.0, 39.0256
46.394381279, 96.390, 1581.0, 39.7618
46.420641844, 96.390, 1600.0, 40.0000
46.446902410, 96.390, 1600.0, 40.0000
46.473162975, 96.390, 1534.0, 39.1663
46.499423540, 96.390, 1522.0, 39.0128
46.525684106, 96.390, 1513.0, 38.8973
46.551944671, 96.390, 1374.0, 37.0675
46.578205236, 96.390, 1391.0, 37.2961
46.604465802, 96.390, 1420.0, 37.6829
46.630726367, 96.390, 1354.0, 36.7967
46.656986932, 96.390, 1311.0, 36.2077
46.683247498, 96.390, 1276.0, 35.7211
46.709508063, 96.390, 1355.0, 36.8103
46.735768629, 96.390, 1238.0, 35.1852
46.762029194, 96.390, 1327.0, 36.4280
46.788289759, 96.390, 1287.0, 35.8748
46.814550325, 96.390, 1161.0, 34.0735
46.840810890, 96.390, 1232.0, 35.0999
46.867071455, 96.390, 1185.0, 34.4238
46.893332021, 96.390, 1216.0, 34.8712
46.919592586, 96.390, 1147.0, 33.8674
46.945853151, 96.390, 1140.0, 33.7639
46.972113717, 96.390, 1138.0, 33.7343
46.998374282, 96.390, 1104.0, 33.2265
47.024634847, 96.390, 1121.0, 33.4813
47.050895413, 96.390, 1122.0, 33.4963
47.077155978, 96.390, 1127.0, 33.5708
47.103416543, 96.390, 1083.0, 32.9090
47.129677109, 96.390, 1125.0, 33.5410
47.155937674, 96.390, 1173.0, 34.2491
47.182198240, 96.390, 1188.0, 34.4674
47.208458805, 96.390, 1229.0, 35.0571
47.234719370, 96.390, 1233.0, 35.1141
47.260979936, 96.390, 1260.0, 35.4965
47.287240501, 96.390, 1288.0, 35.8887
47.313501066, 96.390, 1309.0, 36.1801
47.339761632, 96.390, 1230.0, 35.0714
47.366022197, 96.390, 1252.0, 35.3836
47.392282762, 96.390, 1252.0, 35.3836
47.418543328, 96.390, 1312.0, 36.2215
47.444803893, 96.390, 1262.0, 35.5246
47.471064458, 96.390, 1192.0, 34.5254
47.497325024, 96.390, 1210.0, 34.7851
47.523585589, 96.390, 1140.0, 33.7639
47.549846155, 96.390, 1258.0, 35.4683
47.576106720, 96.390, 1245.0, 35.2846
47.602367285, 96.390, 1152.0, 33.9411
47.628627851, 96.390, 1256.0, 35.4401
47.654888416, 96.390, 1124.0, 33.5261
47.681148981, 96.390, 1126.0, 33.5559
47.707409547, 96.390, 1173.0, 34.2491
47.733670112, 96.390, 1253.0, 35.3977
47.759930677, 96.390, 1177.0, 34.3074
47.786191243, 96.390, 1200.0, 34.6410
47.812451808, 96.390, 1166.0, 34.1467
47.838712373, 96.390, 1114.0, 33.3766
47.864972939, 96.390, 1156.0, 34.0000
47.891233504, 96.390, 1166.0, 34.1467
47.917494069, 96.390, 1146.0, 33.8526
47.943754635, 96.390, 1083.0, 32.9090
47.970015200, 96.390, 1146.0, 33.8526
47.996275766, 96.390, 1110.0, 33.3167
48.022536331, 96.390, 1081.0, 32.8786
48.048796896, 96.390, 1112.0, 33.3467
48.075057462, 96.390, 1051.0, 32.4191
48.101318027, 96.390, 1090.0, 33.0151
48.127578592, 96.390, 1130.0, 33.6155
48.153839158, 96.390, 1108.0, 33.2866
48.180099723, 96.390, 1155.0, 33.9853
48.206360288, 96.390, 1095.0, 33.0908
48.232620854, 96.390, 1148.0, 33.8821
48.258881419, 96.390, 1104.0, 33.2265
48.285141984, 96.390, 1101.0, 33.1813
48.311402550, 96.390, 1086.0, 32.9545
48.337663115, 96.390, 1081.0, 32.8786
48.363923681, 96.390, 1142.0, 33.7935
48.390184246, 96.390, 1175.0, 34.2783
48.416444811, 96.390, 1236.0, 35.1568
48.442705377, 96.390, 1287.0, 35.8748
48.468965942, 96.390, 1290.0, 35.9166
48.495226507, 96.390, 1267.0, 35.5949
48.521487073, 96.390, 1207.0, 34.7419
48.547747638, 96.390, 1217.0, 34.8855
48.574008203, 96.390, 1174.0, 34.2637
48.600268769, 96.390, 1262.0, 35.5246
48.626529334, 96.390, 1134.0, 33.6749
48.652789899, 96.390, 1105.0, 33.2415
48.679050465, 96.390, 1142.0, 33.7935
48.705311030, 96.390, 1047.0, 32.3574
48.731571595, 96.390, 1037.0, 32.2025
48.757832161, 96.390, 1131.0, 33.6303
48.784092726, 96.390, 1112.0, 33.3467
48.810353292, 96.390, 1035.0, 32.1714
48.836613857, 96.390, 959.0, 30.9677
48.862874422, 96.390, 1007.0, 31.7333
48.889134988, 96.390, 1038.0, 32.2180
48.915395553, 96.390, 1076.0, 32.8024
48.941656118, 96.390, 1060.0, 32.5576
48.967916684, 96.390, 1025.0, 32.0156
48.994177249, 96.390, 1042.0, 32.2800
49.020437814, 96.390, 1034.0, 32.1559
49.046698380, 96.390, 1084.0, 32.9242
49.072958945, 96.390, 1084.0, 32.9242
49.099219510, 96.390, 1109.0, 33.3017
49.125480076, 96.390, 1093.0, 33.0606
49.151740641, 96.390, 1060.0, 32.5576
49.178001207, 96.390, 1034.0, 32.1559
49.204261772, 96.390, 1073.0, 32.7567
49.230522337, 96.390, 1095.0, 33.0908
49.256782903, 96.390, 1100.0, 33.1662
49.283043468, 96.390, 1033.0, 32.1403
49.309304033, 96.390, 1071.0, 32.7261
49.335564599, 96.390, 994.0, 31.5278
49.361825164, 96.390, 1026.0, 32.0312
49.388085729, 96.390, 1022.0, 31.9687
49.414346295, 96.390, 1027.0, 32.0468
49.440606860, 96.390, 1003.0, 31.6702
49.466867425, 96.390, 1091.0, 33.0303
49.493127991, 96.390, 1004.0, 31.6860
49.519388556, 96.390, 1001.0, 31.6386
49.545649121, 96.390, 944.0, 30.7246
49.571909687, 96.390, 1005.0, 31.7017
49.598170252, 96.390, 1042.0, 32.2800
49.624430818, 96.390, 1110.0, 33.3167
49.650691383, 96.390, 1082.0, 32.8938
49.676951948, 96.390, 1076.0, 32.8024
49.703212514, 96.390, 1094.0, 33.0757
49.729473079, 96.390, 1093.0, 33.0606
49.755733644, 96.390, 1046.0, 32.3419
49.781994210, 96.390, 1030.0, 32.0936
49.808254775, 96.390, 1059.0, 32.5423
49.834515340, 96.390, 1035.0, 32.1714
49.860775906, 96.390, 1040.0, 32.2490
49.887036471, 96.390, 978.0, 31.2730
49.913297036, 96.390, 939.0, 30.6431
49.939557602, 96.390, 960.0, 30.9839
49.965818167, 96.390, 937.0, 30.6105
49.992078732, 96.390, 975.0, 31.2250
50.018339298, 96.390, 917.0, 30.2820
50.044599863, 96.390, 962.0, 31.0161
50.070860429, 96.390, 959.0, 30.9677
50.097120994, 96.390, 927.0, 30.4467
50.123381559, 96.390, 915.0, 30.2490
50.149642125, 96.390, 949.0, 30.8058
50.175902690, 96.390, 969.0, 31.1288
50.202163255, 96.390, 900.0, 30.0000
50.228423821, 96.390, 952.0, 30.8545
50.254684386, 96.390, 988.0, 31.4325
50.280944951, 96.390, 949.0, 30.8058
50.307205517, 96.390, 932.0, 30.5287
50.333466082, 96.390, 978.0, 31.2730
50.359726647, 96.390, 986.0, 31.4006
50.385987213, 96.390, 1015.0, 31.8591
50.412247778, 96.390, 990.0, 31.4643
50.438508344, 96.390, 1086.0, 32.9545
50.464768909, 96.390, 1105.0, 33.2415
50.491029474, 96.390, 1067.0, 32.6650
50.517290040, 96.390, 1106.0, 33.2566
50.543550605, 96.390, 1042.0, 32.2800
50.569811170, 96.390, 1065.0, 32.6343
50.596071736, 96.390, 1028.0, 32.0624
50.622332301, 96.390, 1000.0, 31.6228
50.648592866, 96.390, 997.0, 31.5753
50.674853432, 96.390, 976.0, 31.2410
50.701113997, 96.390, 1041.0, 32.2645
50.727374562, 96.390, 914.0, 30.2324
50.753635128, 96.390, 984.0, 31.3688
50.779895693, 96.390, 932.0, 30.5287
50.806156258, 96.390, 971.0, 31.1609
50.832416824, 96.390, 935.0, 30.5778
50.858677389, 96.390, 966.0, 31.0805
50.884937955, 96.390, 939.0, 30.6431
50.911198520, 96.390, 982.0, 31.3369
50.937459085, 96.390, 990.0, 31.4643
50.963719651, 96.390, 919.0, 30.3150
50.989980216, 96.390, 984.0, 31.3688
51.016240781, 96.390, 1043.0, 32.2955
51.042501347, 96.390, 999.0, 31.6070
51.068761912, 96.390, 1007.0, 31.7333
51.095022477, 96.390, 1045.0, 32.3265
51.121283043, 96.390, 1061.0, 32.5730
51.147543608, 96.390, 1034.0, 32.1559
51.173804173, 96.390, 975.0, 31.2250
51.200064739, 96.390, 994.0, 31.5278
51.226325304, 96.390, 941.0, 30.6757
51.252585870, 96.390, 980.0, 31.3050
51.278846435, 96.390, 915.0, 30.2490
51.305107000, 96.390, 912.0, 30.1993
51.331367566, 96.390, 874.0, 29.5635
51.357628131, 96.390, 916.0, 30.2655
51.383888696, 96.390, 877.0, 29.6142
51.410149262, 96.390, 879.0, 29.6479
51.436409827, 96.390, 900.0, 30.0000
51.462670392, 96.390, 870.0, 29.4958
51.488930958, 96.390, 892.0, 29.8664
51.515191523, 96.390, 851.0, 29.1719
51.541452088, 96.390, 852.0, 29.1890
51.567712654, 96.390, 877.0, 29.6142
51.593973219, 96.390, 854.0, 29.2233
51.620233784, 96.390, 860.0, 29.3258
51.646494350, 96.390, 847.0, 29.1033
51.672754915, 96.390, 840.0, 28.9828
51.699015481, 96.390, 844.0, 29.0517
51.725276046, 96.390, 855.0, 29.2404
51.751536611, 96.390, 903.0, 30.0500
51.777797177, 96.390, 886.0, 29.7658
51.804057742, 96.390, 917.0, 30.2820
51.830318307, 96.390, 866.0, 29.4279
51.856578873, 96.390, 973.0, 31.1929
51.882839438, 96.390, 974.0, 31.2090
51.909100003, 96.390, 908.0, 30.1330
51.935360569, 96.390, 882.0, 29.6985
51.961621134, 96.390, 893.0, 29.8831
51.987881699, 96.390, 986.0, 31.4006
52.014142265, 96.390, 948.0, 30.7896
52.040402830, 96.390, 949.0, 30.8058
52.066663396, 96.390, 891.0, 29.8496
52.092923961, 96.390, 913.0, 30.2159
52.119184526, 96.390, 887.0, 29.7825
52.145445092, 96.390, 897.0, 29.9500
52.171705657, 96.390, 928.0, 30.4631
52.197966222, 96.390, 878.0, 29.6311
52.224226788, 96.390, 948.0, 30.7896
52.250487353, 96.390, 882.0, 29.6985
52.276747918, 96.390, 953.0, 30.8707
52.303008484, 96.390, 959.0, 30.9677
52.329269049, 96.390, 997.0, 31.5753
52.355529614, 96.390, 996.0, 31.5595
52.381790180, 96.390, 979.0, 31.2890
52.408050745, 96.390, 1094.0, 33.0757
52.434311310, 96.390, 1070.0, 32.7109
52.460571876, 96.390, 947.0, 30.7734
52.486832441, 96.390, 876.0, 29.5973
52.513093007, 96.390, 919.0, 30.3150
52.539353572, 96.390, 986.0, 31.4006
52.565614137, 96.390, 985.0, 31.3847
52.591874703, 96.390, 899.0, 29.9833
52.618135268, 96.390, 850.0, 29.1548
52.644395833, 96.390, 934.0, 30.5614
52.670656399, 96.390, 876.0, 29.5973
52.696916964, 96.390, 874.0, 29.5635
52.723177529, 96.390, 871.0, 29.5127
52.749438095, 96.390, 890.0, 29.8329
52.775698660, 96.390, 874.0, 29.5635
52.801959225, 96.390, 886.0, 29.7658
52.828219791, 96.390, 867.0, 29.4449
52.854480356, 96.390, 847.0, 29.1033
52.880740922, 96.390, 838.0, 28.9482
52.907001487, 96.390, 885.0, 29.7489
52.933262052, 96.390, 909.0, 30.1496
52.959522618, 96.390, 902.0, 30.0333
52.985783183, 96.390, 904.0, 30.0666
53.012043748, 96.390, 863.0, 29.3769
53.038304314, 96.390, 860.0, 29.3258
53.064564879, 96.390, 854.0, 29.2233
53.090825444, 96.390, 912.0, 30.1993
53.117086010, 96.390, 915.0, 30.2490
53.143346575, 96.390, 835.0, 28.8964
53.169607140, 96.390, 913.0, 30.2159
53.195867706, 96.390, 998.0, 31.5911
53.222128271, 96.390, 1053.0, 32.4500
53.248388836, 96.390, 986.0, 31.4006
53.274649402, 96.390, 873.0, 29.5466
53.300909967, 96.390, 930.0, 30.4959
53.327170533, 96.390, 898.0, 29.9666
53.353431098, 96.390, 925.0, 30.4138
53.379691663, 96.390, 965.0, 31.0644
53.405952229, 96.390, 871.0, 29.5127
53.432212794, 96.390, 920.0, 30.3315
53.458473359, 96.390, 937.0, 30.6105
53.484733925, 96.390, 963.0, 31.0322
53.510994490, 96.390, 933.0, 30.5450
53.537255055, 96.390, 930.0, 30.4959
53.563515621, 96.390, 898.0, 29.9666
53.589776186, 96.390, 912.0, 30.1993
53.616036751, 96.390, 871.0, 29.5127
53.642297317, 96.390, 881.0, 29.6816
53.668557882, 96.390, 907.0, 30.1164
53.694818448, 96.390, 881.0, 29.6816
53.721079013, 96.390, 847.0, 29.1033
53.747339578, 96.390, 838.0, 28.9482
53.773600144, 96.390, 801.0, 28.3019
53.799860709, 96.390, 899.0, 29.9833
53.826121274, 96.390, 855.0, 29.2404
53.852381840, 96.390, 862.0, 29.3598
53.878642405, 96.390, 960.0, 30.9839
53.904902970, 96.390, 969.0, 31.1288
53.931163536, 96.390, 968.0, 31.1127
53.957424101, 96.390, 934.0, 30.5614
53.983684666, 96.390, 975.0, 31.2250
54.009945232, 96.390, 975.0, 31.2250
54.036205797, 96.390, 942.0, 30.6920
54.062466362, 96.390, 967.0, 31.0966
54.088726928, 96.390, 951.0, 30.8383
54.114987493, 96.390, 976.0, 31.2410
54.141248059, 96.390, 923.0, 30.3809
54.167508624, 96.390, 886.0, 29.7658
54.193769189, 96.390, 896.0, 29.9333
54.220029755, 96.390, 954.0, 30.8869
54.246290320, 96.390, 881.0, 29.6816
54.272550885, 96.390, 918.0, 30.2985
54.298811451, 96.390, 864.0, 29.3939
54.325072016, 96.390, 885.0, 29.7489
54.351332581, 96.390, 846.0, 29.0861
54.377593147, 96.390, 932.0, 30.5287
54.403853712, 96.390, 920.0, 30.3315
54.430114277, 96.390, 850.0, 29.1548
54.456374843, 96.390, 887.0, 29.7825
54.482635408, 96.390, 823.0, 28.6880
54.508895973, 96.390, 842.0, 29.0172
54.535156539, 96.390, 803.0, 28.3373
54.561417104, 96.390, 838.0, 28.9482
54.587677670, 96.390, 883.0, 29.7153
54.613938235, 96.390, 793.0, 28.1603
54.640198800, 96.390, 756.0, 27.4955
54.666459366, 96.390, 822.0, 28.6705
54.692719931, 96.390, 795.0, 28.1957
54.718980496, 96.390, 791.0, 28.1247
54.745241062, 96.390, 776.0, 27.8568
54.771501627, 96.390, 750.0, 27.3861
54.797762192, 96.390, 814.0, 28.5307
54.824022758, 96.390, 738.0, 27.1662
54.850283323, 96.390, 786.0, 28.0357
54.876543888, 96.390, 769.0, 27.7308
54.902804454, 96.390, 786.0, 28.0357
54.929065019, 96.390, 799.0, 28.2666
54.955325585, 96.390, 772.0, 27.7849
54.981586150, 96.390, 839.0, 28.9655
55.007846715, 96.390, 865.0, 29.4109
55.034107281, 96.390, 873.0, 29.5466
55.060367846, 96.390, 818.0, 28.6007
55.086628411, 96.390, 814.0, 28.5307
55.112888977, 96.390, 818.0, 28.6007
55.139149542, 96.390, 885.0, 29.7489
55.165410107, 96.390, 799.0, 28.2666
55.191670673, 96.390, 813.0, 28.5132
55.217931238, 96.390, 729.0, 27.0000
55.244191803, 96.390, 769.0, 27.7308
55.270452369, 96.390, 791.0, 28.1247
55.296712934, 96.390, 773.0, 27.8029
55.322973499, 96.390, 842.0, 29.0172
55.349234065, 96.390, 793.0, 28.1603
55.375494630, 96.390, 836.0, 28.9137
55.401755196, 96.390, 847.0, 29.1033
55.428015761, 96.390, 892.0, 29.8664
55.454276326, 96.390, 879.0, 29.6479
55.480536892, 96.390, 955.0, 30.9031
55.506797457, 96.390, 938.0, 30.6268
55.533058022, 96.390, 814.0, 28.5307
55.559318588, 96.390, 803.0, 28.3373
55.585579153, 96.390, 767.0, 27.6948
55.611839718, 96.390, 844.0, 29.0517
55.638100284, 96.390, 806.0, 28.3901
55.664360849, 96.390, 805.0, 28.3725
55.690621414, 96.390, 749.0, 27.3679
55.716881980, 96.390, 784.0, 28.0000
55.743142545, 96.390, 729.0, 27.0000
55.769403111, 96.390, 767.0, 27.6948
55.795663676, 96.390, 727.0, 26.9629
55.821924241, 96.390, 765.0, 27.6586
55.848184807, 96.390, 786.0, 28.0357
55.874445372, 96.390, 784.0, 28.0000
55.900705937, 96.390, 739.0, 27.1846
55.926966503, 96.390, 712.0, 26.6833
55.953227068, 96.390, 763.0, 27.6225
55.979487633, 96.390, 832.0, 28.8444
56.005748199, 96.390, 830.0, 28.8097
56.032008764, 96.390, 786.0, 28.0357
56.058269329, 96.390, 872.0, 29.5296
56.084529895, 96.390, 786.0, 28.0357
56.110790460, 96.390, 835.0, 28.8964
56.137051025, 96.390, 870.0, 29.4958
56.163311591, 96.390, 816.0, 28.5657
56.189572156, 96.390, 836.0, 28.9137
56.215832722, 96.390, 852.0, 29.1890
56.242093287, 96.390, 821.0, 28.6531
56.268353852, 96.390, 796.0, 28.2135
56.294614418, 96.390, 850.0, 29.1548
56.320874983, 96.390, 819.0, 28.6182
56.347135548, 96.390, 808.0, 28.4253
56.373396114, 96.390, 818.0, 28.6007
56.399656679, 96.390, 848.0, 29.1204
56.425917244, 96.390, 762.0, 27.6043
56.452177810, 96.390, 843.0, 29.0345
56.478438375, 96.390, 846.0, 29.0861
56.504698940, 96.390, 783.0, 27.9821
56.530959506, 96.390, 847.0, 29.1033
56.557220071, 96.390, 807.0, 28.4077
56.583480637, 96.390, 829.0, 28.7924
56.609741202, 96.390, 839.0, 28.9655
56.636001767, 96.390, 905.0, 30.0832
56.662262333, 96.390, 833.0, 28.8617
56.688522898, 96.390, 824.0, 28.7054
56.714783463, 96.390, 726.0, 26.9444
56.741044029, 96.390, 758.0, 27.5318
56.767304594, 96.390, 784.0, 28.0000
56.793565159, 96.390, 797.0, 28.2312
56.819825725, 96.390, 816.0, 28.5657
56.846086290, 96.390, 738.0, 27.1662
56.872346855, 96.390, 675.0, 25.9808
56.898607421, 96.390, 736.0, 27.1293
56.924867986, 96.390, 775.0, 27.8388
56.951128551, 96.390, 763.0, 27.6225
56.977389117, 96.390, 717.0, 26.7769
57.003649682, 96.390, 742.0, 27.2397
57.029910248, 96.390, 721.0, 26.8514
57.056170813, 96.390, 774.0, 27.8209
57.082431378, 96.390, 697.0, 26.4008
57.108691944, 96.390, 722.0, 26.8701
57.134952509, 96.390, 741.0, 27.2213
57.161213074, 96.390, 777.0, 27.8747
57.187473640, 96.390, 846.0, 29.0861
57.213734205, 96.390, 814.0, 28.5307
57.239994770, 96.390, 810.0, 28.4605
57.266255336, 96.390, 829.0, 28.7924
57.292515901, 96.390, 824.0, 28.7054
57.318776466, 96.390, 793.0, 28.1603
57.345037032, 96.390, 829.0, 28.7924
57.371297597, 96.390, 817.0, 28.5832
57.397558163, 96.390, 835.0, 28.8964
57.423818728, 96.390, 795.0, 28.1957
57.450079293, 96.390, 776.0, 27.8568
57.476339859, 96.390, 831.0, 28.8271
57.502600424, 96.390, 883.0, 29.7153
57.528860989, 96.390, 869.0, 29.4788
57.555121555, 96.390, 947.0, 30.7734
57.581382120, 96.390, 887.0, 29.7825
57.607642685, 96.390, 854.0, 29.2233
57.633903251, 96.390, 831.0, 28.8271
57.660163816, 96.390, 847.0, 29.1033
57.686424381, 96.390, 864.0, 29.3939
57.712684947, 96.390, 945.0, 30.7409
57.738945512, 96.390, 898.0, 29.9666
57.765206077, 96.390, 829.0, 28.7924
57.791466643, 96.390, 905.0, 30.0832
57.817727208, 96.390, 911.0, 30.1828
57.843987774, 96.390, 830.0, 28.8097
57.870248339, 96.390, 836.0, 28.9137
57.896508904, 96.390, 874.0, 29.5635
57.922769470, 96.390, 837.0, 28.9310
57.949030035, 96.390, 791.0, 28.1247
57.975290600, 96.390, 825.0, 28.7228
58.001551166, 96.390, 807.0, 28.4077
58.027811731, 96.390, 866.0, 29.4279
58.054072296, 96.390, 811.0, 28.4781
58.080332862, 96.390, 813.0, 28.5132
58.106593427, 96.390, 809.0, 28.4429
58.132853992, 96.390, 870.0, 29.4958
58.159114558, 96.390, 794.0, 28.1780
58.185375123, 96.390, 835.0, 28.8964
58.211635689, 96.390, 815.0, 28.5482
58.237896254, 96.390, 806.0, 28.3901
58.264156819, 96.390, 735.0, 27.1109
58.290417385, 96.390, 775.0, 27.8388
58.316677950, 96.390, 767.0, 27.6948
58.342938515, 96.390, 739.0, 27.1846
58.369199081, 96.390, 730.0, 27.0185
58.395459646, 96.390, 748.0, 27.3496
58.421720211, 96.390, 789.0, 28.0891
58.447980777, 96.390, 793.0, 28.1603
58.474241342, 96.390, 755.0, 27.4773
58.500501907, 96.390, 735.0, 27.1109
58.526762473, 96.390, 758.0, 27.5318
58.553023038, 96.390, 756.0, 27.4955
58.579283603, 96.390, 732.0, 27.0555
58.605544169, 96.390, 691.0, 26.2869
58.631804734, 96.390, 695.0, 26.3629
58.658065300, 96.390, 775.0, 27.8388
58.684325865, 96.390, 734.0, 27.0924
58.710586430, 96.390, 718.0, 26.7955
58.736846996, 96.390, 699.0, 26.4386
58.763107561, 96.390, 734.0, 27.0924
58.789368126, 96.390, 685.0, 26.1725
58.815628692, 96.390, 717.0, 26.7769
58.841889257, 96.390, 710.0, 26.6458
58.868149822, 96.390, 765.0, 27.6586
58.894410388, 96.390, 683.0, 26.1343
58.920670953, 96.390, 757.0, 27.5136
58.946931518, 96.390, 720.0, 26.8328
58.973192084, 96.390, 770.0, 27.7489
58.999452649, 96.390, 772.0, 27.7849
59.025713214, 96.390, 728.0, 26.9815
59.051973780, 96.390, 713.0, 26.7021
59.078234345, 96.390, 754.0, 27.4591
59.104494911, 96.390, 718.0, 26.7955
59.130755476, 96.390, 753.0, 27.4408
59.157016041, 96.390, 764.0, 27.6405
59.183276607, 96.390, 737.0, 27.1477
59.209537172, 96.390, 776.0, 27.8568
59.235797737, 96.390, 772.0, 27.7849
59.262058303, 96.390, 752.0, 27.4226
59.288318868, 96.390, 781.0, 27.9464
59.314579433, 96.390, 747.0, 27.3313
59.340839999, 96.390, 802.0, 28.3196
59.367100564, 96.390, 910.0, 30.1662
59.393361129, 96.390, 827.0, 28.7576
59.419621695, 96.390, 781.0, 27.9464
59.445882260, 96.390, 767.0, 27.6948
59.472142826, 96.390, 746.0, 27.3130
59.498403391, 96.390, 742.0, 27.2397
59.524663956, 96.390, 789.0, 28.0891
59.550924522, 96.390, 812.0, 28.4956
59.577185087, 96.390, 780.0, 27.9285
59.603445652, 96.390, 725.0, 26.9258
59.629706218, 96.390, 787.0, 28.0535
59.655966783, 96.390, 807.0, 28.4077
59.682227348, 96.390, 760.0, 27.5681
59.708487914, 96.390, 756.0, 27.4955
59.734748479, 96.390, 801.0, 28.3019
59.761009044, 96.390, 728.0, 26.9815
59.787269610, 96.390, 747.0, 27.3313
59.813530175, 96.390, 775.0, 27.8388
59.839790740, 96.390, 801.0, 28.3019
59.866051306, 96.390, 742.0, 27.2397
59.892311871, 96.390, 761.0, 27.5862
59.918572437, 96.390, 775.0, 27.8388
59.944833002, 96.390, 758.0, 27.5318
59.971093567, 96.390, 756.0, 27.4955
59.997354133, 96.390, 822.0, 28.6705
60.023614698, 96.390, 798.0, 28.2489
60.049875263, 96.390, 754.0, 27.4591
60.076135829, 96.390, 838.0, 28.9482
60.102396394, 96.390, 806.0, 28.3901
60.128656959, 96.390, 815.0, 28.5482
60.154917525, 96.390, 819.0, 28.6182
60.181178090, 96.390, 843.0, 29.0345
60.207438655, 96.390, 870.0, 29.4958
60.233699221, 96.390, 831.0, 28.8271
60.259959786, 96.390, 827.0, 28.7576
60.286220352, 96.390, 898.0, 29.9666
60.312480917, 96.390, 843.0, 29.0345
60.338741482, 96.390, 798.0, 28.2489
60.365002048, 96.390, 864.0, 29.3939
60.391262613, 96.390, 846.0, 29.0861
60.417523178, 96.390, 811.0, 28.4781
60.443783744, 96.390, 871.0, 29.5127
60.470044309, 96.390, 916.0, 30.2655
60.496304874, 96.390, 898.0, 29.9666
60.522565440, 96.390, 958.0, 30.9516
60.548826005, 96.390, 915.0, 30.2490
60.575086570, 96.390, 892.0, 29.8664
60.601347136, 96.390, 981.0, 31.3209
60.627607701, 96.390, 938.0, 30.6268
60.653868266, 96.390, 915.0, 30.2490
60.680128832, 96.390, 916.0, 30.2655
60.706389397, 96.390, 1078.0, 32.8329
60.732649963, 96.390, 1022.0, 31.9687
60.758910528, 96.390, 1055.0, 32.4808
60.785171093, 96.390, 1017.0, 31.8904
60.811431659, 96.390, 1098.0, 33.1361
60.837692224, 96.390, 1059.0, 32.5423
60.863952789, 96.390, 1042.0, 32.2800
60.890213355, 96.390, 1088.0, 32.9848
60.916473920, 96.390, 981.0, 31.3209
60.942734485, 96.390, 1081.0, 32.8786
60.968995051, 96.390, 1029.0, 32.0780
60.995255616, 96.390, 1082.0, 32.8938
61.021516181, 96.390, 1152.0, 33.9411
61.047776747, 96.390, 1072.0, 32.7414
61.074037312, 96.390, 1109.0, 33.3017
61.100297878, 96.390, 1131.0, 33.6303
61.126558443, 96.390, 1124.0, 33.5261
61.152819008, 96.390, 1191.0, 34.5109
61.179079574, 96.390, 1177.0, 34.3074
61.205340139, 96.390, 1194.0, 34.5543
61.231600704, 96.390, 1106.0, 33.2566
61.257861270, 96.390, 1080.0, 32.8634
61.284121835, 96.390, 1095.0, 33.0908
61.310382400, 96.390, 1094.0, 33.0757
61.336642966, 96.390, 1110.0, 33.3167
61.362903531, 96.390, 1114.0, 33.3766
61.389164096, 96.390, 1069.0, 32.6956
61.415424662, 96.390, 1118.0, 33.4365
61.441685227, 96.390, 1100.0, 33.1662
61.467945792, 96.390, 1070.0, 32.7109
61.494206358, 96.390, 1118.0, 33.4365
61.520466923, 96.390, 1066.0, 32.6497
61.546727489, 96.390, 1104.0, 33.2265
61.572988054, 96.390, 1054.0, 32.4654
61.599248619, 96.390, 1058.0, 32.5269
61.625509185, 96.390, 1050.0, 32.4037
61.651769750, 96.390, 1068.0, 32.6803
61.678030315, 96.390, 1057.0, 32.5115
61.704290881, 96.390, 1038.0, 32.2180
61.730551446, 96.390, 1046.0, 32.3419
61.756812011, 96.390, 1038.0, 32.2180
61.783072577, 96.390, 1047.0, 32.3574
61.809333142, 96.390, 1047.0, 32.3574
61.835593707, 96.390, 1014.0, 31.8434
61.861854273, 96.390, 1063.0, 32.6037
61.888114838, 96.390, 1007.0, 31.7333
61.914375404, 96.390, 985.0, 31.3847
61.940635969, 96.390, 992.0, 31.4960
61.966896534, 96.390, 950.0, 30.8221
61.993157100, 96.390, 970.0, 31.1448
62.019417665, 96.390, 989.0, 31.4484
62.045678230, 96.390, 1006.0, 31.7175
62.071938796, 96.390, 967.0, 31.0966
62.098199361, 96.390, 942.0, 30.6920
62.124459926, 96.390, 952.0, 30.8545
62.150720492, 96.390, 910.0, 30.1662
62.176981057, 96.390, 907.0, 30.1164
62.203241622, 96.390, 965.0, 31.0644
62.229502188, 96.390, 964.0, 31.0483
62.255762753, 96.390, 991.0, 31.4802
62.282023318, 96.390, 953.0, 30.8707
62.308283884, 96.390, 975.0, 31.2250
62.334544449, 96.390, 986.0, 31.4006
62.360805015, 96.390, 957.0, 30.9354
62.387065580, 96.390, 984.0, 31.3688
62.413326145, 96.390, 954.0, 30.8869
62.439586711, 96.390, 897.0, 29.9500
62.465847276, 96.390, 942.0, 30.6920
62.492107841, 96.390, 930.0, 30.4959
62.518368407, 96.390, 963.0, 31.0322
62.544628972, 96.390, 881.0, 29.6816
62.570889537, 96.390, 908.0, 30.1330
62.597150103, 96.390, 874.0, 29.5635
62.623410668, 96.390, 913.0, 30.2159
62.649671233, 96.390, 857.0, 29.2746
62.675931799, 96.390, 788.0, 28.0713
62.702192364, 96.390, 867.0, 29.4449
62.728452930, 96.390, 810.0, 28.4605
62.754713495, 96.390, 832.0, 28.8444
62.780974060, 96.390, 839.0, 28.9655
62.807234626, 96.390, 839.0, 28.9655
62.833495191, 96.390, 824.0, 28.7054
62.859755756, 96.390, 814.0, 28.5307
62.886016322, 96.390, 838.0, 28.9482
62.912276887, 96.390, 764.0, 27.6405
62.938537452, 96.390, 830.0, 28.8097
62.964798018, 96.390, 824.0, 28.7054
62.991058583, 96.390, 756.0, 27.4955
63.017319148, 96.390, 817.0, 28.5832
63.043579714, 96.390, 767.0, 27.6948
63.069840279, 96.390, 748.0, 27.3496
63.096100844, 96.390, 750.0, 27.3861
63.122361410, 96.390, 783.0, 27.9821
63.148621975, 96.390, 737.0, 27.1477
63.174882541, 96.390, 762.0, 27.6043
63.201143106, 96.390, 776.0, 27.8568
63.227403671, 96.390, 785.0, 28.0179
63.253664237, 96.390, 728.0, 26.9815
63.279924802, 96.390, 719.0, 26.8142
63.306185367, 96.390, 775.0, 27.8388
63.332445933, 96.390, 803.0, 28.3373
63.358706498, 96.390, 832.0, 28.8444
63.384967063, 96.390, 746.0, 27.3130
63.411227629, 96.390, 749.0, 27.3679
63.437488194, 96.390, 709.0, 26.6271
63.463748759, 96.390, 734.0, 27.0924
63.490009325, 96.390, 781.0, 27.9464
63.516269890, 96.390, 740.0, 27.2029
63.542530455, 96.390, 744.0, 27.2764
63.568791021, 96.390, 788.0, 28.0713
63.595051586, 96.390, 741.0, 27.2213
63.621312152, 96.390, 695.0, 26.3629
63.647572717, 96.390, 741.0, 27.2213
63.673833282, 96.390, 701.0, 26.4764
63.700093848, 96.390, 717.0, 26.7769
63.726354413, 96.390, 684.0, 26.1534
63.752614978, 96.390, 679.0, 26.0576
63.778875544, 96.390, 748.0, 27.3496
63.805136109, 96.390, 695.0, 26.3629
63.831396674, 96.390, 721.0, 26.8514
63.857657240, 96.390, 735.0, 27.1109
63.883917805, 96.390, 731.0, 27.0370
63.910178370, 96.390, 708.0, 26.6083
63.936438936, 96.390, 740.0, 27.2029
63.962699501, 96.390, 783.0, 27.9821
63.988960067, 96.390, 798.0, 28.2489
64.015220632, 96.390, 781.0, 27.9464
64.041481197, 96.390, 711.0, 26.6646
64.067741763, 96.390, 730.0, 27.0185
64.094002328, 96.390, 728.0, 26.9815
64.120262893, 96.390, 771.0, 27.7669
64.146523459, 96.390, 802.0, 28.3196
64.172784024, 96.390, 800.0, 28.2843
64.199044589, 96.390, 755.0, 27.4773
64.225305155, 96.390, 761.0, 27.5862
64.251565720, 96.390, 735.0, 27.1109
64.277826285, 96.390, 766.0, 27.6767
64.304086851, 96.390, 729.0, 27.0000
64.330347416, 96.390, 736.0, 27.1293
64.356607981, 96.390, 712.0, 26.6833
64.382868547, 96.390, 698.0, 26.4197
64.409129112, 96.390, 694.0, 26.3439
64.435389678, 96.390, 653.0, 25.5539
64.461650243, 96.390, 684.0, 26.1534
64.487910808, 96.390, 696.0, 26.3818
64.514171374, 96.390, 703.0, 26.5141
64.540431939, 96.390, 625.0, 25.0000
64.566692504, 96.390, 626.0, 25.0200
64.592953070, 96.390, 646.0, 25.4165
64.619213635, 96.390, 643.0, 25.3574
64.645474200, 96.390, 670.0, 25.8844
64.671734766, 96.390, 643.0, 25.3574
64.697995331, 96.390, 649.0, 25.4755
64.724255896, 96.390, 635.0, 25.1992
64.750516462, 96.390, 635.0, 25.1992
64.776777027, 96.390, 666.0, 25.8070
64.803037593, 96.390, 644.0, 25.3772
64.829298158, 96.390, 654.0, 25.5734
64.855558723, 96.390, 658.0, 25.6515
64.881819289, 96.390, 592.0, 24.3311
64.908079854, 96.390, 601.0, 24.5153
64.934340419, 96.390, 688.0, 26.2298
64.960600985, 96.390, 634.0, 25.1794
64.986861550, 96.390, 632.0, 25.1396
