[Measurement conditions]
Sample identification,XRD_SiAxial05Nov21_Act10Jan22_B1_0714M_NaOH_LS0162_1
Comment - 1,"Configuration=Stage for Flat Samples/Holders, Owner=User-1, Creation date=7/1/2020 9:53:24 AM"
Comment - 2,"Goniometer=Theta/Theta; Minimum step size 2Theta:0.0001; Minimum step size Omega:0.0001"
Comment - 3,"Sample stage=Stage for flat samples/holders"
Comment - 4,"Diffractometer system=EMPYREAN"
Comment - 5,"Measurement program=C:\Users\ibo5034\OneDrive - The Pennsylvania State University\NEUP - Reed, Titus's files\XRD\Cement\Zerobackground scan.xrdmp, Identifier={98A3B11C-88F9-4AA6-982C-73314A311EF5}"
Anode material,Cu
K-Alpha1 wavelength,1.5405980
K-Alpha2 wavelength,1.5444260
Ratio K-Alpha2/K-Alpha1,0.500
Divergence slit,Fixed,0.25
Monochromator used,NO
Generator voltage, 45
Tube current, 40
File date and time,13/Jan/2022 12:16
Unit cell,
h k l, 0 0 0
Scan axis,Gonio
Scan range,4.994599997,64.999991833
Scan step size,0.0262606
No. of points, 2285
Scan type,CONTINUOUS
Time per step,96.390
[Scan points]
Angle, TimePerStep, Intensity, ESD
5.007730280, 96.390, 4139.0, 64.3351
5.033990845, 96.390, 3949.0, 62.8411
5.060251411, 96.390, 4059.0, 63.7103
5.086511976, 96.390, 3989.0, 63.1585
5.112772541, 96.390, 3919.0, 62.6019
5.139033107, 96.390, 4007.0, 63.3009
5.165293672, 96.390, 3835.0, 61.9274
5.191554237, 96.390, 3963.0, 62.9524
5.217814803, 96.390, 3824.0, 61.8385
5.244075368, 96.390, 3833.0, 61.9112
5.270335934, 96.390, 3923.0, 62.6339
5.296596499, 96.390, 3812.0, 61.7414
5.322857064, 96.390, 3838.0, 61.9516
5.349117630, 96.390, 3786.0, 61.5305
5.375378195, 96.390, 3763.0, 61.3433
5.401638760, 96.390, 3787.0, 61.5386
5.427899326, 96.390, 3856.0, 62.0967
5.454159891, 96.390, 3765.0, 61.3596
5.480420456, 96.390, 3801.0, 61.6523
5.506681022, 96.390, 3732.0, 61.0901
5.532941587, 96.390, 3764.0, 61.3514
5.559202152, 96.390, 3738.0, 61.1392
5.585462718, 96.390, 3694.0, 60.7783
5.611723283, 96.390, 3619.0, 60.1581
5.637983849, 96.390, 3596.0, 59.9667
5.664244414, 96.390, 3616.0, 60.1332
5.690504979, 96.390, 3548.0, 59.5651
5.716765545, 96.390, 3558.0, 59.6490
5.743026110, 96.390, 3491.0, 59.0847
5.769286675, 96.390, 3612.0, 60.0999
5.795547241, 96.390, 3598.0, 59.9833
5.821807806, 96.390, 3502.0, 59.1777
5.848068371, 96.390, 3457.0, 58.7963
5.874328937, 96.390, 3477.0, 58.9661
5.900589502, 96.390, 3528.0, 59.3970
5.926850067, 96.390, 3546.0, 59.5483
5.953110633, 96.390, 3617.0, 60.1415
5.979371198, 96.390, 3519.0, 59.3212
6.005631763, 96.390, 3564.0, 59.6992
6.031892329, 96.390, 3592.0, 59.9333
6.058152894, 96.390, 3578.0, 59.8164
6.084413460, 96.390, 3513.0, 59.2706
6.110674025, 96.390, 3533.0, 59.4390
6.136934590, 96.390, 3472.0, 58.9237
6.163195156, 96.390, 3511.0, 59.2537
6.189455721, 96.390, 3387.0, 58.1979
6.215716286, 96.390, 3544.0, 59.5315
6.241976852, 96.390, 3341.0, 57.8014
6.268237417, 96.390, 3507.0, 59.2199
6.294497982, 96.390, 3483.0, 59.0169
6.320758548, 96.390, 3405.0, 58.3524
6.347019113, 96.390, 3457.0, 58.7963
6.373279678, 96.390, 3491.0, 59.0847
6.399540244, 96.390, 3566.0, 59.7160
6.425800809, 96.390, 3517.0, 59.3043
6.452061375, 96.390, 3474.0, 58.9406
6.478321940, 96.390, 3353.0, 57.9051
6.504582505, 96.390, 3442.0, 58.6686
6.530843071, 96.390, 3416.0, 58.4466
6.557103636, 96.390, 3465.0, 58.8643
6.583364201, 96.390, 3492.0, 59.0931
6.609624767, 96.390, 3445.0, 58.6941
6.635885332, 96.390, 3493.0, 59.1016
6.662145897, 96.390, 3490.0, 59.0762
6.688406463, 96.390, 3507.0, 59.2199
6.714667028, 96.390, 3343.0, 57.8187
6.740927593, 96.390, 3352.0, 57.8965
6.767188159, 96.390, 3310.0, 57.5326
6.793448724, 96.390, 3394.0, 58.2580
6.819709289, 96.390, 3404.0, 58.3438
6.845969855, 96.390, 3413.0, 58.4209
6.872230420, 96.390, 3247.0, 56.9825
6.898490986, 96.390, 3470.0, 58.9067
6.924751551, 96.390, 3357.0, 57.9396
6.951012116, 96.390, 3421.0, 58.4893
6.977272682, 96.390, 3353.0, 57.9051
7.003533247, 96.390, 3329.0, 57.6975
7.029793812, 96.390, 3407.0, 58.3695
7.056054378, 96.390, 3549.0, 59.5735
7.082314943, 96.390, 3380.0, 58.1378
7.108575508, 96.390, 3356.0, 57.9310
7.134836074, 96.390, 3489.0, 59.0678
7.161096639, 96.390, 3452.0, 58.7537
7.187357204, 96.390, 3299.0, 57.4369
7.213617770, 96.390, 3434.0, 58.6003
7.239878335, 96.390, 3477.0, 58.9661
7.266138900, 96.390, 3389.0, 58.2151
7.292399466, 96.390, 3448.0, 58.7197
7.318660031, 96.390, 3434.0, 58.6003
7.344920597, 96.390, 3401.0, 58.3181
7.371181162, 96.390, 3578.0, 59.8164
7.397441727, 96.390, 3445.0, 58.6941
7.423702293, 96.390, 3368.0, 58.0345
7.449962858, 96.390, 3411.0, 58.4038
7.476223423, 96.390, 3475.0, 58.9491
7.502483989, 96.390, 3419.0, 58.4722
7.528744554, 96.390, 3381.0, 58.1464
7.555005119, 96.390, 3489.0, 59.0678
7.581265685, 96.390, 3407.0, 58.3695
7.607526250, 96.390, 3362.0, 57.9828
7.633786815, 96.390, 3495.0, 59.1185
7.660047381, 96.390, 3354.0, 57.9137
7.686307946, 96.390, 3411.0, 58.4038
7.712568512, 96.390, 3458.0, 58.8048
7.738829077, 96.390, 3537.0, 59.4727
7.765089642, 96.390, 3451.0, 58.7452
7.791350208, 96.390, 3541.0, 59.5063
7.817610773, 96.390, 3572.0, 59.7662
7.843871338, 96.390, 3521.0, 59.3380
7.870131904, 96.390, 3470.0, 58.9067
7.896392469, 96.390, 3458.0, 58.8048
7.922653034, 96.390, 3485.0, 59.0339
7.948913600, 96.390, 3538.0, 59.4811
7.975174165, 96.390, 3616.0, 60.1332
8.001434730, 96.390, 3623.0, 60.1914
8.027695296, 96.390, 3592.0, 59.9333
8.053955861, 96.390, 3606.0, 60.0500
8.080216426, 96.390, 3538.0, 59.4811
8.106476992, 96.390, 3579.0, 59.8247
8.132737557, 96.390, 3606.0, 60.0500
8.158998123, 96.390, 3692.0, 60.7618
8.185258688, 96.390, 3673.0, 60.6053
8.211519253, 96.390, 3717.0, 60.9672
8.237779819, 96.390, 3688.0, 60.7289
8.264040384, 96.390, 3636.0, 60.2993
8.290300949, 96.390, 3475.0, 58.9491
8.316561515, 96.390, 3526.0, 59.3801
8.342822080, 96.390, 3573.0, 59.7746
8.369082645, 96.390, 3603.0, 60.0250
8.395343211, 96.390, 3516.0, 59.2959
8.421603776, 96.390, 3592.0, 59.9333
8.447864341, 96.390, 3538.0, 59.4811
8.474124907, 96.390, 3491.0, 59.0847
8.500385472, 96.390, 3505.0, 59.2030
8.526646038, 96.390, 3413.0, 58.4209
8.552906603, 96.390, 3552.0, 59.5987
8.579167168, 96.390, 3510.0, 59.2453
8.605427734, 96.390, 3462.0, 58.8388
8.631688299, 96.390, 3641.0, 60.3407
8.657948864, 96.390, 3545.0, 59.5399
8.684209430, 96.390, 3484.0, 59.0254
8.710469995, 96.390, 3449.0, 58.7282
8.736730560, 96.390, 3537.0, 59.4727
8.762991126, 96.390, 3520.0, 59.3296
8.789251691, 96.390, 3575.0, 59.7913
8.815512256, 96.390, 3537.0, 59.4727
8.841772822, 96.390, 3378.0, 58.1206
8.868033387, 96.390, 3404.0, 58.3438
8.894293952, 96.390, 3490.0, 59.0762
8.920554518, 96.390, 3489.0, 59.0678
8.946815083, 96.390, 3516.0, 59.2959
8.973075649, 96.390, 3500.0, 59.1608
8.999336214, 96.390, 3513.0, 59.2706
9.025596779, 96.390, 3367.0, 58.0259
9.051857345, 96.390, 3339.0, 57.7841
9.078117910, 96.390, 3502.0, 59.1777
9.104378475, 96.390, 3362.0, 57.9828
9.130639041, 96.390, 3484.0, 59.0254
9.156899606, 96.390, 3543.0, 59.5231
9.183160171, 96.390, 3359.0, 57.9569
9.209420737, 96.390, 3312.0, 57.5500
9.235681302, 96.390, 3429.0, 58.5577
9.261941867, 96.390, 3384.0, 58.1722
9.288202433, 96.390, 3437.0, 58.6259
9.314462998, 96.390, 3403.0, 58.3352
9.340723564, 96.390, 3295.0, 57.4021
9.366984129, 96.390, 3427.0, 58.5406
9.393244694, 96.390, 3360.0, 57.9655
9.419505260, 96.390, 3397.0, 58.2838
9.445765825, 96.390, 3372.0, 58.0689
9.472026390, 96.390, 3430.0, 58.5662
9.498286956, 96.390, 3239.0, 56.9122
9.524547521, 96.390, 3318.0, 57.6021
9.550808086, 96.390, 3290.0, 57.3585
9.577068652, 96.390, 3296.0, 57.4108
9.603329217, 96.390, 3278.0, 57.2538
9.629589782, 96.390, 3347.0, 57.8533
9.655850348, 96.390, 3334.0, 57.7408
9.682110913, 96.390, 3224.0, 56.7803
9.708371478, 96.390, 3344.0, 57.8273
9.734632044, 96.390, 3312.0, 57.5500
9.760892609, 96.390, 3234.0, 56.8683
9.787153175, 96.390, 3197.0, 56.5420
9.813413740, 96.390, 3201.0, 56.5774
9.839674305, 96.390, 3311.0, 57.5413
9.865934871, 96.390, 3165.0, 56.2583
9.892195436, 96.390, 3175.0, 56.3471
9.918456001, 96.390, 3266.0, 57.1489
9.944716567, 96.390, 3179.0, 56.3826
9.970977132, 96.390, 3217.0, 56.7186
9.997237697, 96.390, 3265.0, 57.1402
10.023498263, 96.390, 3193.0, 56.5066
10.049758828, 96.390, 3220.0, 56.7450
10.076019393, 96.390, 3085.0, 55.5428
10.102279959, 96.390, 3194.0, 56.5155
10.128540524, 96.390, 3138.0, 56.0179
10.154801090, 96.390, 3172.0, 56.3205
10.181061655, 96.390, 3109.0, 55.7584
10.207322220, 96.390, 3099.0, 55.6687
10.233582786, 96.390, 3131.0, 55.9553
10.259843351, 96.390, 3170.0, 56.3028
10.286103916, 96.390, 3026.0, 55.0091
10.312364482, 96.390, 3069.0, 55.3986
10.338625047, 96.390, 3187.0, 56.4535
10.364885612, 96.390, 3055.0, 55.2721
10.391146178, 96.390, 3079.0, 55.4887
10.417406743, 96.390, 3125.0, 55.9017
10.443667308, 96.390, 3062.0, 55.3353
10.469927874, 96.390, 3135.0, 55.9911
10.496188439, 96.390, 2977.0, 54.5619
10.522449004, 96.390, 3170.0, 56.3028
10.548709570, 96.390, 3064.0, 55.3534
10.574970135, 96.390, 2971.0, 54.5069
10.601230701, 96.390, 3118.0, 55.8391
10.627491266, 96.390, 2982.0, 54.6077
10.653751831, 96.390, 3019.0, 54.9454
10.680012397, 96.390, 3030.0, 55.0454
10.706272962, 96.390, 3060.0, 55.3173
10.732533527, 96.390, 3086.0, 55.5518
10.758794093, 96.390, 2948.0, 54.2955
10.785054658, 96.390, 2937.0, 54.1941
10.811315223, 96.390, 2994.0, 54.7175
10.837575789, 96.390, 2970.0, 54.4977
10.863836354, 96.390, 2988.0, 54.6626
10.890096919, 96.390, 2993.0, 54.7083
10.916357485, 96.390, 2915.0, 53.9907
10.942618050, 96.390, 2983.0, 54.6168
10.968878616, 96.390, 2937.0, 54.1941
10.995139181, 96.390, 3008.0, 54.8452
11.021399746, 96.390, 2896.0, 53.8145
11.047660312, 96.390, 2921.0, 54.0463
11.073920877, 96.390, 2945.0, 54.2679
11.100181442, 96.390, 2909.0, 53.9351
11.126442008, 96.390, 2916.0, 54.0000
11.152702573, 96.390, 2969.0, 54.4885
11.178963138, 96.390, 2913.0, 53.9722
11.205223704, 96.390, 2866.0, 53.5350
11.231484269, 96.390, 2792.0, 52.8394
11.257744834, 96.390, 2762.0, 52.5547
11.284005400, 96.390, 2801.0, 52.9245
11.310265965, 96.390, 2800.0, 52.9150
11.336526530, 96.390, 2841.0, 53.3010
11.362787096, 96.390, 2791.0, 52.8299
11.389047661, 96.390, 2895.0, 53.8052
11.415308227, 96.390, 2833.0, 53.2259
11.441568792, 96.390, 2815.0, 53.0566
11.467829357, 96.390, 2871.0, 53.5817
11.494089923, 96.390, 2767.0, 52.6023
11.520350488, 96.390, 2798.0, 52.8961
11.546611053, 96.390, 2861.0, 53.4883
11.572871619, 96.390, 2750.0, 52.4404
11.599132184, 96.390, 2711.0, 52.0673
11.625392749, 96.390, 2690.0, 51.8652
11.651653315, 96.390, 2775.0, 52.6783
11.677913880, 96.390, 2727.0, 52.2207
11.704174445, 96.390, 2735.0, 52.2972
11.730435011, 96.390, 2693.0, 51.8941
11.756695576, 96.390, 2668.0, 51.6527
11.782956141, 96.390, 2733.0, 52.2781
11.809216707, 96.390, 2679.0, 51.7591
11.835477272, 96.390, 2626.0, 51.2445
11.861737838, 96.390, 2729.0, 52.2398
11.887998403, 96.390, 2675.0, 51.7204
11.914258968, 96.390, 2640.0, 51.3809
11.940519534, 96.390, 2697.0, 51.9326
11.966780099, 96.390, 2699.0, 51.9519
11.993040664, 96.390, 2678.0, 51.7494
12.019301230, 96.390, 2667.0, 51.6430
12.045561795, 96.390, 2648.0, 51.4587
12.071822360, 96.390, 2659.0, 51.5655
12.098082926, 96.390, 2589.0, 50.8822
12.124343491, 96.390, 2624.0, 51.2250
12.150604056, 96.390, 2627.0, 51.2543
12.176864622, 96.390, 2700.0, 51.9615
12.203125187, 96.390, 2664.0, 51.6140
12.229385753, 96.390, 2562.0, 50.6162
12.255646318, 96.390, 2580.0, 50.7937
12.281906883, 96.390, 2617.0, 51.1566
12.308167449, 96.390, 2568.0, 50.6754
12.334428014, 96.390, 2581.0, 50.8035
12.360688579, 96.390, 2559.0, 50.5866
12.386949145, 96.390, 2582.0, 50.8134
12.413209710, 96.390, 2553.0, 50.5272
12.439470275, 96.390, 2555.0, 50.5470
12.465730841, 96.390, 2588.0, 50.8724
12.491991406, 96.390, 2537.0, 50.3686
12.518251971, 96.390, 2479.0, 49.7896
12.544512537, 96.390, 2609.0, 51.0784
12.570773102, 96.390, 2494.0, 49.9400
12.597033667, 96.390, 2651.0, 51.4879
12.623294233, 96.390, 2602.0, 51.0098
12.649554798, 96.390, 2466.0, 49.6588
12.675815364, 96.390, 2420.0, 49.1935
12.702075929, 96.390, 2549.0, 50.4876
12.728336494, 96.390, 2493.0, 49.9300
12.754597060, 96.390, 2530.0, 50.2991
12.780857625, 96.390, 2528.0, 50.2792
12.807118190, 96.390, 2450.0, 49.4975
12.833378756, 96.390, 2374.0, 48.7237
12.859639321, 96.390, 2403.0, 49.0204
12.885899886, 96.390, 2547.0, 50.4678
12.912160452, 96.390, 2530.0, 50.2991
12.938421017, 96.390, 2458.0, 49.5782
12.964681582, 96.390, 2524.0, 50.2394
12.990942148, 96.390, 2483.0, 49.8297
13.017202713, 96.390, 2461.0, 49.6085
13.043463279, 96.390, 2462.0, 49.6185
13.069723844, 96.390, 2490.0, 49.8999
13.095984409, 96.390, 2503.0, 50.0300
13.122244975, 96.390, 2487.0, 49.8698
13.148505540, 96.390, 2421.0, 49.2037
13.174766105, 96.390, 2461.0, 49.6085
13.201026671, 96.390, 2519.0, 50.1896
13.227287236, 96.390, 2414.0, 49.1325
13.253547801, 96.390, 2511.0, 50.1099
13.279808367, 96.390, 2501.0, 50.0100
13.306068932, 96.390, 2470.0, 49.6991
13.332329497, 96.390, 2492.0, 49.9199
13.358590063, 96.390, 2475.0, 49.7494
13.384850628, 96.390, 2570.0, 50.6952
13.411111193, 96.390, 2485.0, 49.8498
13.437371759, 96.390, 2638.0, 51.3615
13.463632324, 96.390, 2658.0, 51.5558
13.489892890, 96.390, 2692.0, 51.8845
13.516153455, 96.390, 2759.0, 52.5262
13.542414020, 96.390, 2917.0, 54.0093
13.568674586, 96.390, 2783.0, 52.7541
13.594935151, 96.390, 2713.0, 52.0865
13.621195716, 96.390, 2473.0, 49.7293
13.647456282, 96.390, 2605.0, 51.0392
13.673716847, 96.390, 2470.0, 49.6991
13.699977412, 96.390, 2542.0, 50.4183
13.726237978, 96.390, 2398.0, 48.9694
13.752498543, 96.390, 2417.0, 49.1630
13.778759108, 96.390, 2494.0, 49.9400
13.805019674, 96.390, 2523.0, 50.2295
13.831280239, 96.390, 2527.0, 50.2693
13.857540805, 96.390, 2544.0, 50.4381
13.883801370, 96.390, 2427.0, 49.2646
13.910061935, 96.390, 2558.0, 50.5767
13.936322501, 96.390, 2568.0, 50.6754
13.962583066, 96.390, 2457.0, 49.5681
13.988843631, 96.390, 2424.0, 49.2341
14.015104197, 96.390, 2423.0, 49.2240
14.041364762, 96.390, 2339.0, 48.3632
14.067625327, 96.390, 2454.0, 49.5379
14.093885893, 96.390, 2445.0, 49.4469
14.120146458, 96.390, 2438.0, 49.3761
14.146407023, 96.390, 2455.0, 49.5480
14.172667589, 96.390, 2531.0, 50.3090
14.198928154, 96.390, 2567.0, 50.6656
14.225188719, 96.390, 2589.0, 50.8822
14.251449285, 96.390, 2708.0, 52.0384
14.277709850, 96.390, 2807.0, 52.9811
14.303970416, 96.390, 2889.0, 53.7494
14.330230981, 96.390, 2730.0, 52.2494
14.356491546, 96.390, 2499.0, 49.9900
14.382752112, 96.390, 2526.0, 50.2593
14.409012677, 96.390, 2439.0, 49.3862
14.435273242, 96.390, 2396.0, 48.9490
14.461533808, 96.390, 2505.0, 50.0500
14.487794373, 96.390, 2676.0, 51.7301
14.514054938, 96.390, 2700.0, 51.9615
14.540315504, 96.390, 2715.0, 52.1057
14.566576069, 96.390, 2848.0, 53.3667
14.592836634, 96.390, 2773.0, 52.6593
14.619097200, 96.390, 2611.0, 51.0979
14.645357765, 96.390, 2451.0, 49.5076
14.671618331, 96.390, 2388.0, 48.8672
14.697878896, 96.390, 2333.0, 48.3011
14.724139461, 96.390, 2392.0, 48.9081
14.750400027, 96.390, 2345.0, 48.4252
14.776660592, 96.390, 2313.0, 48.0937
14.802921157, 96.390, 2368.0, 48.6621
14.829181723, 96.390, 2262.0, 47.5605
14.855442288, 96.390, 2361.0, 48.5901
14.881702853, 96.390, 2357.0, 48.5489
14.907963419, 96.390, 2272.0, 47.6655
14.934223984, 96.390, 2261.0, 47.5500
14.960484549, 96.390, 2320.0, 48.1664
14.986745115, 96.390, 2332.0, 48.2908
15.013005680, 96.390, 2336.0, 48.3322
15.039266245, 96.390, 2398.0, 48.9694
15.065526811, 96.390, 2333.0, 48.3011
15.091787376, 96.390, 2366.0, 48.6415
15.118047942, 96.390, 2415.0, 49.1426
15.144308507, 96.390, 2494.0, 49.9400
15.170569072, 96.390, 2509.0, 50.0899
15.196829638, 96.390, 2638.0, 51.3615
15.223090203, 96.390, 2782.0, 52.7447
15.249350768, 96.390, 2909.0, 53.9351
15.275611334, 96.390, 2883.0, 53.6936
15.301871899, 96.390, 3085.0, 55.5428
15.328132464, 96.390, 2901.0, 53.8609
15.354393030, 96.390, 2682.0, 51.7880
15.380653595, 96.390, 2502.0, 50.0200
15.406914160, 96.390, 2495.0, 49.9500
15.433174726, 96.390, 2350.0, 48.4768
15.459435291, 96.390, 2320.0, 48.1664
15.485695857, 96.390, 2342.0, 48.3942
15.511956422, 96.390, 2433.0, 49.3254
15.538216987, 96.390, 2308.0, 48.0416
15.564477553, 96.390, 2351.0, 48.4871
15.590738118, 96.390, 2375.0, 48.7340
15.616998683, 96.390, 2335.0, 48.3218
15.643259249, 96.390, 2347.0, 48.4458
15.669519814, 96.390, 2341.0, 48.3839
15.695780379, 96.390, 2357.0, 48.5489
15.722040945, 96.390, 2381.0, 48.7955
15.748301510, 96.390, 2467.0, 49.6689
15.774562075, 96.390, 2389.0, 48.8774
15.800822641, 96.390, 2341.0, 48.3839
15.827083206, 96.390, 2329.0, 48.2597
15.853343771, 96.390, 2342.0, 48.3942
15.879604337, 96.390, 2362.0, 48.6004
15.905864902, 96.390, 2257.0, 47.5079
15.932125468, 96.390, 2404.0, 49.0306
15.958386033, 96.390, 2362.0, 48.6004
15.984646598, 96.390, 2275.0, 47.6970
16.010907164, 96.390, 2432.0, 49.3153
16.037167729, 96.390, 2335.0, 48.3218
16.063428294, 96.390, 2401.0, 49.0000
16.089688860, 96.390, 2463.0, 49.6286
16.115949425, 96.390, 2315.0, 48.1144
16.142209990, 96.390, 2339.0, 48.3632
16.168470556, 96.390, 2425.0, 49.2443
16.194731121, 96.390, 2452.0, 49.5177
16.220991686, 96.390, 2474.0, 49.7393
16.247252252, 96.390, 2529.0, 50.2892
16.273512817, 96.390, 2550.0, 50.4975
16.299773382, 96.390, 2640.0, 51.3809
16.326033948, 96.390, 2741.0, 52.3546
16.352294513, 96.390, 2817.0, 53.0754
16.378555079, 96.390, 2861.0, 53.4883
16.404815644, 96.390, 2799.0, 52.9056
16.431076209, 96.390, 2636.0, 51.3420
16.457336775, 96.390, 2659.0, 51.5655
16.483597340, 96.390, 2658.0, 51.5558
16.509857905, 96.390, 2610.0, 51.0882
16.536118471, 96.390, 2636.0, 51.3420
16.562379036, 96.390, 2695.0, 51.9134
16.588639601, 96.390, 2625.0, 51.2348
16.614900167, 96.390, 2490.0, 49.8999
16.641160732, 96.390, 2539.0, 50.3885
16.667421297, 96.390, 2463.0, 49.6286
16.693681863, 96.390, 2540.0, 50.3984
16.719942428, 96.390, 2438.0, 49.3761
16.746202994, 96.390, 2509.0, 50.0899
16.772463559, 96.390, 2521.0, 50.2096
16.798724124, 96.390, 2513.0, 50.1298
16.824984690, 96.390, 2498.0, 49.9800
16.851245255, 96.390, 2512.0, 50.1199
16.877505820, 96.390, 2499.0, 49.9900
16.903766386, 96.390, 2504.0, 50.0400
16.930026951, 96.390, 2527.0, 50.2693
16.956287516, 96.390, 2381.0, 48.7955
16.982548082, 96.390, 2485.0, 49.8498
17.008808647, 96.390, 2451.0, 49.5076
17.035069212, 96.390, 2355.0, 48.5283
17.061329778, 96.390, 2400.0, 48.9898
17.087590343, 96.390, 2345.0, 48.4252
17.113850908, 96.390, 2286.0, 47.8121
17.140111474, 96.390, 2324.0, 48.2079
17.166372039, 96.390, 2317.0, 48.1352
17.192632605, 96.390, 2370.0, 48.6826
17.218893170, 96.390, 2393.0, 48.9183
17.245153735, 96.390, 2301.0, 47.9687
17.271414301, 96.390, 2285.0, 47.8017
17.297674866, 96.390, 2366.0, 48.6415
17.323935431, 96.390, 2375.0, 48.7340
17.350195997, 96.390, 2367.0, 48.6518
17.376456562, 96.390, 2395.0, 48.9387
17.402717127, 96.390, 2281.0, 47.7598
17.428977693, 96.390, 2364.0, 48.6210
17.455238258, 96.390, 2337.0, 48.3425
17.481498823, 96.390, 2369.0, 48.6724
17.507759389, 96.390, 2306.0, 48.0208
17.534019954, 96.390, 2388.0, 48.8672
17.560280520, 96.390, 2304.0, 48.0000
17.586541085, 96.390, 2256.0, 47.4974
17.612801650, 96.390, 2276.0, 47.7074
17.639062216, 96.390, 2297.0, 47.9270
17.665322781, 96.390, 2347.0, 48.4458
17.691583346, 96.390, 2311.0, 48.0729
17.717843912, 96.390, 2329.0, 48.2597
17.744104477, 96.390, 2325.0, 48.2183
17.770365042, 96.390, 2239.0, 47.3181
17.796625608, 96.390, 2333.0, 48.3011
17.822886173, 96.390, 2413.0, 49.1223
17.849146738, 96.390, 2394.0, 48.9285
17.875407304, 96.390, 2270.0, 47.6445
17.901667869, 96.390, 2299.0, 47.9479
17.927928434, 96.390, 2253.0, 47.4658
17.954189000, 96.390, 2334.0, 48.3115
17.980449565, 96.390, 2246.0, 47.3920
18.006710131, 96.390, 2324.0, 48.2079
18.032970696, 96.390, 2220.0, 47.1169
18.059231261, 96.390, 2272.0, 47.6655
18.085491827, 96.390, 2362.0, 48.6004
18.111752392, 96.390, 2322.0, 48.1871
18.138012957, 96.390, 2383.0, 48.8160
18.164273523, 96.390, 2281.0, 47.7598
18.190534088, 96.390, 2232.0, 47.2440
18.216794653, 96.390, 2334.0, 48.3115
18.243055219, 96.390, 2379.0, 48.7750
18.269315784, 96.390, 2368.0, 48.6621
18.295576349, 96.390, 2326.0, 48.2286
18.321836915, 96.390, 2413.0, 49.1223
18.348097480, 96.390, 2427.0, 49.2646
18.374358046, 96.390, 2394.0, 48.9285
18.400618611, 96.390, 2405.0, 49.0408
18.426879176, 96.390, 2467.0, 49.6689
18.453139742, 96.390, 2380.0, 48.7852
18.479400307, 96.390, 2368.0, 48.6621
18.505660872, 96.390, 2300.0, 47.9583
18.531921438, 96.390, 2360.0, 48.5798
18.558182003, 96.390, 2353.0, 48.5077
18.584442568, 96.390, 2375.0, 48.7340
18.610703134, 96.390, 2300.0, 47.9583
18.636963699, 96.390, 2376.0, 48.7442
18.663224264, 96.390, 2376.0, 48.7442
18.689484830, 96.390, 2353.0, 48.5077
18.715745395, 96.390, 2476.0, 49.7594
18.742005960, 96.390, 2492.0, 49.9199
18.768266526, 96.390, 2544.0, 50.4381
18.794527091, 96.390, 2673.0, 51.7011
18.820787657, 96.390, 2751.0, 52.4500
18.847048222, 96.390, 2874.0, 53.6097
18.873308787, 96.390, 2869.0, 53.5630
18.899569353, 96.390, 2949.0, 54.3047
18.925829918, 96.390, 2931.0, 54.1387
18.952090483, 96.390, 2883.0, 53.6936
18.978351049, 96.390, 2878.0, 53.6470
19.004611614, 96.390, 2952.0, 54.3323
19.030872179, 96.390, 2911.0, 53.9537
19.057132745, 96.390, 2728.0, 52.2303
19.083393310, 96.390, 2700.0, 51.9615
19.109653875, 96.390, 2559.0, 50.5866
19.135914441, 96.390, 2583.0, 50.8232
19.162175006, 96.390, 2505.0, 50.0500
19.188435572, 96.390, 2559.0, 50.5866
19.214696137, 96.390, 2456.0, 49.5580
19.240956702, 96.390, 2479.0, 49.7896
19.267217268, 96.390, 2498.0, 49.9800
19.293477833, 96.390, 2530.0, 50.2991
19.319738398, 96.390, 2528.0, 50.2792
19.345998964, 96.390, 2570.0, 50.6952
19.372259529, 96.390, 2695.0, 51.9134
19.398520094, 96.390, 2710.0, 52.0577
19.424780660, 96.390, 2832.0, 53.2165
19.451041225, 96.390, 2720.0, 52.1536
19.477301790, 96.390, 2643.0, 51.4101
19.503562356, 96.390, 2661.0, 51.5849
19.529822921, 96.390, 2677.0, 51.7397
19.556083486, 96.390, 2600.0, 50.9902
19.582344052, 96.390, 2653.0, 51.5073
19.608604617, 96.390, 2541.0, 50.4083
19.634865183, 96.390, 2574.0, 50.7346
19.661125748, 96.390, 2587.0, 50.8626
19.687386313, 96.390, 2670.0, 51.6720
19.713646879, 96.390, 2777.0, 52.6972
19.739907444, 96.390, 2712.0, 52.0769
19.766168009, 96.390, 2791.0, 52.8299
19.792428575, 96.390, 2806.0, 52.9717
19.818689140, 96.390, 2886.0, 53.7215
19.844949705, 96.390, 2905.0, 53.8981
19.871210271, 96.390, 2815.0, 53.0566
19.897470836, 96.390, 2945.0, 54.2679
19.923731401, 96.390, 3019.0, 54.9454
19.949991967, 96.390, 3165.0, 56.2583
19.976252532, 96.390, 3444.0, 58.6856
20.002513097, 96.390, 3464.0, 58.8558
20.028773663, 96.390, 3397.0, 58.2838
20.055034228, 96.390, 3123.0, 55.8838
20.081294794, 96.390, 2786.0, 52.7826
20.107555359, 96.390, 2772.0, 52.6498
20.133815924, 96.390, 2657.0, 51.5461
20.160076490, 96.390, 2670.0, 51.6720
20.186337055, 96.390, 2629.0, 51.2738
20.212597620, 96.390, 2716.0, 52.1153
20.238858186, 96.390, 2722.0, 52.1728
20.265118751, 96.390, 2779.0, 52.7162
20.291379316, 96.390, 2748.0, 52.4214
20.317639882, 96.390, 2724.0, 52.1920
20.343900447, 96.390, 2752.0, 52.4595
20.370161012, 96.390, 2888.0, 53.7401
20.396421578, 96.390, 2971.0, 54.5069
20.422682143, 96.390, 2999.0, 54.7631
20.448942709, 96.390, 3106.0, 55.7315
20.475203274, 96.390, 3096.0, 55.6417
20.501463839, 96.390, 3189.0, 56.4712
20.527724405, 96.390, 3206.0, 56.6216
20.553984970, 96.390, 3140.0, 56.0357
20.580245535, 96.390, 3275.0, 57.2276
20.606506101, 96.390, 3396.0, 58.2752
20.632766666, 96.390, 3742.0, 61.1719
20.659027231, 96.390, 4059.0, 63.7103
20.685287797, 96.390, 4481.0, 66.9403
20.711548362, 96.390, 5134.0, 71.6519
20.737808927, 96.390, 5458.0, 73.8783
20.764069493, 96.390, 5046.0, 71.0352
20.790330058, 96.390, 4431.0, 66.5658
20.816590623, 96.390, 3740.0, 61.1555
20.842851189, 96.390, 3216.0, 56.7098
20.869111754, 96.390, 3047.0, 55.1996
20.895372320, 96.390, 3025.0, 55.0000
20.921632885, 96.390, 2938.0, 54.2033
20.947893450, 96.390, 2954.0, 54.3507
20.974154016, 96.390, 2904.0, 53.8888
21.000414581, 96.390, 2944.0, 54.2586
21.026675146, 96.390, 2906.0, 53.9073
21.052935712, 96.390, 2869.0, 53.5630
21.079196277, 96.390, 2877.0, 53.6377
21.105456842, 96.390, 2916.0, 54.0000
21.131717408, 96.390, 2779.0, 52.7162
21.157977973, 96.390, 2870.0, 53.5724
21.184238538, 96.390, 2809.0, 53.0000
21.210499104, 96.390, 2866.0, 53.5350
21.236759669, 96.390, 2810.0, 53.0094
21.263020235, 96.390, 2814.0, 53.0471
21.289280800, 96.390, 2924.0, 54.0740
21.315541365, 96.390, 2986.0, 54.6443
21.341801931, 96.390, 2880.0, 53.6656
21.368062496, 96.390, 3035.0, 55.0908
21.394323061, 96.390, 3025.0, 55.0000
21.420583627, 96.390, 2913.0, 53.9722
21.446844192, 96.390, 2806.0, 52.9717
21.473104757, 96.390, 2821.0, 53.1131
21.499365323, 96.390, 2763.0, 52.5642
21.525625888, 96.390, 2747.0, 52.4118
21.551886453, 96.390, 2838.0, 53.2729
21.578147019, 96.390, 2855.0, 53.4322
21.604407584, 96.390, 2981.0, 54.5985
21.630668149, 96.390, 3034.0, 55.0818
21.656928715, 96.390, 3120.0, 55.8570
21.683189280, 96.390, 3141.0, 56.0446
21.709449846, 96.390, 3035.0, 55.0908
21.735710411, 96.390, 2940.0, 54.2218
21.761970976, 96.390, 2945.0, 54.2679
21.788231542, 96.390, 2785.0, 52.7731
21.814492107, 96.390, 2761.0, 52.5452
21.840752672, 96.390, 2651.0, 51.4879
21.867013238, 96.390, 2822.0, 53.1225
21.893273803, 96.390, 2685.0, 51.8170
21.919534368, 96.390, 2695.0, 51.9134
21.945794934, 96.390, 2668.0, 51.6527
21.972055499, 96.390, 2819.0, 53.0943
21.998316064, 96.390, 2701.0, 51.9711
22.024576630, 96.390, 2742.0, 52.3641
22.050837195, 96.390, 2700.0, 51.9615
22.077097761, 96.390, 2800.0, 52.9150
22.103358326, 96.390, 2796.0, 52.8772
22.129618891, 96.390, 2677.0, 51.7397
22.155879457, 96.390, 2809.0, 53.0000
22.182140022, 96.390, 2744.0, 52.3832
22.208400587, 96.390, 2751.0, 52.4500
22.234661153, 96.390, 2761.0, 52.5452
22.260921718, 96.390, 2749.0, 52.4309
22.287182283, 96.390, 2753.0, 52.4690
22.313442849, 96.390, 2793.0, 52.8488
22.339703414, 96.390, 2822.0, 53.1225
22.365963979, 96.390, 2779.0, 52.7162
22.392224545, 96.390, 2812.0, 53.0283
22.418485110, 96.390, 2841.0, 53.3010
22.444745675, 96.390, 2751.0, 52.4500
22.471006241, 96.390, 2864.0, 53.5164
22.497266806, 96.390, 2903.0, 53.8795
22.523527372, 96.390, 2779.0, 52.7162
22.549787937, 96.390, 2800.0, 52.9150
22.576048502, 96.390, 2772.0, 52.6498
22.602309068, 96.390, 2925.0, 54.0833
22.628569633, 96.390, 2838.0, 53.2729
22.654830198, 96.390, 2896.0, 53.8145
22.681090764, 96.390, 2838.0, 53.2729
22.707351329, 96.390, 2920.0, 54.0370
22.733611894, 96.390, 2863.0, 53.5070
22.759872460, 96.390, 2842.0, 53.3104
22.786133025, 96.390, 2845.0, 53.3385
22.812393590, 96.390, 2974.0, 54.5344
22.838654156, 96.390, 3094.0, 55.6237
22.864914721, 96.390, 3120.0, 55.8570
22.891175287, 96.390, 3152.0, 56.1427
22.917435852, 96.390, 3131.0, 55.9553
22.943696417, 96.390, 3094.0, 55.6237
22.969956983, 96.390, 3002.0, 54.7905
22.996217548, 96.390, 3044.0, 55.1725
23.022478113, 96.390, 3039.0, 55.1271
23.048738679, 96.390, 2990.0, 54.6809
23.074999244, 96.390, 2950.0, 54.3139
23.101259809, 96.390, 3041.0, 55.1453
23.127520375, 96.390, 3008.0, 54.8452
23.153780940, 96.390, 3059.0, 55.3082
23.180041505, 96.390, 3225.0, 56.7891
23.206302071, 96.390, 3155.0, 56.1694
23.232562636, 96.390, 3199.0, 56.5597
23.258823201, 96.390, 3122.0, 55.8749
23.285083767, 96.390, 3098.0, 55.6597
23.311344332, 96.390, 2999.0, 54.7631
23.337604898, 96.390, 2990.0, 54.6809
23.363865463, 96.390, 2975.0, 54.5436
23.390126028, 96.390, 3059.0, 55.3082
23.416386594, 96.390, 3110.0, 55.7674
23.442647159, 96.390, 3125.0, 55.9017
23.468907724, 96.390, 2993.0, 54.7083
23.495168290, 96.390, 2918.0, 54.0185
23.521428855, 96.390, 2950.0, 54.3139
23.547689420, 96.390, 3082.0, 55.5158
23.573949986, 96.390, 3020.0, 54.9545
23.600210551, 96.390, 2922.0, 54.0555
23.626471116, 96.390, 2962.0, 54.4243
23.652731682, 96.390, 2966.0, 54.4610
23.678992247, 96.390, 2874.0, 53.6097
23.705252813, 96.390, 2882.0, 53.6843
23.731513378, 96.390, 2820.0, 53.1037
23.757773943, 96.390, 2851.0, 53.3948
23.784034509, 96.390, 2910.0, 53.9444
23.810295074, 96.390, 2729.0, 52.2398
23.836555639, 96.390, 2885.0, 53.7122
23.862816205, 96.390, 2928.0, 54.1110
23.889076770, 96.390, 2849.0, 53.3760
23.915337335, 96.390, 2707.0, 52.0288
23.941597901, 96.390, 2820.0, 53.1037
23.967858466, 96.390, 2839.0, 53.2823
23.994119031, 96.390, 2856.0, 53.4416
24.020379597, 96.390, 2788.0, 52.8015
24.046640162, 96.390, 2867.0, 53.5444
24.072900727, 96.390, 2768.0, 52.6118
24.099161293, 96.390, 2953.0, 54.3415
24.125421858, 96.390, 2865.0, 53.5257
24.151682424, 96.390, 2875.0, 53.6190
24.177942989, 96.390, 2971.0, 54.5069
24.204203554, 96.390, 3068.0, 55.3895
24.230464120, 96.390, 3025.0, 55.0000
24.256724685, 96.390, 2960.0, 54.4059
24.282985250, 96.390, 2939.0, 54.2125
24.309245816, 96.390, 2838.0, 53.2729
24.335506381, 96.390, 2773.0, 52.6593
24.361766946, 96.390, 2812.0, 53.0283
24.388027512, 96.390, 2804.0, 52.9528
24.414288077, 96.390, 2659.0, 51.5655
24.440548642, 96.390, 2679.0, 51.7591
24.466809208, 96.390, 2644.0, 51.4198
24.493069773, 96.390, 2734.0, 52.2877
24.519330338, 96.390, 2665.0, 51.6236
24.545590904, 96.390, 2787.0, 52.7920
24.571851469, 96.390, 2684.0, 51.8073
24.598112035, 96.390, 2738.0, 52.3259
24.624372600, 96.390, 2730.0, 52.2494
24.650633165, 96.390, 2669.0, 51.6624
24.676893731, 96.390, 2709.0, 52.0481
24.703154296, 96.390, 2686.0, 51.8266
24.729414861, 96.390, 2655.0, 51.5267
24.755675427, 96.390, 2614.0, 51.1273
24.781935992, 96.390, 2658.0, 51.5558
24.808196557, 96.390, 2590.0, 50.8920
24.834457123, 96.390, 2615.0, 51.1371
24.860717688, 96.390, 2537.0, 50.3686
24.886978253, 96.390, 2600.0, 50.9902
24.913238819, 96.390, 2560.0, 50.5964
24.939499384, 96.390, 2515.0, 50.1498
24.965759950, 96.390, 2487.0, 49.8698
24.992020515, 96.390, 2444.0, 49.4368
25.018281080, 96.390, 2540.0, 50.3984
25.044541646, 96.390, 2539.0, 50.3885
25.070802211, 96.390, 2501.0, 50.0100
25.097062776, 96.390, 2438.0, 49.3761
25.123323342, 96.390, 2493.0, 49.9300
25.149583907, 96.390, 2498.0, 49.9800
25.175844472, 96.390, 2415.0, 49.1426
25.202105038, 96.390, 2529.0, 50.2892
25.228365603, 96.390, 2409.0, 49.0816
25.254626168, 96.390, 2417.0, 49.1630
25.280886734, 96.390, 2327.0, 48.2390
25.307147299, 96.390, 2567.0, 50.6656
25.333407864, 96.390, 2546.0, 50.4579
25.359668430, 96.390, 2480.0, 49.7996
25.385928995, 96.390, 2552.0, 50.5173
25.412189561, 96.390, 2715.0, 52.1057
25.438450126, 96.390, 2917.0, 54.0093
25.464710691, 96.390, 2968.0, 54.4794
25.490971257, 96.390, 2858.0, 53.4603
25.517231822, 96.390, 2778.0, 52.7067
25.543492387, 96.390, 2591.0, 50.9019
25.569752953, 96.390, 2480.0, 49.7996
25.596013518, 96.390, 2481.0, 49.8096
25.622274083, 96.390, 2324.0, 48.2079
25.648534649, 96.390, 2263.0, 47.5710
25.674795214, 96.390, 2224.0, 47.1593
25.701055779, 96.390, 2331.0, 48.2804
25.727316345, 96.390, 2271.0, 47.6550
25.753576910, 96.390, 2229.0, 47.2123
25.779837476, 96.390, 2256.0, 47.4974
25.806098041, 96.390, 2226.0, 47.1805
25.832358606, 96.390, 2359.0, 48.5695
25.858619172, 96.390, 2370.0, 48.6826
25.884879737, 96.390, 2210.0, 47.0106
25.911140302, 96.390, 2315.0, 48.1144
25.937400868, 96.390, 2344.0, 48.4149
25.963661433, 96.390, 2218.0, 47.0956
25.989921998, 96.390, 2357.0, 48.5489
26.016182564, 96.390, 2250.0, 47.4342
26.042443129, 96.390, 2260.0, 47.5395
26.068703694, 96.390, 2306.0, 48.0208
26.094964260, 96.390, 2157.0, 46.4435
26.121224825, 96.390, 2217.0, 47.0850
26.147485390, 96.390, 2133.0, 46.1844
26.173745956, 96.390, 2164.0, 46.5188
26.200006521, 96.390, 2140.0, 46.2601
26.226267087, 96.390, 2155.0, 46.4220
26.252527652, 96.390, 2148.0, 46.3465
26.278788217, 96.390, 2177.0, 46.6583
26.305048783, 96.390, 2170.0, 46.5833
26.331309348, 96.390, 2176.0, 46.6476
26.357569913, 96.390, 2241.0, 47.3392
26.383830479, 96.390, 2199.0, 46.8935
26.410091044, 96.390, 2149.0, 46.3573
26.436351609, 96.390, 2123.0, 46.0760
26.462612175, 96.390, 2065.0, 45.4423
26.488872740, 96.390, 2174.0, 46.6262
26.515133305, 96.390, 2089.0, 45.7056
26.541393871, 96.390, 2107.0, 45.9021
26.567654436, 96.390, 1999.0, 44.7102
26.593915002, 96.390, 2056.0, 45.3431
26.620175567, 96.390, 2183.0, 46.7226
26.646436132, 96.390, 2121.0, 46.0543
26.672696698, 96.390, 2150.0, 46.3681
26.698957263, 96.390, 2105.0, 45.8803
26.725217828, 96.390, 2281.0, 47.7598
26.751478394, 96.390, 2318.0, 48.1456
26.777738959, 96.390, 2396.0, 48.9490
26.803999524, 96.390, 2475.0, 49.7494
26.830260090, 96.390, 2448.0, 49.4773
26.856520655, 96.390, 2535.0, 50.3488
26.882781220, 96.390, 2413.0, 49.1223
26.909041786, 96.390, 2342.0, 48.3942
26.935302351, 96.390, 2404.0, 49.0306
26.961562916, 96.390, 2330.0, 48.2701
26.987823482, 96.390, 2311.0, 48.0729
27.014084047, 96.390, 2453.0, 49.5278
27.040344613, 96.390, 2498.0, 49.9800
27.066605178, 96.390, 2668.0, 51.6527
27.092865743, 96.390, 2688.0, 51.8459
27.119126309, 96.390, 2717.0, 52.1249
27.145386874, 96.390, 2791.0, 52.8299
27.171647439, 96.390, 3105.0, 55.7225
27.197908005, 96.390, 3245.0, 56.9649
27.224168570, 96.390, 3329.0, 57.6975
27.250429135, 96.390, 3167.0, 56.2761
27.276689701, 96.390, 2888.0, 53.7401
27.302950266, 96.390, 2682.0, 51.7880
27.329210831, 96.390, 2553.0, 50.5272
27.355471397, 96.390, 2399.0, 48.9796
27.381731962, 96.390, 2336.0, 48.3322
27.407992528, 96.390, 2259.0, 47.5289
27.434253093, 96.390, 2145.0, 46.3141
27.460513658, 96.390, 2186.0, 46.7547
27.486774224, 96.390, 2170.0, 46.5833
27.513034789, 96.390, 2075.0, 45.5522
27.539295354, 96.390, 2050.0, 45.2769
27.565555920, 96.390, 2019.0, 44.9333
27.591816485, 96.390, 2044.0, 45.2106
27.618077050, 96.390, 2045.0, 45.2217
27.644337616, 96.390, 2062.0, 45.4093
27.670598181, 96.390, 2120.0, 46.0435
27.696858746, 96.390, 2047.0, 45.2438
27.723119312, 96.390, 1999.0, 44.7102
27.749379877, 96.390, 2132.0, 46.1736
27.775640442, 96.390, 2083.0, 45.6399
27.801901008, 96.390, 2017.0, 44.9110
27.828161573, 96.390, 2075.0, 45.5522
27.854422139, 96.390, 2105.0, 45.8803
27.880682704, 96.390, 2147.0, 46.3357
27.906943269, 96.390, 2120.0, 46.0435
27.933203835, 96.390, 2051.0, 45.2880
27.959464400, 96.390, 2094.0, 45.7602
27.985724965, 96.390, 1997.0, 44.6878
28.011985531, 96.390, 2112.0, 45.9565
28.038246096, 96.390, 2061.0, 45.3982
28.064506661, 96.390, 2092.0, 45.7384
28.090767227, 96.390, 2031.0, 45.0666
28.117027792, 96.390, 2117.0, 46.0109
28.143288357, 96.390, 2092.0, 45.7384
28.169548923, 96.390, 2084.0, 45.6508
28.195809488, 96.390, 2033.0, 45.0888
28.222070054, 96.390, 2138.0, 46.2385
28.248330619, 96.390, 2102.0, 45.8476
28.274591184, 96.390, 2102.0, 45.8476
28.300851750, 96.390, 2069.0, 45.4863
28.327112315, 96.390, 2148.0, 46.3465
28.353372880, 96.390, 2246.0, 47.3920
28.379633446, 96.390, 2189.0, 46.7868
28.405894011, 96.390, 2272.0, 47.6655
28.432154576, 96.390, 2127.0, 46.1194
28.458415142, 96.390, 2194.0, 46.8402
28.484675707, 96.390, 2104.0, 45.8694
28.510936272, 96.390, 2177.0, 46.6583
28.537196838, 96.390, 2137.0, 46.2277
28.563457403, 96.390, 2134.0, 46.1952
28.589717968, 96.390, 2131.0, 46.1628
28.615978534, 96.390, 2087.0, 45.6837
28.642239099, 96.390, 1926.0, 43.8862
28.668499665, 96.390, 2033.0, 45.0888
28.694760230, 96.390, 2006.0, 44.7884
28.721020795, 96.390, 2031.0, 45.0666
28.747281361, 96.390, 2129.0, 46.1411
28.773541926, 96.390, 2230.0, 47.2229
28.799802491, 96.390, 2133.0, 46.1844
28.826063057, 96.390, 2094.0, 45.7602
28.852323622, 96.390, 2188.0, 46.7761
28.878584187, 96.390, 2112.0, 45.9565
28.904844753, 96.390, 2108.0, 45.9130
28.931105318, 96.390, 2133.0, 46.1844
28.957365883, 96.390, 2097.0, 45.7930
28.983626449, 96.390, 1998.0, 44.6990
29.009887014, 96.390, 2096.0, 45.7821
29.036147579, 96.390, 2024.0, 44.9889
29.062408145, 96.390, 2170.0, 46.5833
29.088668710, 96.390, 2245.0, 47.3814
29.114929276, 96.390, 2290.0, 47.8539
29.141189841, 96.390, 2347.0, 48.4458
29.167450406, 96.390, 2352.0, 48.4974
29.193710972, 96.390, 2297.0, 47.9270
29.219971537, 96.390, 2330.0, 48.2701
29.246232102, 96.390, 2265.0, 47.5920
29.272492668, 96.390, 2433.0, 49.3254
29.298753233, 96.390, 2438.0, 49.3761
29.325013798, 96.390, 2522.0, 50.2195
29.351274364, 96.390, 2580.0, 50.7937
29.377534929, 96.390, 2454.0, 49.5379
29.403795494, 96.390, 2437.0, 49.3660
29.430056060, 96.390, 2317.0, 48.1352
29.456316625, 96.390, 2262.0, 47.5605
29.482577191, 96.390, 2370.0, 48.6826
29.508837756, 96.390, 2352.0, 48.4974
29.535098321, 96.390, 2315.0, 48.1144
29.561358887, 96.390, 2276.0, 47.7074
29.587619452, 96.390, 2300.0, 47.9583
29.613880017, 96.390, 2150.0, 46.3681
29.640140583, 96.390, 2236.0, 47.2864
29.666401148, 96.390, 2176.0, 46.6476
29.692661713, 96.390, 2103.0, 45.8585
29.718922279, 96.390, 2065.0, 45.4423
29.745182844, 96.390, 2001.0, 44.7325
29.771443409, 96.390, 2095.0, 45.7712
29.797703975, 96.390, 2057.0, 45.3542
29.823964540, 96.390, 2026.0, 45.0111
29.850225105, 96.390, 2039.0, 45.1553
29.876485671, 96.390, 1952.0, 44.1814
29.902746236, 96.390, 1907.0, 43.6692
29.929006802, 96.390, 2010.0, 44.8330
29.955267367, 96.390, 1969.0, 44.3734
29.981527932, 96.390, 1927.0, 43.8976
30.007788498, 96.390, 1955.0, 44.2154
30.034049063, 96.390, 1971.0, 44.3959
30.060309628, 96.390, 1988.0, 44.5870
30.086570194, 96.390, 1952.0, 44.1814
30.112830759, 96.390, 1956.0, 44.2267
30.139091324, 96.390, 2030.0, 45.0555
30.165351890, 96.390, 2029.0, 45.0444
30.191612455, 96.390, 2003.0, 44.7549
30.217873020, 96.390, 2051.0, 45.2880
30.244133586, 96.390, 2026.0, 45.0111
30.270394151, 96.390, 2004.0, 44.7661
30.296654717, 96.390, 1946.0, 44.1135
30.322915282, 96.390, 2034.0, 45.0999
30.349175847, 96.390, 2082.0, 45.6289
30.375436413, 96.390, 1986.0, 44.5646
30.401696978, 96.390, 1942.0, 44.0681
30.427957543, 96.390, 2029.0, 45.0444
30.454218109, 96.390, 2016.0, 44.8999
30.480478674, 96.390, 1979.0, 44.4860
30.506739239, 96.390, 2063.0, 45.4203
30.532999805, 96.390, 2014.0, 44.8776
30.559260370, 96.390, 2137.0, 46.2277
30.585520935, 96.390, 2166.0, 46.5403
30.611781501, 96.390, 2220.0, 47.1169
30.638042066, 96.390, 2212.0, 47.0319
30.664302631, 96.390, 2342.0, 48.3942
30.690563197, 96.390, 2287.0, 47.8226
30.716823762, 96.390, 2306.0, 48.0208
30.743084328, 96.390, 2297.0, 47.9270
30.769344893, 96.390, 2435.0, 49.3457
30.795605458, 96.390, 2264.0, 47.5815
30.821866024, 96.390, 2221.0, 47.1275
30.848126589, 96.390, 2262.0, 47.5605
30.874387154, 96.390, 2255.0, 47.4868
30.900647720, 96.390, 2190.0, 46.7974
30.926908285, 96.390, 2085.0, 45.6618
30.953168850, 96.390, 2053.0, 45.3100
30.979429416, 96.390, 1990.0, 44.6094
31.005689981, 96.390, 2018.0, 44.9222
31.031950546, 96.390, 1974.0, 44.4297
31.058211112, 96.390, 1966.0, 44.3396
31.084471677, 96.390, 2032.0, 45.0777
31.110732243, 96.390, 2042.0, 45.1885
31.136992808, 96.390, 2216.0, 47.0744
31.163253373, 96.390, 2371.0, 48.6929
31.189513939, 96.390, 2374.0, 48.7237
31.215774504, 96.390, 2596.0, 50.9510
31.242035069, 96.390, 2765.0, 52.5833
31.268295635, 96.390, 2648.0, 51.4587
31.294556200, 96.390, 2737.0, 52.3163
31.320816765, 96.390, 2618.0, 51.1664
31.347077331, 96.390, 2536.0, 50.3587
31.373337896, 96.390, 2469.0, 49.6890
31.399598461, 96.390, 2341.0, 48.3839
31.425859027, 96.390, 2405.0, 49.0408
31.452119592, 96.390, 2491.0, 49.9099
31.478380157, 96.390, 2361.0, 48.5901
31.504640723, 96.390, 2427.0, 49.2646
31.530901288, 96.390, 2472.0, 49.7192
31.557161854, 96.390, 2527.0, 50.2693
31.583422419, 96.390, 2387.0, 48.8569
31.609682984, 96.390, 2440.0, 49.3964
31.635943550, 96.390, 2438.0, 49.3761
31.662204115, 96.390, 2338.0, 48.3529
31.688464680, 96.390, 2202.0, 46.9255
31.714725246, 96.390, 2105.0, 45.8803
31.740985811, 96.390, 2124.0, 46.0869
31.767246376, 96.390, 2074.0, 45.5412
31.793506942, 96.390, 2066.0, 45.4533
31.819767507, 96.390, 1955.0, 44.2154
31.846028072, 96.390, 1957.0, 44.2380
31.872288638, 96.390, 2092.0, 45.7384
31.898549203, 96.390, 2093.0, 45.7493
31.924809769, 96.390, 2159.0, 46.4650
31.951070334, 96.390, 2323.0, 48.1975
31.977330899, 96.390, 2437.0, 49.3660
32.003591465, 96.390, 2807.0, 52.9811
32.029852030, 96.390, 3213.0, 56.6833
32.056112595, 96.390, 3699.0, 60.8194
32.082373161, 96.390, 4019.0, 63.3956
32.108633726, 96.390, 4084.0, 63.9062
32.134894291, 96.390, 3446.0, 58.7026
32.161154857, 96.390, 3196.0, 56.5332
32.187415422, 96.390, 2871.0, 53.5817
32.213675987, 96.390, 2546.0, 50.4579
32.239936553, 96.390, 2258.0, 47.5184
32.266197118, 96.390, 2224.0, 47.1593
32.292457683, 96.390, 2150.0, 46.3681
32.318718249, 96.390, 2291.0, 47.8644
32.344978814, 96.390, 2119.0, 46.0326
32.371239380, 96.390, 2133.0, 46.1844
32.397499945, 96.390, 1930.0, 43.9318
32.423760510, 96.390, 1921.0, 43.8292
32.450021076, 96.390, 1864.0, 43.1741
32.476281641, 96.390, 1784.0, 42.2374
32.502542206, 96.390, 1848.0, 42.9884
32.528802772, 96.390, 1757.0, 41.9166
32.555063337, 96.390, 1734.0, 41.6413
32.581323902, 96.390, 1824.0, 42.7083
32.607584468, 96.390, 1877.0, 43.3244
32.633845033, 96.390, 1858.0, 43.1045
32.660105598, 96.390, 1850.0, 43.0116
32.686366164, 96.390, 1897.0, 43.5546
32.712626729, 96.390, 1889.0, 43.4626
32.738887295, 96.390, 1901.0, 43.6005
32.765147860, 96.390, 1884.0, 43.4051
32.791408425, 96.390, 1875.0, 43.3013
32.817668991, 96.390, 1834.0, 42.8252
32.843929556, 96.390, 1816.0, 42.6146
32.870190121, 96.390, 1816.0, 42.6146
32.896450687, 96.390, 1833.0, 42.8135
32.922711252, 96.390, 1861.0, 43.1393
32.948971817, 96.390, 1889.0, 43.4626
32.975232383, 96.390, 1797.0, 42.3910
33.001492948, 96.390, 1922.0, 43.8406
33.027753513, 96.390, 1996.0, 44.6766
33.054014079, 96.390, 1912.0, 43.7264
33.080274644, 96.390, 1983.0, 44.5309
33.106535209, 96.390, 1889.0, 43.4626
33.132795775, 96.390, 2080.0, 45.6070
33.159056340, 96.390, 1969.0, 44.3734
33.185316906, 96.390, 2042.0, 45.1885
33.211577471, 96.390, 2027.0, 45.0222
33.237838036, 96.390, 1971.0, 44.3959
33.264098602, 96.390, 2047.0, 45.2438
33.290359167, 96.390, 2012.0, 44.8553
33.316619732, 96.390, 2010.0, 44.8330
33.342880298, 96.390, 2024.0, 44.9889
33.369140863, 96.390, 2065.0, 45.4423
33.395401428, 96.390, 2185.0, 46.7440
33.421661994, 96.390, 2072.0, 45.5192
33.447922559, 96.390, 2113.0, 45.9674
33.474183124, 96.390, 2129.0, 46.1411
33.500443690, 96.390, 2111.0, 45.9456
33.526704255, 96.390, 2095.0, 45.7712
33.552964820, 96.390, 2024.0, 44.9889
33.579225386, 96.390, 2010.0, 44.8330
33.605485951, 96.390, 2037.0, 45.1331
33.631746517, 96.390, 1957.0, 44.2380
33.658007082, 96.390, 2002.0, 44.7437
33.684267647, 96.390, 2030.0, 45.0555
33.710528213, 96.390, 2047.0, 45.2438
33.736788778, 96.390, 2123.0, 46.0760
33.763049343, 96.390, 2124.0, 46.0869
33.789309909, 96.390, 2069.0, 45.4863
33.815570474, 96.390, 2082.0, 45.6289
33.841831039, 96.390, 2178.0, 46.6690
33.868091605, 96.390, 2144.0, 46.3033
33.894352170, 96.390, 2282.0, 47.7703
33.920612735, 96.390, 2496.0, 49.9600
33.946873301, 96.390, 2619.0, 51.1762
33.973133866, 96.390, 2820.0, 53.1037
33.999394432, 96.390, 2844.0, 53.3292
34.025654997, 96.390, 2722.0, 52.1728
34.051915562, 96.390, 2566.0, 50.6557
34.078176128, 96.390, 2701.0, 51.9711
34.104436693, 96.390, 2549.0, 50.4876
34.130697258, 96.390, 2553.0, 50.5272
34.156957824, 96.390, 2364.0, 48.6210
34.183218389, 96.390, 2372.0, 48.7032
34.209478954, 96.390, 2313.0, 48.0937
34.235739520, 96.390, 2405.0, 49.0408
34.262000085, 96.390, 2393.0, 48.9183
34.288260650, 96.390, 2378.0, 48.7647
34.314521216, 96.390, 2372.0, 48.7032
34.340781781, 96.390, 2344.0, 48.4149
34.367042346, 96.390, 2412.0, 49.1121
34.393302912, 96.390, 2373.0, 48.7134
34.419563477, 96.390, 2440.0, 49.3964
34.445824043, 96.390, 2418.0, 49.1732
34.472084608, 96.390, 2691.0, 51.8748
34.498345173, 96.390, 2799.0, 52.9056
34.524605739, 96.390, 2784.0, 52.7636
34.550866304, 96.390, 2776.0, 52.6878
34.577126869, 96.390, 2891.0, 53.7680
34.603387435, 96.390, 2841.0, 53.3010
34.629648000, 96.390, 2822.0, 53.1225
34.655908565, 96.390, 2682.0, 51.7880
34.682169131, 96.390, 2574.0, 50.7346
34.708429696, 96.390, 2498.0, 49.9800
34.734690261, 96.390, 2458.0, 49.5782
34.760950827, 96.390, 2374.0, 48.7237
34.787211392, 96.390, 2463.0, 49.6286
34.813471958, 96.390, 2363.0, 48.6107
34.839732523, 96.390, 2538.0, 50.3786
34.865993088, 96.390, 2574.0, 50.7346
34.892253654, 96.390, 2688.0, 51.8459
34.918514219, 96.390, 2847.0, 53.3573
34.944774784, 96.390, 2929.0, 54.1202
34.971035350, 96.390, 2963.0, 54.4334
34.997295915, 96.390, 2845.0, 53.3385
35.023556480, 96.390, 2827.0, 53.1695
35.049817046, 96.390, 2622.0, 51.2055
35.076077611, 96.390, 2602.0, 51.0098
35.102338176, 96.390, 2366.0, 48.6415
35.128598742, 96.390, 2370.0, 48.6826
35.154859307, 96.390, 2273.0, 47.6760
35.181119872, 96.390, 2274.0, 47.6865
35.207380438, 96.390, 2269.0, 47.6340
35.233641003, 96.390, 2217.0, 47.0850
35.259901569, 96.390, 2275.0, 47.6970
35.286162134, 96.390, 2175.0, 46.6369
35.312422699, 96.390, 2195.0, 46.8508
35.338683265, 96.390, 2166.0, 46.5403
35.364943830, 96.390, 2170.0, 46.5833
35.391204395, 96.390, 1999.0, 44.7102
35.417464961, 96.390, 2002.0, 44.7437
35.443725526, 96.390, 2006.0, 44.7884
35.469986091, 96.390, 1983.0, 44.5309
35.496246657, 96.390, 1979.0, 44.4860
35.522507222, 96.390, 1911.0, 43.7150
35.548767787, 96.390, 1896.0, 43.5431
35.575028353, 96.390, 1925.0, 43.8748
35.601288918, 96.390, 1871.0, 43.2551
35.627549484, 96.390, 2024.0, 44.9889
35.653810049, 96.390, 2074.0, 45.5412
35.680070614, 96.390, 2010.0, 44.8330
35.706331180, 96.390, 2009.0, 44.8219
35.732591745, 96.390, 2050.0, 45.2769
35.758852310, 96.390, 1954.0, 44.2041
35.785112876, 96.390, 2021.0, 44.9555
35.811373441, 96.390, 1951.0, 44.1701
35.837634006, 96.390, 1855.0, 43.0697
35.863894572, 96.390, 1947.0, 44.1248
35.890155137, 96.390, 2035.0, 45.1110
35.916415702, 96.390, 2024.0, 44.9889
35.942676268, 96.390, 2196.0, 46.8615
35.968936833, 96.390, 2173.0, 46.6154
35.995197398, 96.390, 2022.0, 44.9667
36.021457964, 96.390, 2073.0, 45.5302
36.047718529, 96.390, 2150.0, 46.3681
36.073979095, 96.390, 2127.0, 46.1194
36.100239660, 96.390, 2063.0, 45.4203
36.126500225, 96.390, 2034.0, 45.0999
36.152760791, 96.390, 1974.0, 44.4297
36.179021356, 96.390, 2176.0, 46.6476
36.205281921, 96.390, 2221.0, 47.1275
36.231542487, 96.390, 2238.0, 47.3075
36.257803052, 96.390, 2204.0, 46.9468
36.284063617, 96.390, 1995.0, 44.6654
36.310324183, 96.390, 1969.0, 44.3734
36.336584748, 96.390, 1952.0, 44.1814
36.362845313, 96.390, 1831.0, 42.7902
36.389105879, 96.390, 1764.0, 42.0000
36.415366444, 96.390, 1824.0, 42.7083
36.441627010, 96.390, 1694.0, 41.1582
36.467887575, 96.390, 1729.0, 41.5812
36.494148140, 96.390, 1681.0, 41.0000
36.520408706, 96.390, 1593.0, 39.9124
36.546669271, 96.390, 1691.0, 41.1218
36.572929836, 96.390, 1694.0, 41.1582
36.599190402, 96.390, 1714.0, 41.4005
36.625450967, 96.390, 1622.0, 40.2741
36.651711532, 96.390, 1661.0, 40.7554
36.677972098, 96.390, 1532.0, 39.1408
36.704232663, 96.390, 1687.0, 41.0731
36.730493228, 96.390, 1572.0, 39.6485
36.756753794, 96.390, 1555.0, 39.4335
36.783014359, 96.390, 1601.0, 40.0125
36.809274924, 96.390, 1525.0, 39.0512
36.835535490, 96.390, 1589.0, 39.8623
36.861796055, 96.390, 1568.0, 39.5980
36.888056621, 96.390, 1504.0, 38.7814
36.914317186, 96.390, 1579.0, 39.7366
36.940577751, 96.390, 1482.0, 38.4968
36.966838317, 96.390, 1489.0, 38.5876
36.993098882, 96.390, 1489.0, 38.5876
37.019359447, 96.390, 1481.0, 38.4838
37.045620013, 96.390, 1496.0, 38.6782
37.071880578, 96.390, 1573.0, 39.6611
37.098141143, 96.390, 1577.0, 39.7115
37.124401709, 96.390, 1558.0, 39.4715
37.150662274, 96.390, 1519.0, 38.9744
37.176922839, 96.390, 1552.0, 39.3954
37.203183405, 96.390, 1632.0, 40.3980
37.229443970, 96.390, 1625.0, 40.3113
37.255704535, 96.390, 1639.0, 40.4846
37.281965101, 96.390, 1590.0, 39.8748
37.308225666, 96.390, 1576.0, 39.6989
37.334486232, 96.390, 1608.0, 40.0999
37.360746797, 96.390, 1598.0, 39.9750
37.387007362, 96.390, 1608.0, 40.0999
37.413267928, 96.390, 1613.0, 40.1622
37.439528493, 96.390, 1606.0, 40.0749
37.465789058, 96.390, 1583.0, 39.7869
37.492049624, 96.390, 1620.0, 40.2492
37.518310189, 96.390, 1695.0, 41.1704
37.544570754, 96.390, 1672.0, 40.8901
37.570831320, 96.390, 1636.0, 40.4475
37.597091885, 96.390, 1726.0, 41.5452
37.623352450, 96.390, 1689.0, 41.0974
37.649613016, 96.390, 1662.0, 40.7676
37.675873581, 96.390, 1616.0, 40.1995
37.702134147, 96.390, 1717.0, 41.4367
37.728394712, 96.390, 1838.0, 42.8719
37.754655277, 96.390, 1918.0, 43.7950
37.780915843, 96.390, 1852.0, 43.0349
37.807176408, 96.390, 1855.0, 43.0697
37.833436973, 96.390, 1875.0, 43.3013
37.859697539, 96.390, 1889.0, 43.4626
37.885958104, 96.390, 1759.0, 41.9404
37.912218669, 96.390, 1716.0, 41.4246
37.938479235, 96.390, 1710.0, 41.3521
37.964739800, 96.390, 1781.0, 42.2019
37.991000365, 96.390, 1705.0, 41.2916
38.017260931, 96.390, 1654.0, 40.6694
38.043521496, 96.390, 1635.0, 40.4351
38.069782061, 96.390, 1608.0, 40.0999
38.096042627, 96.390, 1560.0, 39.4968
38.122303192, 96.390, 1603.0, 40.0375
38.148563758, 96.390, 1689.0, 41.0974
38.174824323, 96.390, 1637.0, 40.4599
38.201084888, 96.390, 1715.0, 41.4126
38.227345454, 96.390, 1674.0, 40.9145
38.253606019, 96.390, 1604.0, 40.0500
38.279866584, 96.390, 1639.0, 40.4846
38.306127150, 96.390, 1587.0, 39.8372
38.332387715, 96.390, 1610.0, 40.1248
38.358648280, 96.390, 1524.0, 39.0384
38.384908846, 96.390, 1475.0, 38.4057
38.411169411, 96.390, 1476.0, 38.4187
38.437429976, 96.390, 1437.0, 37.9078
38.463690542, 96.390, 1475.0, 38.4057
38.489951107, 96.390, 1530.0, 39.1152
38.516211673, 96.390, 1503.0, 38.7685
38.542472238, 96.390, 1515.0, 38.9230
38.568732803, 96.390, 1520.0, 38.9872
38.594993369, 96.390, 1590.0, 39.8748
38.621253934, 96.390, 1521.0, 39.0000
38.647514499, 96.390, 1514.0, 38.9102
38.673775065, 96.390, 1626.0, 40.3237
38.700035630, 96.390, 1524.0, 39.0384
38.726296195, 96.390, 1536.0, 39.1918
38.752556761, 96.390, 1602.0, 40.0250
38.778817326, 96.390, 1602.0, 40.0250
38.805077891, 96.390, 1664.0, 40.7922
38.831338457, 96.390, 1553.0, 39.4081
38.857599022, 96.390, 1523.0, 39.0256
38.883859587, 96.390, 1465.0, 38.2753
38.910120153, 96.390, 1510.0, 38.8587
38.936380718, 96.390, 1467.0, 38.3014
38.962641284, 96.390, 1372.0, 37.0405
38.988901849, 96.390, 1338.0, 36.5787
39.015162414, 96.390, 1457.0, 38.1707
39.041422980, 96.390, 1377.0, 37.1080
39.067683545, 96.390, 1415.0, 37.6165
39.093944110, 96.390, 1380.0, 37.1484
39.120204676, 96.390, 1383.0, 37.1887
39.146465241, 96.390, 1458.0, 38.1838
39.172725806, 96.390, 1379.0, 37.1349
39.198986372, 96.390, 1461.0, 38.2230
39.225246937, 96.390, 1430.0, 37.8153
39.251507502, 96.390, 1559.0, 39.4842
39.277768068, 96.390, 1566.0, 39.5727
39.304028633, 96.390, 1440.0, 37.9473
39.330289199, 96.390, 1483.0, 38.5097
39.356549764, 96.390, 1539.0, 39.2301
39.382810329, 96.390, 1539.0, 39.2301
39.409070895, 96.390, 1651.0, 40.6325
39.435331460, 96.390, 1692.0, 41.1339
39.461592025, 96.390, 1738.0, 41.6893
39.487852591, 96.390, 1589.0, 39.8623
39.514113156, 96.390, 1531.0, 39.1280
39.540373721, 96.390, 1546.0, 39.3192
39.566634287, 96.390, 1581.0, 39.7618
39.592894852, 96.390, 1503.0, 38.7685
39.619155417, 96.390, 1463.0, 38.2492
39.645415983, 96.390, 1366.0, 36.9594
39.671676548, 96.390, 1364.0, 36.9324
39.697937113, 96.390, 1395.0, 37.3497
39.724197679, 96.390, 1320.0, 36.3318
39.750458244, 96.390, 1318.0, 36.3043
39.776718810, 96.390, 1388.0, 37.2559
39.802979375, 96.390, 1441.0, 37.9605
39.829239940, 96.390, 1449.0, 38.0657
39.855500506, 96.390, 1460.0, 38.2099
39.881761071, 96.390, 1369.0, 37.0000
39.908021636, 96.390, 1386.0, 37.2290
39.934282202, 96.390, 1386.0, 37.2290
39.960542767, 96.390, 1344.0, 36.6606
39.986803332, 96.390, 1370.0, 37.0135
40.013063898, 96.390, 1423.0, 37.7227
40.039324463, 96.390, 1356.0, 36.8239
40.065585028, 96.390, 1310.0, 36.1939
40.091845594, 96.390, 1382.0, 37.1753
40.118106159, 96.390, 1421.0, 37.6962
40.144366725, 96.390, 1420.0, 37.6829
40.170627290, 96.390, 1360.0, 36.8782
40.196887855, 96.390, 1362.0, 36.9053
40.223148421, 96.390, 1367.0, 36.9730
40.249408986, 96.390, 1318.0, 36.3043
40.275669551, 96.390, 1391.0, 37.2961
40.301930117, 96.390, 1349.0, 36.7287
40.328190682, 96.390, 1214.0, 34.8425
40.354451247, 96.390, 1224.0, 34.9857
40.380711813, 96.390, 1285.0, 35.8469
40.406972378, 96.390, 1260.0, 35.4965
40.433232943, 96.390, 1321.0, 36.3456
40.459493509, 96.390, 1219.0, 34.9142
40.485754074, 96.390, 1296.0, 36.0000
40.512014639, 96.390, 1346.0, 36.6879
40.538275205, 96.390, 1322.0, 36.3593
40.564535770, 96.390, 1310.0, 36.1939
40.590796336, 96.390, 1416.0, 37.6298
40.617056901, 96.390, 1355.0, 36.8103
40.643317466, 96.390, 1383.0, 37.1887
40.669578032, 96.390, 1409.0, 37.5366
40.695838597, 96.390, 1324.0, 36.3868
40.722099162, 96.390, 1407.0, 37.5100
40.748359728, 96.390, 1366.0, 36.9594
40.774620293, 96.390, 1274.0, 35.6931
40.800880858, 96.390, 1202.0, 34.6699
40.827141424, 96.390, 1208.0, 34.7563
40.853401989, 96.390, 1257.0, 35.4542
40.879662554, 96.390, 1317.0, 36.2905
40.905923120, 96.390, 1243.0, 35.2562
40.932183685, 96.390, 1193.0, 34.5398
40.958444251, 96.390, 1242.0, 35.2420
40.984704816, 96.390, 1246.0, 35.2987
41.010965381, 96.390, 1253.0, 35.3977
41.037225947, 96.390, 1241.0, 35.2278
41.063486512, 96.390, 1287.0, 35.8748
41.089747077, 96.390, 1257.0, 35.4542
41.116007643, 96.390, 1224.0, 34.9857
41.142268208, 96.390, 1208.0, 34.7563
41.168528773, 96.390, 1245.0, 35.2846
41.194789339, 96.390, 1251.0, 35.3695
41.221049904, 96.390, 1185.0, 34.4238
41.247310469, 96.390, 1221.0, 34.9428
41.273571035, 96.390, 1243.0, 35.2562
41.299831600, 96.390, 1277.0, 35.7351
41.326092165, 96.390, 1394.0, 37.3363
41.352352731, 96.390, 1422.0, 37.7094
41.378613296, 96.390, 1509.0, 38.8458
41.404873862, 96.390, 1538.0, 39.2173
41.431134427, 96.390, 1522.0, 39.0128
41.457394992, 96.390, 1484.0, 38.5227
41.483655558, 96.390, 1377.0, 37.1080
41.509916123, 96.390, 1436.0, 37.8946
41.536176688, 96.390, 1397.0, 37.3765
41.562437254, 96.390, 1227.0, 35.0286
41.588697819, 96.390, 1198.0, 34.6121
41.614958384, 96.390, 1281.0, 35.7911
41.641218950, 96.390, 1141.0, 33.7787
41.667479515, 96.390, 1224.0, 34.9857
41.693740080, 96.390, 1200.0, 34.6410
41.720000646, 96.390, 1256.0, 35.4401
41.746261211, 96.390, 1208.0, 34.7563
41.772521776, 96.390, 1215.0, 34.8569
41.798782342, 96.390, 1231.0, 35.0856
41.825042907, 96.390, 1240.0, 35.2136
41.851303473, 96.390, 1130.0, 33.6155
41.877564038, 96.390, 1161.0, 34.0735
41.903824603, 96.390, 1257.0, 35.4542
41.930085169, 96.390, 1253.0, 35.3977
41.956345734, 96.390, 1249.0, 35.3412
41.982606299, 96.390, 1169.0, 34.1906
42.008866865, 96.390, 1220.0, 34.9285
42.035127430, 96.390, 1180.0, 34.3511
42.061387995, 96.390, 1364.0, 36.9324
42.087648561, 96.390, 1345.0, 36.6742
42.113909126, 96.390, 1404.0, 37.4700
42.140169691, 96.390, 1458.0, 38.1838
42.166430257, 96.390, 1519.0, 38.9744
42.192690822, 96.390, 1553.0, 39.4081
42.218951388, 96.390, 1401.0, 37.4299
42.245211953, 96.390, 1516.0, 38.9358
42.271472518, 96.390, 1336.0, 36.5513
42.297733084, 96.390, 1376.0, 37.0945
42.323993649, 96.390, 1330.0, 36.4692
42.350254214, 96.390, 1292.0, 35.9444
42.376514780, 96.390, 1191.0, 34.5109
42.402775345, 96.390, 1169.0, 34.1906
42.429035910, 96.390, 1112.0, 33.3467
42.455296476, 96.390, 1193.0, 34.5398
42.481557041, 96.390, 1186.0, 34.4384
42.507817606, 96.390, 1199.0, 34.6266
42.534078172, 96.390, 1224.0, 34.9857
42.560338737, 96.390, 1271.0, 35.6511
42.586599302, 96.390, 1295.0, 35.9861
42.612859868, 96.390, 1305.0, 36.1248
42.639120433, 96.390, 1162.0, 34.0881
42.665380999, 96.390, 1239.0, 35.1994
42.691641564, 96.390, 1259.0, 35.4824
42.717902129, 96.390, 1228.0, 35.0428
42.744162695, 96.390, 1230.0, 35.0714
42.770423260, 96.390, 1173.0, 34.2491
42.796683825, 96.390, 1214.0, 34.8425
42.822944391, 96.390, 1153.0, 33.9559
42.849204956, 96.390, 1173.0, 34.2491
42.875465521, 96.390, 1164.0, 34.1174
42.901726087, 96.390, 1151.0, 33.9264
42.927986652, 96.390, 1156.0, 34.0000
42.954247217, 96.390, 1160.0, 34.0588
42.980507783, 96.390, 1063.0, 32.6037
43.006768348, 96.390, 1136.0, 33.7046
43.033028914, 96.390, 1167.0, 34.1614
43.059289479, 96.390, 1184.0, 34.4093
43.085550044, 96.390, 1149.0, 33.8969
43.111810610, 96.390, 1154.0, 33.9706
43.138071175, 96.390, 1136.0, 33.7046
43.164331740, 96.390, 1134.0, 33.6749
43.190592306, 96.390, 1121.0, 33.4813
43.216852871, 96.390, 1121.0, 33.4813
43.243113436, 96.390, 1128.0, 33.5857
43.269374002, 96.390, 1167.0, 34.1614
43.295634567, 96.390, 1149.0, 33.8969
43.321895132, 96.390, 1098.0, 33.1361
43.348155698, 96.390, 1126.0, 33.5559
43.374416263, 96.390, 1147.0, 33.8674
43.400676828, 96.390, 1134.0, 33.6749
43.426937394, 96.390, 1089.0, 33.0000
43.453197959, 96.390, 1175.0, 34.2783
43.479458525, 96.390, 1139.0, 33.7491
43.505719090, 96.390, 1181.0, 34.3657
43.531979655, 96.390, 1129.0, 33.6006
43.558240221, 96.390, 1098.0, 33.1361
43.584500786, 96.390, 1112.0, 33.3467
43.610761351, 96.390, 1147.0, 33.8674
43.637021917, 96.390, 1166.0, 34.1467
43.663282482, 96.390, 1222.0, 34.9571
43.689543047, 96.390, 1217.0, 34.8855
43.715803613, 96.390, 1314.0, 36.2491
43.742064178, 96.390, 1368.0, 36.9865
43.768324743, 96.390, 1369.0, 37.0000
43.794585309, 96.390, 1408.0, 37.5233
43.820845874, 96.390, 1356.0, 36.8239
43.847106440, 96.390, 1294.0, 35.9722
43.873367005, 96.390, 1366.0, 36.9594
43.899627570, 96.390, 1398.0, 37.3898
43.925888136, 96.390, 1313.0, 36.2353
43.952148701, 96.390, 1293.0, 35.9583
43.978409266, 96.390, 1250.0, 35.3553
44.004669832, 96.390, 1240.0, 35.2136
44.030930397, 96.390, 1170.0, 34.2053
44.057190962, 96.390, 1264.0, 35.5528
44.083451528, 96.390, 1199.0, 34.6266
44.109712093, 96.390, 1231.0, 35.0856
44.135972658, 96.390, 1177.0, 34.3074
44.162233224, 96.390, 1177.0, 34.3074
44.188493789, 96.390, 1156.0, 34.0000
44.214754354, 96.390, 1194.0, 34.5543
44.241014920, 96.390, 1197.0, 34.5977
44.267275485, 96.390, 1203.0, 34.6843
44.293536051, 96.390, 1224.0, 34.9857
44.319796616, 96.390, 1211.0, 34.7994
44.346057181, 96.390, 1292.0, 35.9444
44.372317747, 96.390, 1269.0, 35.6230
44.398578312, 96.390, 1360.0, 36.8782
44.424838877, 96.390, 1313.0, 36.2353
44.451099443, 96.390, 1248.0, 35.3270
44.477360008, 96.390, 1295.0, 35.9861
44.503620573, 96.390, 1292.0, 35.9444
44.529881139, 96.390, 1246.0, 35.2987
44.556141704, 96.390, 1272.0, 35.6651
44.582402269, 96.390, 1264.0, 35.5528
44.608662835, 96.390, 1181.0, 34.3657
44.634923400, 96.390, 1223.0, 34.9714
44.661183966, 96.390, 1156.0, 34.0000
44.687444531, 96.390, 1181.0, 34.3657
44.713705096, 96.390, 1103.0, 33.2114
44.739965662, 96.390, 1182.0, 34.3802
44.766226227, 96.390, 1222.0, 34.9571
44.792486792, 96.390, 1242.0, 35.2420
44.818747358, 96.390, 1217.0, 34.8855
44.845007923, 96.390, 1228.0, 35.0428
44.871268488, 96.390, 1147.0, 33.8674
44.897529054, 96.390, 1212.0, 34.8138
44.923789619, 96.390, 1188.0, 34.4674
44.950050184, 96.390, 1227.0, 35.0286
44.976310750, 96.390, 1203.0, 34.6843
45.002571315, 96.390, 1214.0, 34.8425
45.028831880, 96.390, 1172.0, 34.2345
45.055092446, 96.390, 1244.0, 35.2704
45.081353011, 96.390, 1332.0, 36.4966
45.107613577, 96.390, 1357.0, 36.8375
45.133874142, 96.390, 1369.0, 37.0000
45.160134707, 96.390, 1388.0, 37.2559
45.186395273, 96.390, 1342.0, 36.6333
45.212655838, 96.390, 1300.0, 36.0555
45.238916403, 96.390, 1352.0, 36.7696
45.265176969, 96.390, 1331.0, 36.4829
45.291437534, 96.390, 1267.0, 35.5949
45.317698099, 96.390, 1353.0, 36.7831
45.343958665, 96.390, 1387.0, 37.2424
45.370219230, 96.390, 1277.0, 35.7351
45.396479795, 96.390, 1315.0, 36.2629
45.422740361, 96.390, 1380.0, 37.1484
45.449000926, 96.390, 1310.0, 36.1939
45.475261492, 96.390, 1411.0, 37.5633
45.501522057, 96.390, 1416.0, 37.6298
45.527782622, 96.390, 1328.0, 36.4417
45.554043188, 96.390, 1277.0, 35.7351
45.580303753, 96.390, 1302.0, 36.0832
45.606564318, 96.390, 1276.0, 35.7211
45.632824884, 96.390, 1260.0, 35.4965
45.659085449, 96.390, 1187.0, 34.4529
45.685346014, 96.390, 1202.0, 34.6699
45.711606580, 96.390, 1164.0, 34.1174
45.737867145, 96.390, 1100.0, 33.1662
45.764127710, 96.390, 1165.0, 34.1321
45.790388276, 96.390, 1244.0, 35.2704
45.816648841, 96.390, 1175.0, 34.2783
45.842909406, 96.390, 1141.0, 33.7787
45.869169972, 96.390, 1150.0, 33.9116
45.895430537, 96.390, 1163.0, 34.1028
45.921691103, 96.390, 1128.0, 33.5857
45.947951668, 96.390, 1220.0, 34.9285
45.974212233, 96.390, 1202.0, 34.6699
46.000472799, 96.390, 1119.0, 33.4515
46.026733364, 96.390, 1123.0, 33.5112
46.052993929, 96.390, 1183.0, 34.3948
46.079254495, 96.390, 1235.0, 35.1426
46.105515060, 96.390, 1286.0, 35.8608
46.131775625, 96.390, 1278.0, 35.7491
46.158036191, 96.390, 1307.0, 36.1525
46.184296756, 96.390, 1372.0, 37.0405
46.210557321, 96.390, 1372.0, 37.0405
46.236817887, 96.390, 1414.0, 37.6032
46.263078452, 96.390, 1375.0, 37.0810
46.289339017, 96.390, 1426.0, 37.7624
46.315599583, 96.390, 1391.0, 37.2961
46.341860148, 96.390, 1361.0, 36.8917
46.368120714, 96.390, 1318.0, 36.3043
46.394381279, 96.390, 1322.0, 36.3593
46.420641844, 96.390, 1388.0, 37.2559
46.446902410, 96.390, 1276.0, 35.7211
46.473162975, 96.390, 1314.0, 36.2491
46.499423540, 96.390, 1220.0, 34.9285
46.525684106, 96.390, 1254.0, 35.4119
46.551944671, 96.390, 1204.0, 34.6987
46.578205236, 96.390, 1251.0, 35.3695
46.604465802, 96.390, 1198.0, 34.6121
46.630726367, 96.390, 1189.0, 34.4819
46.656986932, 96.390, 1271.0, 35.6511
46.683247498, 96.390, 1216.0, 34.8712
46.709508063, 96.390, 1254.0, 35.4119
46.735768629, 96.390, 1235.0, 35.1426
46.762029194, 96.390, 1240.0, 35.2136
46.788289759, 96.390, 1244.0, 35.2704
46.814550325, 96.390, 1244.0, 35.2704
46.840810890, 96.390, 1160.0, 34.0588
46.867071455, 96.390, 1193.0, 34.5398
46.893332021, 96.390, 1194.0, 34.5543
46.919592586, 96.390, 1225.0, 35.0000
46.945853151, 96.390, 1240.0, 35.2136
46.972113717, 96.390, 1187.0, 34.4529
46.998374282, 96.390, 1284.0, 35.8329
47.024634847, 96.390, 1257.0, 35.4542
47.050895413, 96.390, 1224.0, 34.9857
47.077155978, 96.390, 1153.0, 33.9559
47.103416543, 96.390, 1166.0, 34.1467
47.129677109, 96.390, 1204.0, 34.6987
47.155937674, 96.390, 1104.0, 33.2265
47.182198240, 96.390, 1202.0, 34.6699
47.208458805, 96.390, 1130.0, 33.6155
47.234719370, 96.390, 1070.0, 32.7109
47.260979936, 96.390, 1127.0, 33.5708
47.287240501, 96.390, 1134.0, 33.6749
47.313501066, 96.390, 1195.0, 34.5688
47.339761632, 96.390, 1236.0, 35.1568
47.366022197, 96.390, 1040.0, 32.2490
47.392282762, 96.390, 1197.0, 34.5977
47.418543328, 96.390, 1200.0, 34.6410
47.444803893, 96.390, 1191.0, 34.5109
47.471064458, 96.390, 1170.0, 34.2053
47.497325024, 96.390, 1171.0, 34.2199
47.523585589, 96.390, 1247.0, 35.3129
47.549846155, 96.390, 1169.0, 34.1906
47.576106720, 96.390, 1180.0, 34.3511
47.602367285, 96.390, 1201.0, 34.6554
47.628627851, 96.390, 1114.0, 33.3766
47.654888416, 96.390, 1162.0, 34.0881
47.681148981, 96.390, 1203.0, 34.6843
47.707409547, 96.390, 1130.0, 33.6155
47.733670112, 96.390, 1128.0, 33.5857
47.759930677, 96.390, 1180.0, 34.3511
47.786191243, 96.390, 1177.0, 34.3074
47.812451808, 96.390, 1142.0, 33.7935
47.838712373, 96.390, 1157.0, 34.0147
47.864972939, 96.390, 1130.0, 33.6155
47.891233504, 96.390, 1245.0, 35.2846
47.917494069, 96.390, 1101.0, 33.1813
47.943754635, 96.390, 1141.0, 33.7787
47.970015200, 96.390, 1143.0, 33.8083
47.996275766, 96.390, 1186.0, 34.4384
48.022536331, 96.390, 1132.0, 33.6452
48.048796896, 96.390, 1156.0, 34.0000
48.075057462, 96.390, 1143.0, 33.8083
48.101318027, 96.390, 1217.0, 34.8855
48.127578592, 96.390, 1229.0, 35.0571
48.153839158, 96.390, 1174.0, 34.2637
48.180099723, 96.390, 1186.0, 34.4384
48.206360288, 96.390, 1188.0, 34.4674
48.232620854, 96.390, 1165.0, 34.1321
48.258881419, 96.390, 1155.0, 33.9853
48.285141984, 96.390, 1162.0, 34.0881
48.311402550, 96.390, 1222.0, 34.9571
48.337663115, 96.390, 1139.0, 33.7491
48.363923681, 96.390, 1161.0, 34.0735
48.390184246, 96.390, 1152.0, 33.9411
48.416444811, 96.390, 1269.0, 35.6230
48.442705377, 96.390, 1269.0, 35.6230
48.468965942, 96.390, 1318.0, 36.3043
48.495226507, 96.390, 1288.0, 35.8887
48.521487073, 96.390, 1314.0, 36.2491
48.547747638, 96.390, 1302.0, 36.0832
48.574008203, 96.390, 1269.0, 35.6230
48.600268769, 96.390, 1263.0, 35.5387
48.626529334, 96.390, 1191.0, 34.5109
48.652789899, 96.390, 1169.0, 34.1906
48.679050465, 96.390, 1173.0, 34.2491
48.705311030, 96.390, 1085.0, 32.9393
48.731571595, 96.390, 1201.0, 34.6554
48.757832161, 96.390, 1096.0, 33.1059
48.784092726, 96.390, 1132.0, 33.6452
48.810353292, 96.390, 1187.0, 34.4529
48.836613857, 96.390, 1112.0, 33.3467
48.862874422, 96.390, 1125.0, 33.5410
48.889134988, 96.390, 1111.0, 33.3317
48.915395553, 96.390, 1112.0, 33.3467
48.941656118, 96.390, 1053.0, 32.4500
48.967916684, 96.390, 1135.0, 33.6898
48.994177249, 96.390, 1097.0, 33.1210
49.020437814, 96.390, 1003.0, 31.6702
49.046698380, 96.390, 1068.0, 32.6803
49.072958945, 96.390, 1125.0, 33.5410
49.099219510, 96.390, 1134.0, 33.6749
49.125480076, 96.390, 1131.0, 33.6303
49.151740641, 96.390, 1152.0, 33.9411
49.178001207, 96.390, 1056.0, 32.4962
49.204261772, 96.390, 1160.0, 34.0588
49.230522337, 96.390, 1094.0, 33.0757
49.256782903, 96.390, 1065.0, 32.6343
49.283043468, 96.390, 1106.0, 33.2566
49.309304033, 96.390, 1118.0, 33.4365
49.335564599, 96.390, 1090.0, 33.0151
49.361825164, 96.390, 1085.0, 32.9393
49.388085729, 96.390, 1082.0, 32.8938
49.414346295, 96.390, 1103.0, 33.2114
49.440606860, 96.390, 1058.0, 32.5269
49.466867425, 96.390, 1082.0, 32.8938
49.493127991, 96.390, 992.0, 31.4960
49.519388556, 96.390, 1060.0, 32.5576
49.545649121, 96.390, 1069.0, 32.6956
49.571909687, 96.390, 982.0, 31.3369
49.598170252, 96.390, 1092.0, 33.0454
49.624430818, 96.390, 1016.0, 31.8748
49.650691383, 96.390, 1008.0, 31.7490
49.676951948, 96.390, 1049.0, 32.3883
49.703212514, 96.390, 1034.0, 32.1559
49.729473079, 96.390, 1137.0, 33.7194
49.755733644, 96.390, 1008.0, 31.7490
49.781994210, 96.390, 1034.0, 32.1559
49.808254775, 96.390, 1016.0, 31.8748
49.834515340, 96.390, 991.0, 31.4802
49.860775906, 96.390, 1035.0, 32.1714
49.887036471, 96.390, 970.0, 31.1448
49.913297036, 96.390, 1038.0, 32.2180
49.939557602, 96.390, 1021.0, 31.9531
49.965818167, 96.390, 989.0, 31.4484
49.992078732, 96.390, 998.0, 31.5911
50.018339298, 96.390, 987.0, 31.4166
50.044599863, 96.390, 973.0, 31.1929
50.070860429, 96.390, 1017.0, 31.8904
50.097120994, 96.390, 983.0, 31.3528
50.123381559, 96.390, 975.0, 31.2250
50.149642125, 96.390, 1035.0, 32.1714
50.175902690, 96.390, 1043.0, 32.2955
50.202163255, 96.390, 1039.0, 32.2335
50.228423821, 96.390, 1165.0, 34.1321
50.254684386, 96.390, 1121.0, 33.4813
50.280944951, 96.390, 1168.0, 34.1760
50.307205517, 96.390, 1120.0, 33.4664
50.333466082, 96.390, 1082.0, 32.8938
50.359726647, 96.390, 1140.0, 33.7639
50.385987213, 96.390, 1061.0, 32.5730
50.412247778, 96.390, 1062.0, 32.5883
50.438508344, 96.390, 1050.0, 32.4037
50.464768909, 96.390, 1093.0, 33.0606
50.491029474, 96.390, 1099.0, 33.1512
50.517290040, 96.390, 1091.0, 33.0303
50.543550605, 96.390, 1115.0, 33.3916
50.569811170, 96.390, 1086.0, 32.9545
50.596071736, 96.390, 1003.0, 31.6702
50.622332301, 96.390, 978.0, 31.2730
50.648592866, 96.390, 926.0, 30.4302
50.674853432, 96.390, 1008.0, 31.7490
50.701113997, 96.390, 1053.0, 32.4500
50.727374562, 96.390, 1043.0, 32.2955
50.753635128, 96.390, 990.0, 31.4643
50.779895693, 96.390, 1010.0, 31.7805
50.806156258, 96.390, 953.0, 30.8707
50.832416824, 96.390, 1029.0, 32.0780
50.858677389, 96.390, 1010.0, 31.7805
50.884937955, 96.390, 961.0, 31.0000
50.911198520, 96.390, 1005.0, 31.7017
50.937459085, 96.390, 930.0, 30.4959
50.963719651, 96.390, 1009.0, 31.7648
50.989980216, 96.390, 1036.0, 32.1870
51.016240781, 96.390, 1103.0, 33.2114
51.042501347, 96.390, 1123.0, 33.5112
51.068761912, 96.390, 1134.0, 33.6749
51.095022477, 96.390, 1080.0, 32.8634
51.121283043, 96.390, 1183.0, 34.3948
51.147543608, 96.390, 1052.0, 32.4345
51.173804173, 96.390, 1034.0, 32.1559
51.200064739, 96.390, 1109.0, 33.3017
51.226325304, 96.390, 1050.0, 32.4037
51.252585870, 96.390, 1084.0, 32.9242
51.278846435, 96.390, 1023.0, 31.9844
51.305107000, 96.390, 1041.0, 32.2645
51.331367566, 96.390, 1002.0, 31.6544
51.357628131, 96.390, 978.0, 31.2730
51.383888696, 96.390, 941.0, 30.6757
51.410149262, 96.390, 963.0, 31.0322
51.436409827, 96.390, 930.0, 30.4959
51.462670392, 96.390, 974.0, 31.2090
51.488930958, 96.390, 929.0, 30.4795
51.515191523, 96.390, 971.0, 31.1609
51.541452088, 96.390, 943.0, 30.7083
51.567712654, 96.390, 943.0, 30.7083
51.593973219, 96.390, 928.0, 30.4631
51.620233784, 96.390, 935.0, 30.5778
51.646494350, 96.390, 896.0, 29.9333
51.672754915, 96.390, 926.0, 30.4302
51.699015481, 96.390, 890.0, 29.8329
51.725276046, 96.390, 899.0, 29.9833
51.751536611, 96.390, 978.0, 31.2730
51.777797177, 96.390, 905.0, 30.0832
51.804057742, 96.390, 890.0, 29.8329
51.830318307, 96.390, 931.0, 30.5123
51.856578873, 96.390, 970.0, 31.1448
51.882839438, 96.390, 936.0, 30.5941
51.909100003, 96.390, 993.0, 31.5119
51.935360569, 96.390, 955.0, 30.9031
51.961621134, 96.390, 1020.0, 31.9374
51.987881699, 96.390, 968.0, 31.1127
52.014142265, 96.390, 947.0, 30.7734
52.040402830, 96.390, 922.0, 30.3645
52.066663396, 96.390, 972.0, 31.1769
52.092923961, 96.390, 906.0, 30.0998
52.119184526, 96.390, 938.0, 30.6268
52.145445092, 96.390, 969.0, 31.1288
52.171705657, 96.390, 959.0, 30.9677
52.197966222, 96.390, 1011.0, 31.7962
52.224226788, 96.390, 1035.0, 32.1714
52.250487353, 96.390, 1070.0, 32.7109
52.276747918, 96.390, 1019.0, 31.9218
52.303008484, 96.390, 1046.0, 32.3419
52.329269049, 96.390, 1002.0, 31.6544
52.355529614, 96.390, 989.0, 31.4484
52.381790180, 96.390, 1034.0, 32.1559
52.408050745, 96.390, 1019.0, 31.9218
52.434311310, 96.390, 941.0, 30.6757
52.460571876, 96.390, 933.0, 30.5450
52.486832441, 96.390, 935.0, 30.5778
52.513093007, 96.390, 940.0, 30.6594
52.539353572, 96.390, 955.0, 30.9031
52.565614137, 96.390, 911.0, 30.1828
52.591874703, 96.390, 920.0, 30.3315
52.618135268, 96.390, 889.0, 29.8161
52.644395833, 96.390, 894.0, 29.8998
52.670656399, 96.390, 843.0, 29.0345
52.696916964, 96.390, 871.0, 29.5127
52.723177529, 96.390, 957.0, 30.9354
52.749438095, 96.390, 935.0, 30.5778
52.775698660, 96.390, 893.0, 29.8831
52.801959225, 96.390, 910.0, 30.1662
52.828219791, 96.390, 969.0, 31.1288
52.854480356, 96.390, 931.0, 30.5123
52.880740922, 96.390, 948.0, 30.7896
52.907001487, 96.390, 911.0, 30.1828
52.933262052, 96.390, 954.0, 30.8869
52.959522618, 96.390, 953.0, 30.8707
52.985783183, 96.390, 942.0, 30.6920
53.012043748, 96.390, 881.0, 29.6816
53.038304314, 96.390, 925.0, 30.4138
53.064564879, 96.390, 907.0, 30.1164
53.090825444, 96.390, 940.0, 30.6594
53.117086010, 96.390, 940.0, 30.6594
53.143346575, 96.390, 964.0, 31.0483
53.169607140, 96.390, 889.0, 29.8161
53.195867706, 96.390, 935.0, 30.5778
53.222128271, 96.390, 1006.0, 31.7175
53.248388836, 96.390, 938.0, 30.6268
53.274649402, 96.390, 895.0, 29.9166
53.300909967, 96.390, 887.0, 29.7825
53.327170533, 96.390, 877.0, 29.6142
53.353431098, 96.390, 914.0, 30.2324
53.379691663, 96.390, 931.0, 30.5123
53.405952229, 96.390, 891.0, 29.8496
53.432212794, 96.390, 919.0, 30.3150
53.458473359, 96.390, 849.0, 29.1376
53.484733925, 96.390, 854.0, 29.2233
53.510994490, 96.390, 919.0, 30.3150
53.537255055, 96.390, 903.0, 30.0500
53.563515621, 96.390, 929.0, 30.4795
53.589776186, 96.390, 890.0, 29.8329
53.616036751, 96.390, 896.0, 29.9333
53.642297317, 96.390, 855.0, 29.2404
53.668557882, 96.390, 890.0, 29.8329
53.694818448, 96.390, 912.0, 30.1993
53.721079013, 96.390, 853.0, 29.2062
53.747339578, 96.390, 817.0, 28.5832
53.773600144, 96.390, 829.0, 28.7924
53.799860709, 96.390, 815.0, 28.5482
53.826121274, 96.390, 845.0, 29.0689
53.852381840, 96.390, 916.0, 30.2655
53.878642405, 96.390, 935.0, 30.5778
53.904902970, 96.390, 858.0, 29.2916
53.931163536, 96.390, 948.0, 30.7896
53.957424101, 96.390, 940.0, 30.6594
53.983684666, 96.390, 929.0, 30.4795
54.009945232, 96.390, 939.0, 30.6431
54.036205797, 96.390, 941.0, 30.6757
54.062466362, 96.390, 965.0, 31.0644
54.088726928, 96.390, 923.0, 30.3809
54.114987493, 96.390, 1006.0, 31.7175
54.141248059, 96.390, 960.0, 30.9839
54.167508624, 96.390, 1001.0, 31.6386
54.193769189, 96.390, 986.0, 31.4006
54.220029755, 96.390, 973.0, 31.1929
54.246290320, 96.390, 1001.0, 31.6386
54.272550885, 96.390, 980.0, 31.3050
54.298811451, 96.390, 878.0, 29.6311
54.325072016, 96.390, 885.0, 29.7489
54.351332581, 96.390, 940.0, 30.6594
54.377593147, 96.390, 968.0, 31.1127
54.403853712, 96.390, 988.0, 31.4325
54.430114277, 96.390, 887.0, 29.7825
54.456374843, 96.390, 904.0, 30.0666
54.482635408, 96.390, 959.0, 30.9677
54.508895973, 96.390, 883.0, 29.7153
54.535156539, 96.390, 856.0, 29.2575
54.561417104, 96.390, 912.0, 30.1993
54.587677670, 96.390, 915.0, 30.2490
54.613938235, 96.390, 814.0, 28.5307
54.640198800, 96.390, 844.0, 29.0517
54.666459366, 96.390, 817.0, 28.5832
54.692719931, 96.390, 852.0, 29.1890
54.718980496, 96.390, 812.0, 28.4956
54.745241062, 96.390, 831.0, 28.8271
54.771501627, 96.390, 759.0, 27.5500
54.797762192, 96.390, 870.0, 29.4958
54.824022758, 96.390, 771.0, 27.7669
54.850283323, 96.390, 836.0, 28.9137
54.876543888, 96.390, 849.0, 29.1376
54.902804454, 96.390, 791.0, 28.1247
54.929065019, 96.390, 843.0, 29.0345
54.955325585, 96.390, 800.0, 28.2843
54.981586150, 96.390, 843.0, 29.0345
55.007846715, 96.390, 827.0, 28.7576
55.034107281, 96.390, 848.0, 29.1204
55.060367846, 96.390, 829.0, 28.7924
55.086628411, 96.390, 895.0, 29.9166
55.112888977, 96.390, 815.0, 28.5482
55.139149542, 96.390, 788.0, 28.0713
55.165410107, 96.390, 797.0, 28.2312
55.191670673, 96.390, 787.0, 28.0535
55.217931238, 96.390, 838.0, 28.9482
55.244191803, 96.390, 793.0, 28.1603
55.270452369, 96.390, 800.0, 28.2843
55.296712934, 96.390, 793.0, 28.1603
55.322973499, 96.390, 835.0, 28.8964
55.349234065, 96.390, 820.0, 28.6356
55.375494630, 96.390, 823.0, 28.6880
55.401755196, 96.390, 899.0, 29.9833
55.428015761, 96.390, 868.0, 29.4618
55.454276326, 96.390, 844.0, 29.0517
55.480536892, 96.390, 855.0, 29.2404
55.506797457, 96.390, 833.0, 28.8617
55.533058022, 96.390, 818.0, 28.6007
55.559318588, 96.390, 812.0, 28.4956
55.585579153, 96.390, 850.0, 29.1548
55.611839718, 96.390, 836.0, 28.9137
55.638100284, 96.390, 843.0, 29.0345
55.664360849, 96.390, 811.0, 28.4781
55.690621414, 96.390, 771.0, 27.7669
55.716881980, 96.390, 769.0, 27.7308
55.743142545, 96.390, 815.0, 28.5482
55.769403111, 96.390, 796.0, 28.2135
55.795663676, 96.390, 770.0, 27.7489
55.821924241, 96.390, 816.0, 28.5657
55.848184807, 96.390, 810.0, 28.4605
55.874445372, 96.390, 772.0, 27.7849
55.900705937, 96.390, 731.0, 27.0370
55.926966503, 96.390, 823.0, 28.6880
55.953227068, 96.390, 783.0, 27.9821
55.979487633, 96.390, 781.0, 27.9464
56.005748199, 96.390, 813.0, 28.5132
56.032008764, 96.390, 869.0, 29.4788
56.058269329, 96.390, 866.0, 29.4279
56.084529895, 96.390, 806.0, 28.3901
56.110790460, 96.390, 865.0, 29.4109
56.137051025, 96.390, 803.0, 28.3373
56.163311591, 96.390, 822.0, 28.6705
56.189572156, 96.390, 819.0, 28.6182
56.215832722, 96.390, 881.0, 29.6816
56.242093287, 96.390, 871.0, 29.5127
56.268353852, 96.390, 764.0, 27.6405
56.294614418, 96.390, 807.0, 28.4077
56.320874983, 96.390, 857.0, 29.2746
56.347135548, 96.390, 776.0, 27.8568
56.373396114, 96.390, 791.0, 28.1247
56.399656679, 96.390, 825.0, 28.7228
56.425917244, 96.390, 828.0, 28.7750
56.452177810, 96.390, 799.0, 28.2666
56.478438375, 96.390, 846.0, 29.0861
56.504698940, 96.390, 837.0, 28.9310
56.530959506, 96.390, 807.0, 28.4077
56.557220071, 96.390, 828.0, 28.7750
56.583480637, 96.390, 762.0, 27.6043
56.609741202, 96.390, 774.0, 27.8209
56.636001767, 96.390, 796.0, 28.2135
56.662262333, 96.390, 813.0, 28.5132
56.688522898, 96.390, 786.0, 28.0357
56.714783463, 96.390, 731.0, 27.0370
56.741044029, 96.390, 816.0, 28.5657
56.767304594, 96.390, 757.0, 27.5136
56.793565159, 96.390, 786.0, 28.0357
56.819825725, 96.390, 785.0, 28.0179
56.846086290, 96.390, 779.0, 27.9106
56.872346855, 96.390, 746.0, 27.3130
56.898607421, 96.390, 793.0, 28.1603
56.924867986, 96.390, 759.0, 27.5500
56.951128551, 96.390, 722.0, 26.8701
56.977389117, 96.390, 793.0, 28.1603
57.003649682, 96.390, 765.0, 27.6586
57.029910248, 96.390, 716.0, 26.7582
57.056170813, 96.390, 816.0, 28.5657
57.082431378, 96.390, 711.0, 26.6646
57.108691944, 96.390, 758.0, 27.5318
57.134952509, 96.390, 790.0, 28.1069
57.161213074, 96.390, 838.0, 28.9482
57.187473640, 96.390, 778.0, 27.8927
57.213734205, 96.390, 815.0, 28.5482
57.239994770, 96.390, 754.0, 27.4591
57.266255336, 96.390, 823.0, 28.6880
57.292515901, 96.390, 763.0, 27.6225
57.318776466, 96.390, 821.0, 28.6531
57.345037032, 96.390, 818.0, 28.6007
57.371297597, 96.390, 820.0, 28.6356
57.397558163, 96.390, 753.0, 27.4408
57.423818728, 96.390, 789.0, 28.0891
57.450079293, 96.390, 738.0, 27.1662
57.476339859, 96.390, 758.0, 27.5318
57.502600424, 96.390, 746.0, 27.3130
57.528860989, 96.390, 772.0, 27.7849
57.555121555, 96.390, 799.0, 28.2666
57.581382120, 96.390, 738.0, 27.1662
57.607642685, 96.390, 734.0, 27.0924
57.633903251, 96.390, 781.0, 27.9464
57.660163816, 96.390, 782.0, 27.9643
57.686424381, 96.390, 811.0, 28.4781
57.712684947, 96.390, 801.0, 28.3019
57.738945512, 96.390, 803.0, 28.3373
57.765206077, 96.390, 794.0, 28.1780
57.791466643, 96.390, 858.0, 29.2916
57.817727208, 96.390, 777.0, 27.8747
57.843987774, 96.390, 763.0, 27.6225
57.870248339, 96.390, 858.0, 29.2916
57.896508904, 96.390, 784.0, 28.0000
57.922769470, 96.390, 778.0, 27.8927
57.949030035, 96.390, 761.0, 27.5862
57.975290600, 96.390, 808.0, 28.4253
58.001551166, 96.390, 821.0, 28.6531
58.027811731, 96.390, 890.0, 29.8329
58.054072296, 96.390, 936.0, 30.5941
58.080332862, 96.390, 923.0, 30.3809
58.106593427, 96.390, 942.0, 30.6920
58.132853992, 96.390, 884.0, 29.7321
58.159114558, 96.390, 843.0, 29.0345
58.185375123, 96.390, 808.0, 28.4253
58.211635689, 96.390, 810.0, 28.4605
58.237896254, 96.390, 840.0, 28.9828
58.264156819, 96.390, 840.0, 28.9828
58.290417385, 96.390, 773.0, 27.8029
58.316677950, 96.390, 821.0, 28.6531
58.342938515, 96.390, 750.0, 27.3861
58.369199081, 96.390, 738.0, 27.1662
58.395459646, 96.390, 740.0, 27.2029
58.421720211, 96.390, 790.0, 28.1069
58.447980777, 96.390, 744.0, 27.2764
58.474241342, 96.390, 810.0, 28.4605
58.500501907, 96.390, 738.0, 27.1662
58.526762473, 96.390, 815.0, 28.5482
58.553023038, 96.390, 763.0, 27.6225
58.579283603, 96.390, 749.0, 27.3679
58.605544169, 96.390, 831.0, 28.8271
58.631804734, 96.390, 762.0, 27.6043
58.658065300, 96.390, 798.0, 28.2489
58.684325865, 96.390, 790.0, 28.1069
58.710586430, 96.390, 769.0, 27.7308
58.736846996, 96.390, 799.0, 28.2666
58.763107561, 96.390, 713.0, 26.7021
58.789368126, 96.390, 776.0, 27.8568
58.815628692, 96.390, 735.0, 27.1109
58.841889257, 96.390, 779.0, 27.9106
58.868149822, 96.390, 806.0, 28.3901
58.894410388, 96.390, 720.0, 26.8328
58.920670953, 96.390, 781.0, 27.9464
58.946931518, 96.390, 753.0, 27.4408
58.973192084, 96.390, 749.0, 27.3679
58.999452649, 96.390, 743.0, 27.2580
59.025713214, 96.390, 776.0, 27.8568
59.051973780, 96.390, 757.0, 27.5136
59.078234345, 96.390, 743.0, 27.2580
59.104494911, 96.390, 787.0, 28.0535
59.130755476, 96.390, 741.0, 27.2213
59.157016041, 96.390, 730.0, 27.0185
59.183276607, 96.390, 793.0, 28.1603
59.209537172, 96.390, 788.0, 28.0713
59.235797737, 96.390, 775.0, 27.8388
59.262058303, 96.390, 788.0, 28.0713
59.288318868, 96.390, 789.0, 28.0891
59.314579433, 96.390, 773.0, 27.8029
59.340839999, 96.390, 822.0, 28.6705
59.367100564, 96.390, 794.0, 28.1780
59.393361129, 96.390, 770.0, 27.7489
59.419621695, 96.390, 741.0, 27.2213
59.445882260, 96.390, 817.0, 28.5832
59.472142826, 96.390, 808.0, 28.4253
59.498403391, 96.390, 814.0, 28.5307
59.524663956, 96.390, 782.0, 27.9643
59.550924522, 96.390, 801.0, 28.3019
59.577185087, 96.390, 766.0, 27.6767
59.603445652, 96.390, 820.0, 28.6356
59.629706218, 96.390, 774.0, 27.8209
59.655966783, 96.390, 770.0, 27.7489
59.682227348, 96.390, 822.0, 28.6705
59.708487914, 96.390, 781.0, 27.9464
59.734748479, 96.390, 798.0, 28.2489
59.761009044, 96.390, 828.0, 28.7750
59.787269610, 96.390, 821.0, 28.6531
59.813530175, 96.390, 778.0, 27.8927
59.839790740, 96.390, 845.0, 29.0689
59.866051306, 96.390, 786.0, 28.0357
59.892311871, 96.390, 836.0, 28.9137
59.918572437, 96.390, 779.0, 27.9106
59.944833002, 96.390, 887.0, 29.7825
59.971093567, 96.390, 798.0, 28.2489
59.997354133, 96.390, 869.0, 29.4788
60.023614698, 96.390, 848.0, 29.1204
60.049875263, 96.390, 815.0, 28.5482
60.076135829, 96.390, 890.0, 29.8329
60.102396394, 96.390, 824.0, 28.7054
60.128656959, 96.390, 874.0, 29.5635
60.154917525, 96.390, 874.0, 29.5635
60.181178090, 96.390, 851.0, 29.1719
60.207438655, 96.390, 876.0, 29.5973
60.233699221, 96.390, 892.0, 29.8664
60.259959786, 96.390, 916.0, 30.2655
60.286220352, 96.390, 873.0, 29.5466
60.312480917, 96.390, 914.0, 30.2324
60.338741482, 96.390, 877.0, 29.6142
60.365002048, 96.390, 911.0, 30.1828
60.391262613, 96.390, 937.0, 30.6105
60.417523178, 96.390, 887.0, 29.7825
60.443783744, 96.390, 929.0, 30.4795
60.470044309, 96.390, 918.0, 30.2985
60.496304874, 96.390, 995.0, 31.5436
60.522565440, 96.390, 964.0, 31.0483
60.548826005, 96.390, 1013.0, 31.8277
60.575086570, 96.390, 997.0, 31.5753
60.601347136, 96.390, 1048.0, 32.3728
60.627607701, 96.390, 1011.0, 31.7962
60.653868266, 96.390, 1023.0, 31.9844
60.680128832, 96.390, 1046.0, 32.3419
60.706389397, 96.390, 1107.0, 33.2716
60.732649963, 96.390, 1120.0, 33.4664
60.758910528, 96.390, 1133.0, 33.6601
60.785171093, 96.390, 1120.0, 33.4664
60.811431659, 96.390, 1208.0, 34.7563
60.837692224, 96.390, 1232.0, 35.0999
60.863952789, 96.390, 1143.0, 33.8083
60.890213355, 96.390, 1185.0, 34.4238
60.916473920, 96.390, 1212.0, 34.8138
60.942734485, 96.390, 1189.0, 34.4819
60.968995051, 96.390, 1257.0, 35.4542
60.995255616, 96.390, 1286.0, 35.8608
61.021516181, 96.390, 1220.0, 34.9285
61.047776747, 96.390, 1300.0, 36.0555
61.074037312, 96.390, 1220.0, 34.9285
61.100297878, 96.390, 1276.0, 35.7211
61.126558443, 96.390, 1240.0, 35.2136
61.152819008, 96.390, 1221.0, 34.9428
61.179079574, 96.390, 1338.0, 36.5787
61.205340139, 96.390, 1250.0, 35.3553
61.231600704, 96.390, 1250.0, 35.3553
61.257861270, 96.390, 1218.0, 34.8999
61.284121835, 96.390, 1189.0, 34.4819
61.310382400, 96.390, 1228.0, 35.0428
61.336642966, 96.390, 1211.0, 34.7994
61.362903531, 96.390, 1209.0, 34.7707
61.389164096, 96.390, 1135.0, 33.6898
61.415424662, 96.390, 1212.0, 34.8138
61.441685227, 96.390, 1181.0, 34.3657
61.467945792, 96.390, 1226.0, 35.0143
61.494206358, 96.390, 1162.0, 34.0881
61.520466923, 96.390, 1196.0, 34.5832
61.546727489, 96.390, 1100.0, 33.1662
61.572988054, 96.390, 1121.0, 33.4813
61.599248619, 96.390, 1090.0, 33.0151
61.625509185, 96.390, 1080.0, 32.8634
61.651769750, 96.390, 1106.0, 33.2566
61.678030315, 96.390, 1117.0, 33.4215
61.704290881, 96.390, 1048.0, 32.3728
61.730551446, 96.390, 1026.0, 32.0312
61.756812011, 96.390, 1063.0, 32.6037
61.783072577, 96.390, 990.0, 31.4643
61.809333142, 96.390, 1080.0, 32.8634
61.835593707, 96.390, 1041.0, 32.2645
61.861854273, 96.390, 1118.0, 33.4365
61.888114838, 96.390, 971.0, 31.1609
61.914375404, 96.390, 1040.0, 32.2490
61.940635969, 96.390, 1037.0, 32.2025
61.966896534, 96.390, 989.0, 31.4484
61.993157100, 96.390, 1042.0, 32.2800
62.019417665, 96.390, 966.0, 31.0805
62.045678230, 96.390, 1039.0, 32.2335
62.071938796, 96.390, 964.0, 31.0483
62.098199361, 96.390, 990.0, 31.4643
62.124459926, 96.390, 1004.0, 31.6860
62.150720492, 96.390, 958.0, 30.9516
62.176981057, 96.390, 1014.0, 31.8434
62.203241622, 96.390, 948.0, 30.7896
62.229502188, 96.390, 989.0, 31.4484
62.255762753, 96.390, 960.0, 30.9839
62.282023318, 96.390, 983.0, 31.3528
62.308283884, 96.390, 909.0, 30.1496
62.334544449, 96.390, 986.0, 31.4006
62.360805015, 96.390, 940.0, 30.6594
62.387065580, 96.390, 928.0, 30.4631
62.413326145, 96.390, 985.0, 31.3847
62.439586711, 96.390, 941.0, 30.6757
62.465847276, 96.390, 908.0, 30.1330
62.492107841, 96.390, 936.0, 30.5941
62.518368407, 96.390, 888.0, 29.7993
62.544628972, 96.390, 936.0, 30.5941
62.570889537, 96.390, 870.0, 29.4958
62.597150103, 96.390, 969.0, 31.1288
62.623410668, 96.390, 875.0, 29.5804
62.649671233, 96.390, 897.0, 29.9500
62.675931799, 96.390, 928.0, 30.4631
62.702192364, 96.390, 878.0, 29.6311
62.728452930, 96.390, 920.0, 30.3315
62.754713495, 96.390, 859.0, 29.3087
62.780974060, 96.390, 841.0, 29.0000
62.807234626, 96.390, 840.0, 28.9828
62.833495191, 96.390, 807.0, 28.4077
62.859755756, 96.390, 925.0, 30.4138
62.886016322, 96.390, 899.0, 29.9833
62.912276887, 96.390, 826.0, 28.7402
62.938537452, 96.390, 814.0, 28.5307
62.964798018, 96.390, 775.0, 27.8388
62.991058583, 96.390, 692.0, 26.3059
63.017319148, 96.390, 759.0, 27.5500
63.043579714, 96.390, 769.0, 27.7308
63.069840279, 96.390, 807.0, 28.4077
63.096100844, 96.390, 756.0, 27.4955
63.122361410, 96.390, 733.0, 27.0740
63.148621975, 96.390, 712.0, 26.6833
63.174882541, 96.390, 785.0, 28.0179
63.201143106, 96.390, 725.0, 26.9258
63.227403671, 96.390, 773.0, 27.8029
63.253664237, 96.390, 776.0, 27.8568
63.279924802, 96.390, 764.0, 27.6405
63.306185367, 96.390, 760.0, 27.5681
63.332445933, 96.390, 713.0, 26.7021
63.358706498, 96.390, 727.0, 26.9629
63.384967063, 96.390, 779.0, 27.9106
63.411227629, 96.390, 721.0, 26.8514
63.437488194, 96.390, 732.0, 27.0555
63.463748759, 96.390, 696.0, 26.3818
63.490009325, 96.390, 761.0, 27.5862
63.516269890, 96.390, 705.0, 26.5518
63.542530455, 96.390, 702.0, 26.4953
63.568791021, 96.390, 735.0, 27.1109
63.595051586, 96.390, 754.0, 27.4591
63.621312152, 96.390, 753.0, 27.4408
63.647572717, 96.390, 754.0, 27.4591
63.673833282, 96.390, 752.0, 27.4226
63.700093848, 96.390, 742.0, 27.2397
63.726354413, 96.390, 725.0, 26.9258
63.752614978, 96.390, 691.0, 26.2869
63.778875544, 96.390, 697.0, 26.4008
63.805136109, 96.390, 724.0, 26.9072
63.831396674, 96.390, 735.0, 27.1109
63.857657240, 96.390, 740.0, 27.2029
63.883917805, 96.390, 743.0, 27.2580
63.910178370, 96.390, 673.0, 25.9422
63.936438936, 96.390, 769.0, 27.7308
63.962699501, 96.390, 752.0, 27.4226
63.988960067, 96.390, 758.0, 27.5318
64.015220632, 96.390, 739.0, 27.1846
64.041481197, 96.390, 707.0, 26.5895
64.067741763, 96.390, 725.0, 26.9258
64.094002328, 96.390, 679.0, 26.0576
64.120262893, 96.390, 702.0, 26.4953
64.146523459, 96.390, 713.0, 26.7021
64.172784024, 96.390, 682.0, 26.1151
64.199044589, 96.390, 733.0, 27.0740
64.225305155, 96.390, 707.0, 26.5895
64.251565720, 96.390, 781.0, 27.9464
64.277826285, 96.390, 736.0, 27.1293
64.304086851, 96.390, 739.0, 27.1846
64.330347416, 96.390, 748.0, 27.3496
64.356607981, 96.390, 713.0, 26.7021
64.382868547, 96.390, 759.0, 27.5500
64.409129112, 96.390, 781.0, 27.9464
64.435389678, 96.390, 704.0, 26.5330
64.461650243, 96.390, 716.0, 26.7582
64.487910808, 96.390, 735.0, 27.1109
64.514171374, 96.390, 712.0, 26.6833
64.540431939, 96.390, 701.0, 26.4764
64.566692504, 96.390, 714.0, 26.7208
64.592953070, 96.390, 672.0, 25.9230
64.619213635, 96.390, 704.0, 26.5330
64.645474200, 96.390, 699.0, 26.4386
64.671734766, 96.390, 670.0, 25.8844
64.697995331, 96.390, 707.0, 26.5895
64.724255896, 96.390, 658.0, 25.6515
64.750516462, 96.390, 654.0, 25.5734
64.776777027, 96.390, 700.0, 26.4575
64.803037593, 96.390, 704.0, 26.5330
64.829298158, 96.390, 674.0, 25.9615
64.855558723, 96.390, 707.0, 26.5895
64.881819289, 96.390, 698.0, 26.4197
64.908079854, 96.390, 680.0, 26.0768
64.934340419, 96.390, 660.0, 25.6905
64.960600985, 96.390, 685.0, 26.1725
64.986861550, 96.390, 720.0, 26.8328
