[Measurement conditions]
Sample identification,XRD_MgCorner08Nov21_Act08Jan22_B1_0714M_NaOH_LS0162_1
Comment - 1,"Configuration=Stage for Flat Samples/Holders, Owner=User-1, Creation date=7/1/2020 9:53:24 AM"
Comment - 2,"Goniometer=Theta/Theta; Minimum step size 2Theta:0.0001; Minimum step size Omega:0.0001"
Comment - 3,"Sample stage=Stage for flat samples/holders"
Comment - 4,"Diffractometer system=EMPYREAN"
Comment - 5,"Measurement program=C:\Users\ibo5034\OneDrive - The Pennsylvania State University\NEUP - Reed, Titus's files\XRD\Cement\Zerobackground scan.xrdmp, Identifier={98A3B11C-88F9-4AA6-982C-73314A311EF5}"
Anode material,Cu
K-Alpha1 wavelength,1.5405980
K-Alpha2 wavelength,1.5444260
Ratio K-Alpha2/K-Alpha1,0.500
Divergence slit,Fixed,0.25
Monochromator used,NO
Generator voltage, 45
Tube current, 40
File date and time,11/Jan/2022 12:31
Unit cell,
h k l, 0 0 0
Scan axis,Gonio
Scan range,4.994599997,64.999991833
Scan step size,0.0262606
No. of points, 2285
Scan type,CONTINUOUS
Time per step,96.390
[Scan points]
Angle, TimePerStep, Intensity, ESD
5.007730280, 96.390, 5204.0, 72.1388
5.033990845, 96.390, 5030.0, 70.9225
5.060251411, 96.390, 5051.0, 71.0704
5.086511976, 96.390, 4860.0, 69.7137
5.112772541, 96.390, 4956.0, 70.3989
5.139033107, 96.390, 5036.0, 70.9648
5.165293672, 96.390, 5031.0, 70.9295
5.191554237, 96.390, 4902.0, 70.0143
5.217814803, 96.390, 5005.0, 70.7460
5.244075368, 96.390, 5068.0, 71.1899
5.270335934, 96.390, 4984.0, 70.5975
5.296596499, 96.390, 4967.0, 70.4769
5.322857064, 96.390, 5035.0, 70.9577
5.349117630, 96.390, 4816.0, 69.3974
5.375378195, 96.390, 4767.0, 69.0435
5.401638760, 96.390, 4835.0, 69.5342
5.427899326, 96.390, 4792.0, 69.2243
5.454159891, 96.390, 4844.0, 69.5989
5.480420456, 96.390, 4942.0, 70.2994
5.506681022, 96.390, 4834.0, 69.5270
5.532941587, 96.390, 4792.0, 69.2243
5.559202152, 96.390, 4828.0, 69.4838
5.585462718, 96.390, 4680.0, 68.4105
5.611723283, 96.390, 4784.0, 69.1665
5.637983849, 96.390, 4827.0, 69.4766
5.664244414, 96.390, 4668.0, 68.3228
5.690504979, 96.390, 4644.0, 68.1469
5.716765545, 96.390, 4593.0, 67.7717
5.743026110, 96.390, 4658.0, 68.2495
5.769286675, 96.390, 4628.0, 68.0294
5.795547241, 96.390, 4709.0, 68.6222
5.821807806, 96.390, 4761.0, 69.0000
5.848068371, 96.390, 4738.0, 68.8331
5.874328937, 96.390, 4769.0, 69.0579
5.900589502, 96.390, 4744.0, 68.8767
5.926850067, 96.390, 4622.0, 67.9853
5.953110633, 96.390, 4547.0, 67.4314
5.979371198, 96.390, 4626.0, 68.0147
6.005631763, 96.390, 4589.0, 67.7422
6.031892329, 96.390, 4646.0, 68.1616
6.058152894, 96.390, 4624.0, 68.0000
6.084413460, 96.390, 4648.0, 68.1762
6.110674025, 96.390, 4637.0, 68.0955
6.136934590, 96.390, 4592.0, 67.7643
6.163195156, 96.390, 4510.0, 67.1565
6.189455721, 96.390, 4598.0, 67.8086
6.215716286, 96.390, 4598.0, 67.8086
6.241976852, 96.390, 4393.0, 66.2797
6.268237417, 96.390, 4610.0, 67.8970
6.294497982, 96.390, 4616.0, 67.9412
6.320758548, 96.390, 4498.0, 67.0671
6.347019113, 96.390, 4561.0, 67.5352
6.373279678, 96.390, 4517.0, 67.2086
6.399540244, 96.390, 4482.0, 66.9477
6.425800809, 96.390, 4572.0, 67.6166
6.452061375, 96.390, 4527.0, 67.2830
6.478321940, 96.390, 4534.0, 67.3350
6.504582505, 96.390, 4409.0, 66.4003
6.530843071, 96.390, 4426.0, 66.5282
6.557103636, 96.390, 4383.0, 66.2042
6.583364201, 96.390, 4348.0, 65.9394
6.609624767, 96.390, 4276.0, 65.3911
6.635885332, 96.390, 4340.0, 65.8787
6.662145897, 96.390, 4454.0, 66.7383
6.688406463, 96.390, 4442.0, 66.6483
6.714667028, 96.390, 4421.0, 66.4906
6.740927593, 96.390, 4471.0, 66.8655
6.767188159, 96.390, 4371.0, 66.1135
6.793448724, 96.390, 4420.0, 66.4831
6.819709289, 96.390, 4340.0, 65.8787
6.845969855, 96.390, 4318.0, 65.7115
6.872230420, 96.390, 4331.0, 65.8103
6.898490986, 96.390, 4485.0, 66.9701
6.924751551, 96.390, 4210.0, 64.8845
6.951012116, 96.390, 4316.0, 65.6963
6.977272682, 96.390, 4381.0, 66.1891
7.003533247, 96.390, 4140.0, 64.3428
7.029793812, 96.390, 4208.0, 64.8691
7.056054378, 96.390, 4253.0, 65.2150
7.082314943, 96.390, 4253.0, 65.2150
7.108575508, 96.390, 4207.0, 64.8614
7.134836074, 96.390, 4297.0, 65.5515
7.161096639, 96.390, 4203.0, 64.8305
7.187357204, 96.390, 4215.0, 64.9230
7.213617770, 96.390, 4150.0, 64.4205
7.239878335, 96.390, 4036.0, 63.5295
7.266138900, 96.390, 4045.0, 63.6003
7.292399466, 96.390, 4167.0, 64.5523
7.318660031, 96.390, 4089.0, 63.9453
7.344920597, 96.390, 4072.0, 63.8122
7.371181162, 96.390, 4120.0, 64.1872
7.397441727, 96.390, 4103.0, 64.0547
7.423702293, 96.390, 4138.0, 64.3273
7.449962858, 96.390, 4083.0, 63.8984
7.476223423, 96.390, 3964.0, 62.9603
7.502483989, 96.390, 3985.0, 63.1269
7.528744554, 96.390, 3860.0, 62.1289
7.555005119, 96.390, 4042.0, 63.5767
7.581265685, 96.390, 3915.0, 62.5700
7.607526250, 96.390, 3919.0, 62.6019
7.633786815, 96.390, 3990.0, 63.1664
7.660047381, 96.390, 3988.0, 63.1506
7.686307946, 96.390, 3821.0, 61.8142
7.712568512, 96.390, 3874.0, 62.2415
7.738829077, 96.390, 3927.0, 62.6658
7.765089642, 96.390, 3814.0, 61.7576
7.791350208, 96.390, 3877.0, 62.2656
7.817610773, 96.390, 3799.0, 61.6360
7.843871338, 96.390, 3891.0, 62.3779
7.870131904, 96.390, 3927.0, 62.6658
7.896392469, 96.390, 3811.0, 61.7333
7.922653034, 96.390, 3786.0, 61.5305
7.948913600, 96.390, 3865.0, 62.1691
7.975174165, 96.390, 3773.0, 61.4248
8.001434730, 96.390, 3841.0, 61.9758
8.027695296, 96.390, 3717.0, 60.9672
8.053955861, 96.390, 3889.0, 62.3618
8.080216426, 96.390, 3820.0, 61.8061
8.106476992, 96.390, 4035.0, 63.5216
8.132737557, 96.390, 4041.0, 63.5689
8.158998123, 96.390, 4130.0, 64.2651
8.185258688, 96.390, 3991.0, 63.1744
8.211519253, 96.390, 3722.0, 61.0082
8.237779819, 96.390, 3726.0, 61.0410
8.264040384, 96.390, 3626.0, 60.2163
8.290300949, 96.390, 3624.0, 60.1997
8.316561515, 96.390, 3591.0, 59.9250
8.342822080, 96.390, 3643.0, 60.3573
8.369082645, 96.390, 3538.0, 59.4811
8.395343211, 96.390, 3642.0, 60.3490
8.421603776, 96.390, 3491.0, 59.0847
8.447864341, 96.390, 3536.0, 59.4643
8.474124907, 96.390, 3487.0, 59.0508
8.500385472, 96.390, 3594.0, 59.9500
8.526646038, 96.390, 3600.0, 60.0000
8.552906603, 96.390, 3508.0, 59.2284
8.579167168, 96.390, 3696.0, 60.7947
8.605427734, 96.390, 3494.0, 59.1101
8.631688299, 96.390, 3620.0, 60.1664
8.657948864, 96.390, 3496.0, 59.1270
8.684209430, 96.390, 3563.0, 59.6909
8.710469995, 96.390, 3567.0, 59.7244
8.736730560, 96.390, 3516.0, 59.2959
8.762991126, 96.390, 3517.0, 59.3043
8.789251691, 96.390, 3540.0, 59.4979
8.815512256, 96.390, 3484.0, 59.0254
8.841772822, 96.390, 3511.0, 59.2537
8.868033387, 96.390, 3408.0, 58.3781
8.894293952, 96.390, 3450.0, 58.7367
8.920554518, 96.390, 3550.0, 59.5819
8.946815083, 96.390, 3559.0, 59.6574
8.973075649, 96.390, 3647.0, 60.3904
8.999336214, 96.390, 3444.0, 58.6856
9.025596779, 96.390, 3486.0, 59.0424
9.051857345, 96.390, 3565.0, 59.7076
9.078117910, 96.390, 3369.0, 58.0431
9.104378475, 96.390, 3453.0, 58.7622
9.130639041, 96.390, 3492.0, 59.0931
9.156899606, 96.390, 3470.0, 58.9067
9.183160171, 96.390, 3524.0, 59.3633
9.209420737, 96.390, 3408.0, 58.3781
9.235681302, 96.390, 3475.0, 58.9491
9.261941867, 96.390, 3577.0, 59.8080
9.288202433, 96.390, 3399.0, 58.3009
9.314462998, 96.390, 3480.0, 58.9915
9.340723564, 96.390, 3565.0, 59.7076
9.366984129, 96.390, 3522.0, 59.3464
9.393244694, 96.390, 3612.0, 60.0999
9.419505260, 96.390, 3513.0, 59.2706
9.445765825, 96.390, 3497.0, 59.1354
9.472026390, 96.390, 3602.0, 60.0167
9.498286956, 96.390, 3640.0, 60.3324
9.524547521, 96.390, 3610.0, 60.0833
9.550808086, 96.390, 3696.0, 60.7947
9.577068652, 96.390, 3625.0, 60.2080
9.603329217, 96.390, 3593.0, 59.9416
9.629589782, 96.390, 3617.0, 60.1415
9.655850348, 96.390, 3599.0, 59.9917
9.682110913, 96.390, 3526.0, 59.3801
9.708371478, 96.390, 3668.0, 60.5640
9.734632044, 96.390, 3601.0, 60.0083
9.760892609, 96.390, 3713.0, 60.9344
9.787153175, 96.390, 3716.0, 60.9590
9.813413740, 96.390, 3668.0, 60.5640
9.839674305, 96.390, 3706.0, 60.8769
9.865934871, 96.390, 3742.0, 61.1719
9.892195436, 96.390, 3746.0, 61.2046
9.918456001, 96.390, 3763.0, 61.3433
9.944716567, 96.390, 3776.0, 61.4492
9.970977132, 96.390, 3741.0, 61.1637
9.997237697, 96.390, 3915.0, 62.5700
10.023498263, 96.390, 3932.0, 62.7057
10.049758828, 96.390, 3907.0, 62.5060
10.076019393, 96.390, 3932.0, 62.7057
10.102279959, 96.390, 4020.0, 63.4035
10.128540524, 96.390, 3853.0, 62.0725
10.154801090, 96.390, 4047.0, 63.6160
10.181061655, 96.390, 3986.0, 63.1348
10.207322220, 96.390, 4043.0, 63.5846
10.233582786, 96.390, 4094.0, 63.9844
10.259843351, 96.390, 4134.0, 64.2962
10.286103916, 96.390, 4148.0, 64.4050
10.312364482, 96.390, 3981.0, 63.0952
10.338625047, 96.390, 4220.0, 64.9615
10.364885612, 96.390, 4226.0, 65.0077
10.391146178, 96.390, 4232.0, 65.0538
10.417406743, 96.390, 4331.0, 65.8103
10.443667308, 96.390, 4311.0, 65.6582
10.469927874, 96.390, 4375.0, 66.1438
10.496188439, 96.390, 4450.0, 66.7083
10.522449004, 96.390, 4301.0, 65.5820
10.548709570, 96.390, 4502.0, 67.0969
10.574970135, 96.390, 4483.0, 66.9552
10.601230701, 96.390, 4551.0, 67.4611
10.627491266, 96.390, 4602.0, 67.8380
10.653751831, 96.390, 4613.0, 67.9191
10.680012397, 96.390, 4538.0, 67.3647
10.706272962, 96.390, 4619.0, 67.9632
10.732533527, 96.390, 4604.0, 67.8528
10.758794093, 96.390, 4717.0, 68.6804
10.785054658, 96.390, 4658.0, 68.2495
10.811315223, 96.390, 4831.0, 69.5054
10.837575789, 96.390, 4710.0, 68.6294
10.863836354, 96.390, 4766.0, 69.0362
10.890096919, 96.390, 4823.0, 69.4478
10.916357485, 96.390, 4817.0, 69.4046
10.942618050, 96.390, 4938.0, 70.2709
10.968878616, 96.390, 4817.0, 69.4046
10.995139181, 96.390, 4790.0, 69.2098
11.021399746, 96.390, 4961.0, 70.4344
11.047660312, 96.390, 4887.0, 69.9071
11.073920877, 96.390, 4993.0, 70.6612
11.100181442, 96.390, 4879.0, 69.8498
11.126442008, 96.390, 4939.0, 70.2780
11.152702573, 96.390, 4969.0, 70.4911
11.178963138, 96.390, 5003.0, 70.7319
11.205223704, 96.390, 4847.0, 69.6204
11.231484269, 96.390, 4945.0, 70.3207
11.257744834, 96.390, 4828.0, 69.4838
11.284005400, 96.390, 4879.0, 69.8498
11.310265965, 96.390, 4848.0, 69.6276
11.336526530, 96.390, 4827.0, 69.4766
11.362787096, 96.390, 4911.0, 70.0785
11.389047661, 96.390, 4808.0, 69.3397
11.415308227, 96.390, 4708.0, 68.6149
11.441568792, 96.390, 4755.0, 68.9565
11.467829357, 96.390, 4740.0, 68.8477
11.494089923, 96.390, 4667.0, 68.3154
11.520350488, 96.390, 4636.0, 68.0882
11.546611053, 96.390, 4604.0, 67.8528
11.572871619, 96.390, 4564.0, 67.5574
11.599132184, 96.390, 4513.0, 67.1789
11.625392749, 96.390, 4391.0, 66.2646
11.651653315, 96.390, 4480.0, 66.9328
11.677913880, 96.390, 4442.0, 66.6483
11.704174445, 96.390, 4385.0, 66.2193
11.730435011, 96.390, 4165.0, 64.5368
11.756695576, 96.390, 4210.0, 64.8845
11.782956141, 96.390, 4190.0, 64.7302
11.809216707, 96.390, 4244.0, 65.1460
11.835477272, 96.390, 4154.0, 64.4515
11.861737838, 96.390, 4067.0, 63.7730
11.887998403, 96.390, 4025.0, 63.4429
11.914258968, 96.390, 3991.0, 63.1744
11.940519534, 96.390, 3932.0, 62.7057
11.966780099, 96.390, 3939.0, 62.7615
11.993040664, 96.390, 3873.0, 62.2334
12.019301230, 96.390, 3858.0, 62.1128
12.045561795, 96.390, 3797.0, 61.6198
12.071822360, 96.390, 3578.0, 59.8164
12.098082926, 96.390, 3600.0, 60.0000
12.124343491, 96.390, 3690.0, 60.7454
12.150604056, 96.390, 3556.0, 59.6322
12.176864622, 96.390, 3566.0, 59.7160
12.203125187, 96.390, 3453.0, 58.7622
12.229385753, 96.390, 3416.0, 58.4466
12.255646318, 96.390, 3314.0, 57.5674
12.281906883, 96.390, 3357.0, 57.9396
12.308167449, 96.390, 3266.0, 57.1489
12.334428014, 96.390, 3247.0, 56.9825
12.360688579, 96.390, 3237.0, 56.8946
12.386949145, 96.390, 3308.0, 57.5152
12.413209710, 96.390, 3276.0, 57.2364
12.439470275, 96.390, 3185.0, 56.4358
12.465730841, 96.390, 3140.0, 56.0357
12.491991406, 96.390, 3012.0, 54.8817
12.518251971, 96.390, 3040.0, 55.1362
12.544512537, 96.390, 3112.0, 55.7853
12.570773102, 96.390, 3007.0, 54.8361
12.597033667, 96.390, 2946.0, 54.2771
12.623294233, 96.390, 3019.0, 54.9454
12.649554798, 96.390, 2899.0, 53.8424
12.675815364, 96.390, 2929.0, 54.1202
12.702075929, 96.390, 2943.0, 54.2494
12.728336494, 96.390, 2811.0, 53.0189
12.754597060, 96.390, 2889.0, 53.7494
12.780857625, 96.390, 2778.0, 52.7067
12.807118190, 96.390, 2810.0, 53.0094
12.833378756, 96.390, 2830.0, 53.1977
12.859639321, 96.390, 2875.0, 53.6190
12.885899886, 96.390, 2726.0, 52.2111
12.912160452, 96.390, 2650.0, 51.4782
12.938421017, 96.390, 2696.0, 51.9230
12.964681582, 96.390, 2586.0, 50.8527
12.990942148, 96.390, 2618.0, 51.1664
13.017202713, 96.390, 2612.0, 51.1077
13.043463279, 96.390, 2624.0, 51.2250
13.069723844, 96.390, 2623.0, 51.2152
13.095984409, 96.390, 2469.0, 49.6890
13.122244975, 96.390, 2522.0, 50.2195
13.148505540, 96.390, 2499.0, 49.9900
13.174766105, 96.390, 2561.0, 50.6063
13.201026671, 96.390, 2529.0, 50.2892
13.227287236, 96.390, 2522.0, 50.2195
13.253547801, 96.390, 2459.0, 49.5883
13.279808367, 96.390, 2506.0, 50.0600
13.306068932, 96.390, 2446.0, 49.4571
13.332329497, 96.390, 2485.0, 49.8498
13.358590063, 96.390, 2478.0, 49.7795
13.384850628, 96.390, 2488.0, 49.8799
13.411111193, 96.390, 2441.0, 49.4065
13.437371759, 96.390, 2530.0, 50.2991
13.463632324, 96.390, 2562.0, 50.6162
13.489892890, 96.390, 2637.0, 51.3517
13.516153455, 96.390, 2763.0, 52.5642
13.542414020, 96.390, 2676.0, 51.7301
13.568674586, 96.390, 2594.0, 50.9313
13.594935151, 96.390, 2481.0, 49.8096
13.621195716, 96.390, 2342.0, 48.3942
13.647456282, 96.390, 2259.0, 47.5289
13.673716847, 96.390, 2293.0, 47.8853
13.699977412, 96.390, 2249.0, 47.4236
13.726237978, 96.390, 2227.0, 47.1911
13.752498543, 96.390, 2300.0, 47.9583
13.778759108, 96.390, 2274.0, 47.6865
13.805019674, 96.390, 2212.0, 47.0319
13.831280239, 96.390, 2286.0, 47.8121
13.857540805, 96.390, 2218.0, 47.0956
13.883801370, 96.390, 2363.0, 48.6107
13.910061935, 96.390, 2290.0, 47.8539
13.936322501, 96.390, 2265.0, 47.5920
13.962583066, 96.390, 2142.0, 46.2817
13.988843631, 96.390, 2216.0, 47.0744
14.015104197, 96.390, 2209.0, 47.0000
14.041364762, 96.390, 2172.0, 46.6047
14.067625327, 96.390, 2270.0, 47.6445
14.093885893, 96.390, 2271.0, 47.6550
14.120146458, 96.390, 2286.0, 47.8121
14.146407023, 96.390, 2321.0, 48.1768
14.172667589, 96.390, 2282.0, 47.7703
14.198928154, 96.390, 2369.0, 48.6724
14.225188719, 96.390, 2500.0, 50.0000
14.251449285, 96.390, 2708.0, 52.0384
14.277709850, 96.390, 2688.0, 51.8459
14.303970416, 96.390, 2528.0, 50.2792
14.330230981, 96.390, 2384.0, 48.8262
14.356491546, 96.390, 2223.0, 47.1487
14.382752112, 96.390, 2173.0, 46.6154
14.409012677, 96.390, 2324.0, 48.2079
14.435273242, 96.390, 2358.0, 48.5592
14.461533808, 96.390, 2401.0, 49.0000
14.487794373, 96.390, 2605.0, 51.0392
14.514054938, 96.390, 2946.0, 54.2771
14.540315504, 96.390, 3175.0, 56.3471
14.566576069, 96.390, 2969.0, 54.4885
14.592836634, 96.390, 2502.0, 50.0200
14.619097200, 96.390, 2152.0, 46.3897
14.645357765, 96.390, 2064.0, 45.4313
14.671618331, 96.390, 1989.0, 44.5982
14.697878896, 96.390, 1996.0, 44.6766
14.724139461, 96.390, 1961.0, 44.2832
14.750400027, 96.390, 2006.0, 44.7884
14.776660592, 96.390, 1895.0, 43.5316
14.802921157, 96.390, 1941.0, 44.0568
14.829181723, 96.390, 1952.0, 44.1814
14.855442288, 96.390, 1944.0, 44.0908
14.881702853, 96.390, 1938.0, 44.0227
14.907963419, 96.390, 1982.0, 44.5197
14.934223984, 96.390, 1997.0, 44.6878
14.960484549, 96.390, 2022.0, 44.9667
14.986745115, 96.390, 1949.0, 44.1475
15.013005680, 96.390, 2011.0, 44.8442
15.039266245, 96.390, 1945.0, 44.1022
15.065526811, 96.390, 2052.0, 45.2990
15.091787376, 96.390, 2141.0, 46.2709
15.118047942, 96.390, 2161.0, 46.4866
15.144308507, 96.390, 2335.0, 48.3218
15.170569072, 96.390, 2401.0, 49.0000
15.196829638, 96.390, 2608.0, 51.0686
15.223090203, 96.390, 2730.0, 52.2494
15.249350768, 96.390, 2899.0, 53.8424
15.275611334, 96.390, 2983.0, 54.6168
15.301871899, 96.390, 3007.0, 54.8361
15.328132464, 96.390, 2581.0, 50.8035
15.354393030, 96.390, 2274.0, 47.6865
15.380653595, 96.390, 2007.0, 44.7996
15.406914160, 96.390, 1893.0, 43.5086
15.433174726, 96.390, 1937.0, 44.0114
15.459435291, 96.390, 1903.0, 43.6234
15.485695857, 96.390, 1893.0, 43.5086
15.511956422, 96.390, 1928.0, 43.9090
15.538216987, 96.390, 1913.0, 43.7379
15.564477553, 96.390, 1918.0, 43.7950
15.590738118, 96.390, 1880.0, 43.3590
15.616998683, 96.390, 1939.0, 44.0341
15.643259249, 96.390, 1872.0, 43.2666
15.669519814, 96.390, 1865.0, 43.1856
15.695780379, 96.390, 1967.0, 44.3509
15.722040945, 96.390, 2044.0, 45.2106
15.748301510, 96.390, 2048.0, 45.2548
15.774562075, 96.390, 1940.0, 44.0454
15.800822641, 96.390, 1884.0, 43.4051
15.827083206, 96.390, 1855.0, 43.0697
15.853343771, 96.390, 1770.0, 42.0714
15.879604337, 96.390, 1834.0, 42.8252
15.905864902, 96.390, 1779.0, 42.1782
15.932125468, 96.390, 1874.0, 43.2897
15.958386033, 96.390, 1683.0, 41.0244
15.984646598, 96.390, 1853.0, 43.0465
16.010907164, 96.390, 1788.0, 42.2847
16.037167729, 96.390, 1819.0, 42.6497
16.063428294, 96.390, 1785.0, 42.2493
16.089688860, 96.390, 1807.0, 42.5088
16.115949425, 96.390, 1856.0, 43.0813
16.142209990, 96.390, 1849.0, 43.0000
16.168470556, 96.390, 1770.0, 42.0714
16.194731121, 96.390, 1915.0, 43.7607
16.220991686, 96.390, 2049.0, 45.2659
16.247252252, 96.390, 2085.0, 45.6618
16.273512817, 96.390, 2226.0, 47.1805
16.299773382, 96.390, 2324.0, 48.2079
16.326033948, 96.390, 2570.0, 50.6952
16.352294513, 96.390, 2552.0, 50.5173
16.378555079, 96.390, 2248.0, 47.4131
16.404815644, 96.390, 1997.0, 44.6878
16.431076209, 96.390, 1928.0, 43.9090
16.457336775, 96.390, 1854.0, 43.0581
16.483597340, 96.390, 2015.0, 44.8888
16.509857905, 96.390, 1955.0, 44.2154
16.536118471, 96.390, 1932.0, 43.9545
16.562379036, 96.390, 1953.0, 44.1928
16.588639601, 96.390, 1772.0, 42.0951
16.614900167, 96.390, 1827.0, 42.7434
16.641160732, 96.390, 1762.0, 41.9762
16.667421297, 96.390, 1792.0, 42.3320
16.693681863, 96.390, 1793.0, 42.3438
16.719942428, 96.390, 1752.0, 41.8569
16.746202994, 96.390, 1816.0, 42.6146
16.772463559, 96.390, 1901.0, 43.6005
16.798724124, 96.390, 1822.0, 42.6849
16.824984690, 96.390, 1882.0, 43.3820
16.851245255, 96.390, 1893.0, 43.5086
16.877505820, 96.390, 1974.0, 44.4297
16.903766386, 96.390, 2039.0, 45.1553
16.930026951, 96.390, 1936.0, 44.0000
16.956287516, 96.390, 1811.0, 42.5558
16.982548082, 96.390, 1733.0, 41.6293
17.008808647, 96.390, 1801.0, 42.4382
17.035069212, 96.390, 1791.0, 42.3202
17.061329778, 96.390, 1702.0, 41.2553
17.087590343, 96.390, 1748.0, 41.8091
17.113850908, 96.390, 1680.0, 40.9878
17.140111474, 96.390, 1712.0, 41.3763
17.166372039, 96.390, 1664.0, 40.7922
17.192632605, 96.390, 1665.0, 40.8044
17.218893170, 96.390, 1722.0, 41.4970
17.245153735, 96.390, 1671.0, 40.8779
17.271414301, 96.390, 1652.0, 40.6448
17.297674866, 96.390, 1739.0, 41.7013
17.323935431, 96.390, 1733.0, 41.6293
17.350195997, 96.390, 1698.0, 41.2068
17.376456562, 96.390, 1742.0, 41.7373
17.402717127, 96.390, 1633.0, 40.4104
17.428977693, 96.390, 1672.0, 40.8901
17.455238258, 96.390, 1594.0, 39.9249
17.481498823, 96.390, 1690.0, 41.1096
17.507759389, 96.390, 1621.0, 40.2616
17.534019954, 96.390, 1658.0, 40.7185
17.560280520, 96.390, 1681.0, 41.0000
17.586541085, 96.390, 1725.0, 41.5331
17.612801650, 96.390, 1673.0, 40.9023
17.639062216, 96.390, 1710.0, 41.3521
17.665322781, 96.390, 1707.0, 41.3159
17.691583346, 96.390, 1697.0, 41.1947
17.717843912, 96.390, 1755.0, 41.8927
17.744104477, 96.390, 1766.0, 42.0238
17.770365042, 96.390, 1660.0, 40.7431
17.796625608, 96.390, 1748.0, 41.8091
17.822886173, 96.390, 1695.0, 41.1704
17.849146738, 96.390, 1728.0, 41.5692
17.875407304, 96.390, 1738.0, 41.6893
17.901667869, 96.390, 1710.0, 41.3521
17.927928434, 96.390, 1772.0, 42.0951
17.954189000, 96.390, 1586.0, 39.8246
17.980449565, 96.390, 1720.0, 41.4729
18.006710131, 96.390, 1693.0, 41.1461
18.032970696, 96.390, 1685.0, 41.0488
18.059231261, 96.390, 1704.0, 41.2795
18.085491827, 96.390, 1646.0, 40.5709
18.111752392, 96.390, 1717.0, 41.4367
18.138012957, 96.390, 1707.0, 41.3159
18.164273523, 96.390, 1692.0, 41.1339
18.190534088, 96.390, 1733.0, 41.6293
18.216794653, 96.390, 1705.0, 41.2916
18.243055219, 96.390, 1678.0, 40.9634
18.269315784, 96.390, 1634.0, 40.4228
18.295576349, 96.390, 1660.0, 40.7431
18.321836915, 96.390, 1690.0, 41.1096
18.348097480, 96.390, 1703.0, 41.2674
18.374358046, 96.390, 1675.0, 40.9268
18.400618611, 96.390, 1598.0, 39.9750
18.426879176, 96.390, 1656.0, 40.6940
18.453139742, 96.390, 1719.0, 41.4608
18.479400307, 96.390, 1700.0, 41.2311
18.505660872, 96.390, 1674.0, 40.9145
18.531921438, 96.390, 1645.0, 40.5586
18.558182003, 96.390, 1696.0, 41.1825
18.584442568, 96.390, 1721.0, 41.4849
18.610703134, 96.390, 1710.0, 41.3521
18.636963699, 96.390, 1693.0, 41.1461
18.663224264, 96.390, 1701.0, 41.2432
18.689484830, 96.390, 1765.0, 42.0119
18.715745395, 96.390, 1894.0, 43.5201
18.742005960, 96.390, 1839.0, 42.8836
18.768266526, 96.390, 1961.0, 44.2832
18.794527091, 96.390, 2073.0, 45.5302
18.820787657, 96.390, 2181.0, 46.7012
18.847048222, 96.390, 2347.0, 48.4458
18.873308787, 96.390, 2393.0, 48.9183
18.899569353, 96.390, 2577.0, 50.7642
18.925829918, 96.390, 2525.0, 50.2494
18.952090483, 96.390, 2481.0, 49.8096
18.978351049, 96.390, 2676.0, 51.7301
19.004611614, 96.390, 2518.0, 50.1797
19.030872179, 96.390, 2316.0, 48.1248
19.057132745, 96.390, 2149.0, 46.3573
19.083393310, 96.390, 1884.0, 43.4051
19.109653875, 96.390, 2001.0, 44.7325
19.135914441, 96.390, 1921.0, 43.8292
19.162175006, 96.390, 1893.0, 43.5086
19.188435572, 96.390, 1881.0, 43.3705
19.214696137, 96.390, 1784.0, 42.2374
19.240956702, 96.390, 1716.0, 41.4246
19.267217268, 96.390, 1847.0, 42.9767
19.293477833, 96.390, 1858.0, 43.1045
19.319738398, 96.390, 1916.0, 43.7721
19.345998964, 96.390, 1955.0, 44.2154
19.372259529, 96.390, 2086.0, 45.6727
19.398520094, 96.390, 2142.0, 46.2817
19.424780660, 96.390, 2234.0, 47.2652
19.451041225, 96.390, 2169.0, 46.5725
19.477301790, 96.390, 1980.0, 44.4972
19.503562356, 96.390, 2016.0, 44.8999
19.529822921, 96.390, 1892.0, 43.4971
19.556083486, 96.390, 1776.0, 42.1426
19.582344052, 96.390, 1849.0, 43.0000
19.608604617, 96.390, 1851.0, 43.0232
19.634865183, 96.390, 1943.0, 44.0795
19.661125748, 96.390, 1975.0, 44.4410
19.687386313, 96.390, 1950.0, 44.1588
19.713646879, 96.390, 1948.0, 44.1362
19.739907444, 96.390, 1935.0, 43.9886
19.766168009, 96.390, 1979.0, 44.4860
19.792428575, 96.390, 1964.0, 44.3170
19.818689140, 96.390, 2064.0, 45.4313
19.844949705, 96.390, 2008.0, 44.8107
19.871210271, 96.390, 2216.0, 47.0744
19.897470836, 96.390, 2492.0, 49.9199
19.923731401, 96.390, 2849.0, 53.3760
19.949991967, 96.390, 3112.0, 55.7853
19.976252532, 96.390, 3507.0, 59.2199
20.002513097, 96.390, 3019.0, 54.9454
20.028773663, 96.390, 2588.0, 50.8724
20.055034228, 96.390, 2260.0, 47.5395
20.081294794, 96.390, 2009.0, 44.8219
20.107555359, 96.390, 1870.0, 43.2435
20.133815924, 96.390, 1972.0, 44.4072
20.160076490, 96.390, 1899.0, 43.5775
20.186337055, 96.390, 2003.0, 44.7549
20.212597620, 96.390, 1883.0, 43.3935
20.238858186, 96.390, 1915.0, 43.7607
20.265118751, 96.390, 2019.0, 44.9333
20.291379316, 96.390, 1963.0, 44.3058
20.317639882, 96.390, 2008.0, 44.8107
20.343900447, 96.390, 2004.0, 44.7661
20.370161012, 96.390, 1998.0, 44.6990
20.396421578, 96.390, 2148.0, 46.3465
20.422682143, 96.390, 2092.0, 45.7384
20.448942709, 96.390, 2161.0, 46.4866
20.475203274, 96.390, 2199.0, 46.8935
20.501463839, 96.390, 2268.0, 47.6235
20.527724405, 96.390, 2315.0, 48.1144
20.553984970, 96.390, 2472.0, 49.7192
20.580245535, 96.390, 2661.0, 51.5849
20.606506101, 96.390, 3107.0, 55.7405
20.632766666, 96.390, 3639.0, 60.3241
20.659027231, 96.390, 4277.0, 65.3988
20.685287797, 96.390, 5127.0, 71.6031
20.711548362, 96.390, 5849.0, 76.4788
20.737808927, 96.390, 5548.0, 74.4849
20.764069493, 96.390, 4532.0, 67.3201
20.790330058, 96.390, 3524.0, 59.3633
20.816590623, 96.390, 2771.0, 52.6403
20.842851189, 96.390, 2397.0, 48.9592
20.869111754, 96.390, 2330.0, 48.2701
20.895372320, 96.390, 2145.0, 46.3141
20.921632885, 96.390, 2248.0, 47.4131
20.947893450, 96.390, 2166.0, 46.5403
20.974154016, 96.390, 2106.0, 45.8912
21.000414581, 96.390, 2143.0, 46.2925
21.026675146, 96.390, 2205.0, 46.9574
21.052935712, 96.390, 2122.0, 46.0652
21.079196277, 96.390, 2145.0, 46.3141
21.105456842, 96.390, 2140.0, 46.2601
21.131717408, 96.390, 2087.0, 45.6837
21.157977973, 96.390, 2134.0, 46.1952
21.184238538, 96.390, 2109.0, 45.9239
21.210499104, 96.390, 2209.0, 47.0000
21.236759669, 96.390, 2295.0, 47.9062
21.263020235, 96.390, 2305.0, 48.0104
21.289280800, 96.390, 2381.0, 48.7955
21.315541365, 96.390, 2590.0, 50.8920
21.341801931, 96.390, 2696.0, 51.9230
21.368062496, 96.390, 2488.0, 49.8799
21.394323061, 96.390, 2424.0, 49.2341
21.420583627, 96.390, 2336.0, 48.3322
21.446844192, 96.390, 2435.0, 49.3457
21.473104757, 96.390, 2278.0, 47.7284
21.499365323, 96.390, 2342.0, 48.3942
21.525625888, 96.390, 2483.0, 49.8297
21.551886453, 96.390, 2489.0, 49.8899
21.578147019, 96.390, 2736.0, 52.3068
21.604407584, 96.390, 2773.0, 52.6593
21.630668149, 96.390, 2909.0, 53.9351
21.656928715, 96.390, 2849.0, 53.3760
21.683189280, 96.390, 2646.0, 51.4393
21.709449846, 96.390, 2583.0, 50.8232
21.735710411, 96.390, 2372.0, 48.7032
21.761970976, 96.390, 2353.0, 48.5077
21.788231542, 96.390, 2308.0, 48.0416
21.814492107, 96.390, 2382.0, 48.8057
21.840752672, 96.390, 2265.0, 47.5920
21.867013238, 96.390, 2381.0, 48.7955
21.893273803, 96.390, 2442.0, 49.4166
21.919534368, 96.390, 2352.0, 48.4974
21.945794934, 96.390, 2410.0, 49.0918
21.972055499, 96.390, 2379.0, 48.7750
21.998316064, 96.390, 2402.0, 49.0102
22.024576630, 96.390, 2506.0, 50.0600
22.050837195, 96.390, 2488.0, 49.8799
22.077097761, 96.390, 2446.0, 49.4571
22.103358326, 96.390, 2559.0, 50.5866
22.129618891, 96.390, 2556.0, 50.5569
22.155879457, 96.390, 2642.0, 51.4004
22.182140022, 96.390, 2576.0, 50.7543
22.208400587, 96.390, 2593.0, 50.9215
22.234661153, 96.390, 2537.0, 50.3686
22.260921718, 96.390, 2618.0, 51.1664
22.287182283, 96.390, 2549.0, 50.4876
22.313442849, 96.390, 2651.0, 51.4879
22.339703414, 96.390, 2563.0, 50.6261
22.365963979, 96.390, 2459.0, 49.5883
22.392224545, 96.390, 2624.0, 51.2250
22.418485110, 96.390, 2625.0, 51.2348
22.444745675, 96.390, 2607.0, 51.0588
22.471006241, 96.390, 2695.0, 51.9134
22.497266806, 96.390, 2549.0, 50.4876
22.523527372, 96.390, 2592.0, 50.9117
22.549787937, 96.390, 2635.0, 51.3323
22.576048502, 96.390, 2733.0, 52.2781
22.602309068, 96.390, 2739.0, 52.3355
22.628569633, 96.390, 2784.0, 52.7636
22.654830198, 96.390, 2782.0, 52.7447
22.681090764, 96.390, 2812.0, 53.0283
22.707351329, 96.390, 2767.0, 52.6023
22.733611894, 96.390, 2786.0, 52.7826
22.759872460, 96.390, 2767.0, 52.6023
22.786133025, 96.390, 2904.0, 53.8888
22.812393590, 96.390, 3055.0, 55.2721
22.838654156, 96.390, 3141.0, 56.0446
22.864914721, 96.390, 3143.0, 56.0625
22.891175287, 96.390, 3258.0, 57.0789
22.917435852, 96.390, 3016.0, 54.9181
22.943696417, 96.390, 2884.0, 53.7029
22.969956983, 96.390, 2794.0, 52.8583
22.996217548, 96.390, 2889.0, 53.7494
23.022478113, 96.390, 2855.0, 53.4322
23.048738679, 96.390, 2815.0, 53.0566
23.074999244, 96.390, 2799.0, 52.9056
23.101259809, 96.390, 2784.0, 52.7636
23.127520375, 96.390, 2829.0, 53.1883
23.153780940, 96.390, 2961.0, 54.4151
23.180041505, 96.390, 3105.0, 55.7225
23.206302071, 96.390, 3179.0, 56.3826
23.232562636, 96.390, 3025.0, 55.0000
23.258823201, 96.390, 2794.0, 52.8583
23.285083767, 96.390, 2728.0, 52.2303
23.311344332, 96.390, 2603.0, 51.0196
23.337604898, 96.390, 2743.0, 52.3737
23.363865463, 96.390, 2855.0, 53.4322
23.390126028, 96.390, 2787.0, 52.7920
23.416386594, 96.390, 2693.0, 51.8941
23.442647159, 96.390, 2536.0, 50.3587
23.468907724, 96.390, 2503.0, 50.0300
23.495168290, 96.390, 2278.0, 47.7284
23.521428855, 96.390, 2322.0, 48.1871
23.547689420, 96.390, 2414.0, 49.1325
23.573949986, 96.390, 2476.0, 49.7594
23.600210551, 96.390, 2443.0, 49.4267
23.626471116, 96.390, 2341.0, 48.3839
23.652731682, 96.390, 2295.0, 47.9062
23.678992247, 96.390, 2144.0, 46.3033
23.705252813, 96.390, 2148.0, 46.3465
23.731513378, 96.390, 2111.0, 45.9456
23.757773943, 96.390, 1964.0, 44.3170
23.784034509, 96.390, 2136.0, 46.2169
23.810295074, 96.390, 2120.0, 46.0435
23.836555639, 96.390, 2004.0, 44.7661
23.862816205, 96.390, 2075.0, 45.5522
23.889076770, 96.390, 2080.0, 45.6070
23.915337335, 96.390, 2072.0, 45.5192
23.941597901, 96.390, 2013.0, 44.8665
23.967858466, 96.390, 2042.0, 45.1885
23.994119031, 96.390, 2051.0, 45.2880
24.020379597, 96.390, 1976.0, 44.4522
24.046640162, 96.390, 2004.0, 44.7661
24.072900727, 96.390, 2038.0, 45.1442
24.099161293, 96.390, 2010.0, 44.8330
24.125421858, 96.390, 2131.0, 46.1628
24.151682424, 96.390, 2080.0, 45.6070
24.177942989, 96.390, 2144.0, 46.3033
24.204203554, 96.390, 2231.0, 47.2335
24.230464120, 96.390, 1985.0, 44.5533
24.256724685, 96.390, 1933.0, 43.9659
24.282985250, 96.390, 1820.0, 42.6615
24.309245816, 96.390, 1811.0, 42.5558
24.335506381, 96.390, 1846.0, 42.9651
24.361766946, 96.390, 1775.0, 42.1307
24.388027512, 96.390, 1741.0, 41.7253
24.414288077, 96.390, 1743.0, 41.7493
24.440548642, 96.390, 1840.0, 42.8952
24.466809208, 96.390, 1701.0, 41.2432
24.493069773, 96.390, 1757.0, 41.9166
24.519330338, 96.390, 1658.0, 40.7185
24.545590904, 96.390, 1727.0, 41.5572
24.571851469, 96.390, 1753.0, 41.8688
24.598112035, 96.390, 1791.0, 42.3202
24.624372600, 96.390, 1804.0, 42.4735
24.650633165, 96.390, 1674.0, 40.9145
24.676893731, 96.390, 1685.0, 41.0488
24.703154296, 96.390, 1655.0, 40.6817
24.729414861, 96.390, 1667.0, 40.8289
24.755675427, 96.390, 1711.0, 41.3642
24.781935992, 96.390, 1733.0, 41.6293
24.808196557, 96.390, 1693.0, 41.1461
24.834457123, 96.390, 1732.0, 41.6173
24.860717688, 96.390, 1716.0, 41.4246
24.886978253, 96.390, 1747.0, 41.7971
24.913238819, 96.390, 1668.0, 40.8412
24.939499384, 96.390, 1630.0, 40.3733
24.965759950, 96.390, 1608.0, 40.0999
24.992020515, 96.390, 1705.0, 41.2916
25.018281080, 96.390, 1638.0, 40.4722
25.044541646, 96.390, 1678.0, 40.9634
25.070802211, 96.390, 1595.0, 39.9375
25.097062776, 96.390, 1505.0, 38.7943
25.123323342, 96.390, 1570.0, 39.6232
25.149583907, 96.390, 1542.0, 39.2683
25.175844472, 96.390, 1615.0, 40.1871
25.202105038, 96.390, 1521.0, 39.0000
25.228365603, 96.390, 1554.0, 39.4208
25.254626168, 96.390, 1543.0, 39.2810
25.280886734, 96.390, 1617.0, 40.2119
25.307147299, 96.390, 1737.0, 41.6773
25.333407864, 96.390, 1654.0, 40.6694
25.359668430, 96.390, 1741.0, 41.7253
25.385928995, 96.390, 1947.0, 44.1248
25.412189561, 96.390, 2095.0, 45.7712
25.438450126, 96.390, 2317.0, 48.1352
25.464710691, 96.390, 2224.0, 47.1593
25.490971257, 96.390, 2170.0, 46.5833
25.517231822, 96.390, 1938.0, 44.0227
25.543492387, 96.390, 1736.0, 41.6653
25.569752953, 96.390, 1642.0, 40.5216
25.596013518, 96.390, 1613.0, 40.1622
25.622274083, 96.390, 1646.0, 40.5709
25.648534649, 96.390, 1582.0, 39.7744
25.674795214, 96.390, 1461.0, 38.2230
25.701055779, 96.390, 1515.0, 38.9230
25.727316345, 96.390, 1516.0, 38.9358
25.753576910, 96.390, 1468.0, 38.3145
25.779837476, 96.390, 1563.0, 39.5348
25.806098041, 96.390, 1539.0, 39.2301
25.832358606, 96.390, 1466.0, 38.2884
25.858619172, 96.390, 1503.0, 38.7685
25.884879737, 96.390, 1501.0, 38.7427
25.911140302, 96.390, 1554.0, 39.4208
25.937400868, 96.390, 1527.0, 39.0768
25.963661433, 96.390, 1610.0, 40.1248
25.989921998, 96.390, 1567.0, 39.5854
26.016182564, 96.390, 1596.0, 39.9500
26.042443129, 96.390, 1530.0, 39.1152
26.068703694, 96.390, 1526.0, 39.0640
26.094964260, 96.390, 1577.0, 39.7115
26.121224825, 96.390, 1547.0, 39.3319
26.147485390, 96.390, 1500.0, 38.7298
26.173745956, 96.390, 1583.0, 39.7869
26.200006521, 96.390, 1530.0, 39.1152
26.226267087, 96.390, 1462.0, 38.2361
26.252527652, 96.390, 1523.0, 39.0256
26.278788217, 96.390, 1536.0, 39.1918
26.305048783, 96.390, 1563.0, 39.5348
26.331309348, 96.390, 1505.0, 38.7943
26.357569913, 96.390, 1547.0, 39.3319
26.383830479, 96.390, 1543.0, 39.2810
26.410091044, 96.390, 1526.0, 39.0640
26.436351609, 96.390, 1544.0, 39.2938
26.462612175, 96.390, 1519.0, 38.9744
26.488872740, 96.390, 1564.0, 39.5474
26.515133305, 96.390, 1534.0, 39.1663
26.541393871, 96.390, 1490.0, 38.6005
26.567654436, 96.390, 1548.0, 39.3446
26.593915002, 96.390, 1531.0, 39.1280
26.620175567, 96.390, 1608.0, 40.0999
26.646436132, 96.390, 1535.0, 39.1791
26.672696698, 96.390, 1574.0, 39.6737
26.698957263, 96.390, 1658.0, 40.7185
26.725217828, 96.390, 1882.0, 43.3820
26.751478394, 96.390, 1985.0, 44.5533
26.777738959, 96.390, 2103.0, 45.8585
26.803999524, 96.390, 2371.0, 48.6929
26.830260090, 96.390, 2428.0, 49.2747
26.856520655, 96.390, 2214.0, 47.0532
26.882781220, 96.390, 2180.0, 46.6905
26.909041786, 96.390, 1979.0, 44.4860
26.935302351, 96.390, 1858.0, 43.1045
26.961562916, 96.390, 1834.0, 42.8252
26.987823482, 96.390, 2038.0, 45.1442
27.014084047, 96.390, 2147.0, 46.3357
27.040344613, 96.390, 2346.0, 48.4355
27.066605178, 96.390, 2510.0, 50.0999
27.092865743, 96.390, 2605.0, 51.0392
27.119126309, 96.390, 2706.0, 52.0192
27.145386874, 96.390, 2949.0, 54.3047
27.171647439, 96.390, 3300.0, 57.4456
27.197908005, 96.390, 3717.0, 60.9672
27.224168570, 96.390, 3708.0, 60.8933
27.250429135, 96.390, 3424.0, 58.5150
27.276689701, 96.390, 3216.0, 56.7098
27.302950266, 96.390, 2676.0, 51.7301
27.329210831, 96.390, 2317.0, 48.1352
27.355471397, 96.390, 1974.0, 44.4297
27.381731962, 96.390, 1834.0, 42.8252
27.407992528, 96.390, 1677.0, 40.9512
27.434253093, 96.390, 1745.0, 41.7732
27.460513658, 96.390, 1613.0, 40.1622
27.486774224, 96.390, 1514.0, 38.9102
27.513034789, 96.390, 1554.0, 39.4208
27.539295354, 96.390, 1520.0, 38.9872
27.565555920, 96.390, 1531.0, 39.1280
27.591816485, 96.390, 1517.0, 38.9487
27.618077050, 96.390, 1497.0, 38.6911
27.644337616, 96.390, 1548.0, 39.3446
27.670598181, 96.390, 1521.0, 39.0000
27.696858746, 96.390, 1485.0, 38.5357
27.723119312, 96.390, 1504.0, 38.7814
27.749379877, 96.390, 1469.0, 38.3275
27.775640442, 96.390, 1551.0, 39.3827
27.801901008, 96.390, 1554.0, 39.4208
27.828161573, 96.390, 1515.0, 38.9230
27.854422139, 96.390, 1480.0, 38.4708
27.880682704, 96.390, 1517.0, 38.9487
27.906943269, 96.390, 1429.0, 37.8021
27.933203835, 96.390, 1544.0, 39.2938
27.959464400, 96.390, 1624.0, 40.2989
27.985724965, 96.390, 1544.0, 39.2938
28.011985531, 96.390, 1553.0, 39.4081
28.038246096, 96.390, 1659.0, 40.7308
28.064506661, 96.390, 1648.0, 40.5956
28.090767227, 96.390, 1576.0, 39.6989
28.117027792, 96.390, 1535.0, 39.1791
28.143288357, 96.390, 1620.0, 40.2492
28.169548923, 96.390, 1582.0, 39.7744
28.195809488, 96.390, 1547.0, 39.3319
28.222070054, 96.390, 1579.0, 39.7366
28.248330619, 96.390, 1525.0, 39.0512
28.274591184, 96.390, 1548.0, 39.3446
28.300851750, 96.390, 1488.0, 38.5746
28.327112315, 96.390, 1601.0, 40.0125
28.353372880, 96.390, 1664.0, 40.7922
28.379633446, 96.390, 1695.0, 41.1704
28.405894011, 96.390, 1730.0, 41.5933
28.432154576, 96.390, 1598.0, 39.9750
28.458415142, 96.390, 1688.0, 41.0853
28.484675707, 96.390, 1612.0, 40.1497
28.510936272, 96.390, 1663.0, 40.7799
28.537196838, 96.390, 1595.0, 39.9375
28.563457403, 96.390, 1625.0, 40.3113
28.589717968, 96.390, 1541.0, 39.2556
28.615978534, 96.390, 1630.0, 40.3733
28.642239099, 96.390, 1646.0, 40.5709
28.668499665, 96.390, 1665.0, 40.8044
28.694760230, 96.390, 1643.0, 40.5339
28.721020795, 96.390, 1763.0, 41.9881
28.747281361, 96.390, 1709.0, 41.3401
28.773541926, 96.390, 1813.0, 42.5793
28.799802491, 96.390, 1718.0, 41.4488
28.826063057, 96.390, 1644.0, 40.5463
28.852323622, 96.390, 1684.0, 41.0366
28.878584187, 96.390, 1675.0, 40.9268
28.904844753, 96.390, 1519.0, 38.9744
28.931105318, 96.390, 1602.0, 40.0250
28.957365883, 96.390, 1649.0, 40.6079
28.983626449, 96.390, 1685.0, 41.0488
29.009887014, 96.390, 1664.0, 40.7922
29.036147579, 96.390, 1838.0, 42.8719
29.062408145, 96.390, 1862.0, 43.1509
29.088668710, 96.390, 2016.0, 44.8999
29.114929276, 96.390, 2087.0, 45.6837
29.141189841, 96.390, 2188.0, 46.7761
29.167450406, 96.390, 2193.0, 46.8295
29.193710972, 96.390, 2256.0, 47.4974
29.219971537, 96.390, 2181.0, 46.7012
29.246232102, 96.390, 2348.0, 48.4562
29.272492668, 96.390, 2497.0, 49.9700
29.298753233, 96.390, 2599.0, 50.9804
29.325013798, 96.390, 2839.0, 53.2823
29.351274364, 96.390, 2736.0, 52.3068
29.377534929, 96.390, 2387.0, 48.8569
29.403795494, 96.390, 2357.0, 48.5489
29.430056060, 96.390, 2300.0, 47.9583
29.456316625, 96.390, 2159.0, 46.4650
29.482577191, 96.390, 2306.0, 48.0208
29.508837756, 96.390, 2438.0, 49.3761
29.535098321, 96.390, 2285.0, 47.8017
29.561358887, 96.390, 2198.0, 46.8828
29.587619452, 96.390, 1984.0, 44.5421
29.613880017, 96.390, 1954.0, 44.2041
29.640140583, 96.390, 1871.0, 43.2551
29.666401148, 96.390, 1724.0, 41.5211
29.692661713, 96.390, 1736.0, 41.6653
29.718922279, 96.390, 1781.0, 42.2019
29.745182844, 96.390, 1787.0, 42.2729
29.771443409, 96.390, 1733.0, 41.6293
29.797703975, 96.390, 1622.0, 40.2741
29.823964540, 96.390, 1544.0, 39.2938
29.850225105, 96.390, 1493.0, 38.6394
29.876485671, 96.390, 1537.0, 39.2046
29.902746236, 96.390, 1574.0, 39.6737
29.929006802, 96.390, 1610.0, 40.1248
29.955267367, 96.390, 1585.0, 39.8121
29.981527932, 96.390, 1599.0, 39.9875
30.007788498, 96.390, 1556.0, 39.4462
30.034049063, 96.390, 1570.0, 39.6232
30.060309628, 96.390, 1646.0, 40.5709
30.086570194, 96.390, 1606.0, 40.0749
30.112830759, 96.390, 1526.0, 39.0640
30.139091324, 96.390, 1554.0, 39.4208
30.165351890, 96.390, 1550.0, 39.3700
30.191612455, 96.390, 1559.0, 39.4842
30.217873020, 96.390, 1559.0, 39.4842
30.244133586, 96.390, 1580.0, 39.7492
30.270394151, 96.390, 1532.0, 39.1408
30.296654717, 96.390, 1517.0, 38.9487
30.322915282, 96.390, 1510.0, 38.8587
30.349175847, 96.390, 1527.0, 39.0768
30.375436413, 96.390, 1517.0, 38.9487
30.401696978, 96.390, 1543.0, 39.2810
30.427957543, 96.390, 1580.0, 39.7492
30.454218109, 96.390, 1508.0, 38.8330
30.480478674, 96.390, 1530.0, 39.1152
30.506739239, 96.390, 1554.0, 39.4208
30.532999805, 96.390, 1622.0, 40.2741
30.559260370, 96.390, 1557.0, 39.4588
30.585520935, 96.390, 1624.0, 40.2989
30.611781501, 96.390, 1761.0, 41.9643
30.638042066, 96.390, 1896.0, 43.5431
30.664302631, 96.390, 1961.0, 44.2832
30.690563197, 96.390, 2013.0, 44.8665
30.716823762, 96.390, 1812.0, 42.5676
30.743084328, 96.390, 1927.0, 43.8976
30.769344893, 96.390, 1883.0, 43.3935
30.795605458, 96.390, 1945.0, 44.1022
30.821866024, 96.390, 1992.0, 44.6318
30.848126589, 96.390, 2036.0, 45.1221
30.874387154, 96.390, 1995.0, 44.6654
30.900647720, 96.390, 1881.0, 43.3705
30.926908285, 96.390, 1860.0, 43.1277
30.953168850, 96.390, 1793.0, 42.3438
30.979429416, 96.390, 1651.0, 40.6325
31.005689981, 96.390, 1668.0, 40.8412
31.031950546, 96.390, 1677.0, 40.9512
31.058211112, 96.390, 1662.0, 40.7676
31.084471677, 96.390, 1769.0, 42.0595
31.110732243, 96.390, 1772.0, 42.0951
31.136992808, 96.390, 2002.0, 44.7437
31.163253373, 96.390, 2244.0, 47.3709
31.189513939, 96.390, 2484.0, 49.8397
31.215774504, 96.390, 2700.0, 51.9615
31.242035069, 96.390, 2867.0, 53.5444
31.268295635, 96.390, 2689.0, 51.8556
31.294556200, 96.390, 2740.0, 52.3450
31.320816765, 96.390, 2610.0, 51.0882
31.347077331, 96.390, 2541.0, 50.4083
31.373337896, 96.390, 2401.0, 49.0000
31.399598461, 96.390, 2430.0, 49.2950
31.425859027, 96.390, 2178.0, 46.6690
31.452119592, 96.390, 2139.0, 46.2493
31.478380157, 96.390, 2009.0, 44.8219
31.504640723, 96.390, 2047.0, 45.2438
31.530901288, 96.390, 2051.0, 45.2880
31.557161854, 96.390, 1943.0, 44.0795
31.583422419, 96.390, 1971.0, 44.3959
31.609682984, 96.390, 1868.0, 43.2204
31.635943550, 96.390, 1784.0, 42.2374
31.662204115, 96.390, 1747.0, 41.7971
31.688464680, 96.390, 1721.0, 41.4849
31.714725246, 96.390, 1680.0, 40.9878
31.740985811, 96.390, 1671.0, 40.8779
31.767246376, 96.390, 1658.0, 40.7185
31.793506942, 96.390, 1610.0, 40.1248
31.819767507, 96.390, 1647.0, 40.5832
31.846028072, 96.390, 1671.0, 40.8779
31.872288638, 96.390, 1777.0, 42.1545
31.898549203, 96.390, 1918.0, 43.7950
31.924809769, 96.390, 2088.0, 45.6946
31.951070334, 96.390, 2349.0, 48.4665
31.977330899, 96.390, 2962.0, 54.4243
32.003591465, 96.390, 3566.0, 59.7160
32.029852030, 96.390, 4349.0, 65.9469
32.056112595, 96.390, 4797.0, 69.2604
32.082373161, 96.390, 4584.0, 67.7052
32.108633726, 96.390, 4002.0, 63.2614
32.134894291, 96.390, 3546.0, 59.5483
32.161154857, 96.390, 3304.0, 57.4804
32.187415422, 96.390, 2769.0, 52.6213
32.213675987, 96.390, 2527.0, 50.2693
32.239936553, 96.390, 2618.0, 51.1664
32.266197118, 96.390, 2918.0, 54.0185
32.292457683, 96.390, 3018.0, 54.9363
32.318718249, 96.390, 2853.0, 53.4135
32.344978814, 96.390, 2494.0, 49.9400
32.371239380, 96.390, 2404.0, 49.0306
32.397499945, 96.390, 2264.0, 47.5815
32.423760510, 96.390, 2182.0, 46.7119
32.450021076, 96.390, 2116.0, 46.0000
32.476281641, 96.390, 2203.0, 46.9361
32.502542206, 96.390, 2062.0, 45.4093
32.528802772, 96.390, 1950.0, 44.1588
32.555063337, 96.390, 1914.0, 43.7493
32.581323902, 96.390, 1869.0, 43.2319
32.607584468, 96.390, 1667.0, 40.8289
32.633845033, 96.390, 1810.0, 42.5441
32.660105598, 96.390, 1794.0, 42.3556
32.686366164, 96.390, 1716.0, 41.4246
32.712626729, 96.390, 1711.0, 41.3642
32.738887295, 96.390, 1703.0, 41.2674
32.765147860, 96.390, 1702.0, 41.2553
32.791408425, 96.390, 1682.0, 41.0122
32.817668991, 96.390, 1636.0, 40.4475
32.843929556, 96.390, 1621.0, 40.2616
32.870190121, 96.390, 1646.0, 40.5709
32.896450687, 96.390, 1583.0, 39.7869
32.922711252, 96.390, 1704.0, 41.2795
32.948971817, 96.390, 1666.0, 40.8167
32.975232383, 96.390, 1760.0, 41.9524
33.001492948, 96.390, 1779.0, 42.1782
33.027753513, 96.390, 1781.0, 42.2019
33.054014079, 96.390, 1838.0, 42.8719
33.080274644, 96.390, 1870.0, 43.2435
33.106535209, 96.390, 1831.0, 42.7902
33.132795775, 96.390, 1858.0, 43.1045
33.159056340, 96.390, 1865.0, 43.1856
33.185316906, 96.390, 1977.0, 44.4635
33.211577471, 96.390, 1954.0, 44.2041
33.237838036, 96.390, 2042.0, 45.1885
33.264098602, 96.390, 2131.0, 46.1628
33.290359167, 96.390, 2192.0, 46.8188
33.316619732, 96.390, 2185.0, 46.7440
33.342880298, 96.390, 2136.0, 46.2169
33.369140863, 96.390, 2179.0, 46.6798
33.395401428, 96.390, 2154.0, 46.4112
33.421661994, 96.390, 2123.0, 46.0760
33.447922559, 96.390, 2052.0, 45.2990
33.474183124, 96.390, 2251.0, 47.4447
33.500443690, 96.390, 2259.0, 47.5289
33.526704255, 96.390, 2292.0, 47.8748
33.552964820, 96.390, 2374.0, 48.7237
33.579225386, 96.390, 2409.0, 49.0816
33.605485951, 96.390, 2372.0, 48.7032
33.631746517, 96.390, 2401.0, 49.0000
33.658007082, 96.390, 2436.0, 49.3559
33.684267647, 96.390, 2438.0, 49.3761
33.710528213, 96.390, 2381.0, 48.7955
33.736788778, 96.390, 2302.0, 47.9792
33.763049343, 96.390, 2413.0, 49.1223
33.789309909, 96.390, 2398.0, 48.9694
33.815570474, 96.390, 2433.0, 49.3254
33.841831039, 96.390, 2480.0, 49.7996
33.868091605, 96.390, 2657.0, 51.5461
33.894352170, 96.390, 3062.0, 55.3353
33.920612735, 96.390, 3096.0, 55.6417
33.946873301, 96.390, 3547.0, 59.5567
33.973133866, 96.390, 3719.0, 60.9836
33.999394432, 96.390, 3723.0, 61.0164
34.025654997, 96.390, 3548.0, 59.5651
34.051915562, 96.390, 3518.0, 59.3127
34.078176128, 96.390, 3348.0, 57.8619
34.104436693, 96.390, 3339.0, 57.7841
34.130697258, 96.390, 3131.0, 55.9553
34.156957824, 96.390, 3107.0, 55.7405
34.183218389, 96.390, 3123.0, 55.8838
34.209478954, 96.390, 3136.0, 56.0000
34.235739520, 96.390, 3032.0, 55.0636
34.262000085, 96.390, 3108.0, 55.7494
34.288260650, 96.390, 3058.0, 55.2992
34.314521216, 96.390, 2996.0, 54.7357
34.340781781, 96.390, 3102.0, 55.6956
34.367042346, 96.390, 3140.0, 56.0357
34.393302912, 96.390, 3154.0, 56.1605
34.419563477, 96.390, 3483.0, 59.0169
34.445824043, 96.390, 3387.0, 58.1979
34.472084608, 96.390, 3633.0, 60.2744
34.498345173, 96.390, 3772.0, 61.4166
34.524605739, 96.390, 3734.0, 61.1065
34.550866304, 96.390, 3841.0, 61.9758
34.577126869, 96.390, 3882.0, 62.3057
34.603387435, 96.390, 3978.0, 63.0714
34.629648000, 96.390, 3708.0, 60.8933
34.655908565, 96.390, 3493.0, 59.1016
34.682169131, 96.390, 3257.0, 57.0701
34.708429696, 96.390, 3318.0, 57.6021
34.734690261, 96.390, 3133.0, 55.9732
34.760950827, 96.390, 3029.0, 55.0364
34.787211392, 96.390, 3148.0, 56.1070
34.813471958, 96.390, 3080.0, 55.4977
34.839732523, 96.390, 3231.0, 56.8419
34.865993088, 96.390, 3379.0, 58.1292
34.892253654, 96.390, 3660.0, 60.4979
34.918514219, 96.390, 3877.0, 62.2656
34.944774784, 96.390, 4002.0, 63.2614
34.971035350, 96.390, 3598.0, 59.9833
34.997295915, 96.390, 3509.0, 59.2368
35.023556480, 96.390, 3521.0, 59.3380
35.049817046, 96.390, 3306.0, 57.4978
35.076077611, 96.390, 2984.0, 54.6260
35.102338176, 96.390, 3062.0, 55.3353
35.128598742, 96.390, 2924.0, 54.0740
35.154859307, 96.390, 2844.0, 53.3292
35.181119872, 96.390, 3065.0, 55.3624
35.207380438, 96.390, 3022.0, 54.9727
35.233641003, 96.390, 2950.0, 54.3139
35.259901569, 96.390, 2923.0, 54.0648
35.286162134, 96.390, 2775.0, 52.6783
35.312422699, 96.390, 2755.0, 52.4881
35.338683265, 96.390, 2676.0, 51.7301
35.364943830, 96.390, 2784.0, 52.7636
35.391204395, 96.390, 2532.0, 50.3190
35.417464961, 96.390, 2576.0, 50.7543
35.443725526, 96.390, 2576.0, 50.7543
35.469986091, 96.390, 2492.0, 49.9199
35.496246657, 96.390, 2488.0, 49.8799
35.522507222, 96.390, 2565.0, 50.6458
35.548767787, 96.390, 2539.0, 50.3885
35.575028353, 96.390, 2425.0, 49.2443
35.601288918, 96.390, 2586.0, 50.8527
35.627549484, 96.390, 2612.0, 51.1077
35.653810049, 96.390, 2646.0, 51.4393
35.680070614, 96.390, 2626.0, 51.2445
35.706331180, 96.390, 2512.0, 50.1199
35.732591745, 96.390, 2595.0, 50.9411
35.758852310, 96.390, 2520.0, 50.1996
35.785112876, 96.390, 2545.0, 50.4480
35.811373441, 96.390, 2701.0, 51.9711
35.837634006, 96.390, 2596.0, 50.9510
35.863894572, 96.390, 2783.0, 52.7541
35.890155137, 96.390, 2977.0, 54.5619
35.916415702, 96.390, 3012.0, 54.8817
35.942676268, 96.390, 3188.0, 56.4624
35.968936833, 96.390, 3168.0, 56.2850
35.995197398, 96.390, 2928.0, 54.1110
36.021457964, 96.390, 2969.0, 54.4885
36.047718529, 96.390, 2935.0, 54.1756
36.073979095, 96.390, 2905.0, 53.8981
36.100239660, 96.390, 2903.0, 53.8795
36.126500225, 96.390, 2973.0, 54.5252
36.152760791, 96.390, 3205.0, 56.6127
36.179021356, 96.390, 3447.0, 58.7112
36.205281921, 96.390, 3551.0, 59.5903
36.231542487, 96.390, 3478.0, 58.9746
36.257803052, 96.390, 3221.0, 56.7539
36.284063617, 96.390, 2988.0, 54.6626
36.310324183, 96.390, 2789.0, 52.8110
36.336584748, 96.390, 2573.0, 50.7247
36.362845313, 96.390, 2442.0, 49.4166
36.389105879, 96.390, 2273.0, 47.6760
36.415366444, 96.390, 2208.0, 46.9894
36.441627010, 96.390, 2254.0, 47.4763
36.467887575, 96.390, 2206.0, 46.9681
36.494148140, 96.390, 2218.0, 47.0956
36.520408706, 96.390, 2244.0, 47.3709
36.546669271, 96.390, 2224.0, 47.1593
36.572929836, 96.390, 2218.0, 47.0956
36.599190402, 96.390, 2355.0, 48.5283
36.625450967, 96.390, 2361.0, 48.5901
36.651711532, 96.390, 2297.0, 47.9270
36.677972098, 96.390, 2225.0, 47.1699
36.704232663, 96.390, 2251.0, 47.4447
36.730493228, 96.390, 2271.0, 47.6550
36.756753794, 96.390, 2278.0, 47.7284
36.783014359, 96.390, 2073.0, 45.5302
36.809274924, 96.390, 2172.0, 46.6047
36.835535490, 96.390, 2190.0, 46.7974
36.861796055, 96.390, 2191.0, 46.8081
36.888056621, 96.390, 2133.0, 46.1844
36.914317186, 96.390, 2152.0, 46.3897
36.940577751, 96.390, 2163.0, 46.5081
36.966838317, 96.390, 2142.0, 46.2817
36.993098882, 96.390, 2180.0, 46.6905
37.019359447, 96.390, 2116.0, 46.0000
37.045620013, 96.390, 2172.0, 46.6047
37.071880578, 96.390, 2177.0, 46.6583
37.098141143, 96.390, 2222.0, 47.1381
37.124401709, 96.390, 2220.0, 47.1169
37.150662274, 96.390, 2196.0, 46.8615
37.176922839, 96.390, 2153.0, 46.4004
37.203183405, 96.390, 2271.0, 47.6550
37.229443970, 96.390, 2192.0, 46.8188
37.255704535, 96.390, 2291.0, 47.8644
37.281965101, 96.390, 2266.0, 47.6025
37.308225666, 96.390, 2345.0, 48.4252
37.334486232, 96.390, 2244.0, 47.3709
37.360746797, 96.390, 2241.0, 47.3392
37.387007362, 96.390, 2235.0, 47.2758
37.413267928, 96.390, 2270.0, 47.6445
37.439528493, 96.390, 2309.0, 48.0521
37.465789058, 96.390, 2449.0, 49.4874
37.492049624, 96.390, 2509.0, 50.0899
37.518310189, 96.390, 2475.0, 49.7494
37.544570754, 96.390, 2521.0, 50.2096
37.570831320, 96.390, 2473.0, 49.7293
37.597091885, 96.390, 2520.0, 50.1996
37.623352450, 96.390, 2506.0, 50.0600
37.649613016, 96.390, 2504.0, 50.0400
37.675873581, 96.390, 2486.0, 49.8598
37.702134147, 96.390, 2688.0, 51.8459
37.728394712, 96.390, 2712.0, 52.0769
37.754655277, 96.390, 2855.0, 53.4322
37.780915843, 96.390, 2954.0, 54.3507
37.807176408, 96.390, 3183.0, 56.4181
37.833436973, 96.390, 3348.0, 57.8619
37.859697539, 96.390, 3583.0, 59.8582
37.885958104, 96.390, 3463.0, 58.8473
37.912218669, 96.390, 3248.0, 56.9912
37.938479235, 96.390, 2944.0, 54.2586
37.964739800, 96.390, 2952.0, 54.3323
37.991000365, 96.390, 2805.0, 52.9623
38.017260931, 96.390, 2570.0, 50.6952
38.043521496, 96.390, 2460.0, 49.5984
38.069782061, 96.390, 2346.0, 48.4355
38.096042627, 96.390, 2381.0, 48.7955
38.122303192, 96.390, 2365.0, 48.6313
38.148563758, 96.390, 2379.0, 48.7750
38.174824323, 96.390, 2416.0, 49.1528
38.201084888, 96.390, 2320.0, 48.1664
38.227345454, 96.390, 2286.0, 47.8121
38.253606019, 96.390, 2281.0, 47.7598
38.279866584, 96.390, 2313.0, 48.0937
38.306127150, 96.390, 2093.0, 45.7493
38.332387715, 96.390, 2111.0, 45.9456
38.358648280, 96.390, 2108.0, 45.9130
38.384908846, 96.390, 2099.0, 45.8148
38.411169411, 96.390, 2139.0, 46.2493
38.437429976, 96.390, 2114.0, 45.9783
38.463690542, 96.390, 2067.0, 45.4643
38.489951107, 96.390, 2100.0, 45.8258
38.516211673, 96.390, 2096.0, 45.7821
38.542472238, 96.390, 2061.0, 45.3982
38.568732803, 96.390, 2192.0, 46.8188
38.594993369, 96.390, 2093.0, 45.7493
38.621253934, 96.390, 2139.0, 46.2493
38.647514499, 96.390, 2186.0, 46.7547
38.673775065, 96.390, 2096.0, 45.7821
38.700035630, 96.390, 2214.0, 47.0532
38.726296195, 96.390, 2254.0, 47.4763
38.752556761, 96.390, 2256.0, 47.4974
38.778817326, 96.390, 2274.0, 47.6865
38.805077891, 96.390, 2286.0, 47.8121
38.831338457, 96.390, 2171.0, 46.5940
38.857599022, 96.390, 2151.0, 46.3789
38.883859587, 96.390, 2113.0, 45.9674
38.910120153, 96.390, 2036.0, 45.1221
38.936380718, 96.390, 2013.0, 44.8665
38.962641284, 96.390, 1994.0, 44.6542
38.988901849, 96.390, 1957.0, 44.2380
39.015162414, 96.390, 1890.0, 43.4741
39.041422980, 96.390, 1844.0, 42.9418
39.067683545, 96.390, 1823.0, 42.6966
39.093944110, 96.390, 1952.0, 44.1814
39.120204676, 96.390, 1837.0, 42.8602
39.146465241, 96.390, 2034.0, 45.0999
39.172725806, 96.390, 1977.0, 44.4635
39.198986372, 96.390, 1927.0, 43.8976
39.225246937, 96.390, 2059.0, 45.3762
39.251507502, 96.390, 2027.0, 45.0222
39.277768068, 96.390, 2007.0, 44.7996
39.304028633, 96.390, 1977.0, 44.4635
39.330289199, 96.390, 1970.0, 44.3847
39.356549764, 96.390, 2062.0, 45.4093
39.382810329, 96.390, 2230.0, 47.2229
39.409070895, 96.390, 2336.0, 48.3322
39.435331460, 96.390, 2441.0, 49.4065
39.461592025, 96.390, 2428.0, 49.2747
39.487852591, 96.390, 2268.0, 47.6235
39.514113156, 96.390, 2151.0, 46.3789
39.540373721, 96.390, 2168.0, 46.5618
39.566634287, 96.390, 2073.0, 45.5302
39.592894852, 96.390, 1915.0, 43.7607
39.619155417, 96.390, 1881.0, 43.3705
39.645415983, 96.390, 1877.0, 43.3244
39.671676548, 96.390, 1733.0, 41.6293
39.697937113, 96.390, 1828.0, 42.7551
39.724197679, 96.390, 1801.0, 42.4382
39.750458244, 96.390, 1691.0, 41.1218
39.776718810, 96.390, 1829.0, 42.7668
39.802979375, 96.390, 1836.0, 42.8486
39.829239940, 96.390, 1817.0, 42.6263
39.855500506, 96.390, 1850.0, 43.0116
39.881761071, 96.390, 1746.0, 41.7852
39.908021636, 96.390, 1833.0, 42.8135
39.934282202, 96.390, 1770.0, 42.0714
39.960542767, 96.390, 1891.0, 43.4856
39.986803332, 96.390, 1798.0, 42.4028
40.013063898, 96.390, 1855.0, 43.0697
40.039324463, 96.390, 1921.0, 43.8292
40.065585028, 96.390, 1840.0, 42.8952
40.091845594, 96.390, 1908.0, 43.6807
40.118106159, 96.390, 1887.0, 43.4396
40.144366725, 96.390, 1921.0, 43.8292
40.170627290, 96.390, 1878.0, 43.3359
40.196887855, 96.390, 1874.0, 43.2897
40.223148421, 96.390, 1851.0, 43.0232
40.249408986, 96.390, 1817.0, 42.6263
40.275669551, 96.390, 1714.0, 41.4005
40.301930117, 96.390, 1688.0, 41.0853
40.328190682, 96.390, 1785.0, 42.2493
40.354451247, 96.390, 1724.0, 41.5211
40.380711813, 96.390, 1656.0, 40.6940
40.406972378, 96.390, 1625.0, 40.3113
40.433232943, 96.390, 1567.0, 39.5854
40.459493509, 96.390, 1673.0, 40.9023
40.485754074, 96.390, 1656.0, 40.6940
40.512014639, 96.390, 1846.0, 42.9651
40.538275205, 96.390, 1771.0, 42.0833
40.564535770, 96.390, 1814.0, 42.5911
40.590796336, 96.390, 1855.0, 43.0697
40.617056901, 96.390, 1853.0, 43.0465
40.643317466, 96.390, 1910.0, 43.7035
40.669578032, 96.390, 1926.0, 43.8862
40.695838597, 96.390, 1834.0, 42.8252
40.722099162, 96.390, 1808.0, 42.5206
40.748359728, 96.390, 1671.0, 40.8779
40.774620293, 96.390, 1586.0, 39.8246
40.800880858, 96.390, 1629.0, 40.3609
40.827141424, 96.390, 1656.0, 40.6940
40.853401989, 96.390, 1590.0, 39.8748
40.879662554, 96.390, 1539.0, 39.2301
40.905923120, 96.390, 1588.0, 39.8497
40.932183685, 96.390, 1609.0, 40.1123
40.958444251, 96.390, 1579.0, 39.7366
40.984704816, 96.390, 1568.0, 39.5980
41.010965381, 96.390, 1628.0, 40.3485
41.037225947, 96.390, 1560.0, 39.4968
41.063486512, 96.390, 1532.0, 39.1408
41.089747077, 96.390, 1585.0, 39.8121
41.116007643, 96.390, 1528.0, 39.0896
41.142268208, 96.390, 1577.0, 39.7115
41.168528773, 96.390, 1585.0, 39.8121
41.194789339, 96.390, 1612.0, 40.1497
41.221049904, 96.390, 1692.0, 41.1339
41.247310469, 96.390, 1671.0, 40.8779
41.273571035, 96.390, 1700.0, 41.2311
41.299831600, 96.390, 1961.0, 44.2832
41.326092165, 96.390, 2021.0, 44.9555
41.352352731, 96.390, 2093.0, 45.7493
41.378613296, 96.390, 2124.0, 46.0869
41.404873862, 96.390, 2096.0, 45.7821
41.431134427, 96.390, 2089.0, 45.7056
41.457394992, 96.390, 1947.0, 44.1248
41.483655558, 96.390, 1915.0, 43.7607
41.509916123, 96.390, 1708.0, 41.3280
41.536176688, 96.390, 1655.0, 40.6817
41.562437254, 96.390, 1655.0, 40.6817
41.588697819, 96.390, 1586.0, 39.8246
41.614958384, 96.390, 1593.0, 39.9124
41.641218950, 96.390, 1582.0, 39.7744
41.667479515, 96.390, 1543.0, 39.2810
41.693740080, 96.390, 1592.0, 39.8999
41.720000646, 96.390, 1609.0, 40.1123
41.746261211, 96.390, 1718.0, 41.4488
41.772521776, 96.390, 1619.0, 40.2368
41.798782342, 96.390, 1626.0, 40.3237
41.825042907, 96.390, 1630.0, 40.3733
41.851303473, 96.390, 1645.0, 40.5586
41.877564038, 96.390, 1612.0, 40.1497
41.903824603, 96.390, 1572.0, 39.6485
41.930085169, 96.390, 1591.0, 39.8873
41.956345734, 96.390, 1551.0, 39.3827
41.982606299, 96.390, 1492.0, 38.6264
42.008866865, 96.390, 1574.0, 39.6737
42.035127430, 96.390, 1667.0, 40.8289
42.061387995, 96.390, 1732.0, 41.6173
42.087648561, 96.390, 1839.0, 42.8836
42.113909126, 96.390, 2013.0, 44.8665
42.140169691, 96.390, 2123.0, 46.0760
42.166430257, 96.390, 2101.0, 45.8367
42.192690822, 96.390, 1921.0, 43.8292
42.218951388, 96.390, 1912.0, 43.7264
42.245211953, 96.390, 1876.0, 43.3128
42.271472518, 96.390, 1849.0, 43.0000
42.297733084, 96.390, 1698.0, 41.2068
42.323993649, 96.390, 1757.0, 41.9166
42.350254214, 96.390, 1684.0, 41.0366
42.376514780, 96.390, 1630.0, 40.3733
42.402775345, 96.390, 1574.0, 39.6737
42.429035910, 96.390, 1657.0, 40.7063
42.455296476, 96.390, 1720.0, 41.4729
42.481557041, 96.390, 1697.0, 41.1947
42.507817606, 96.390, 1841.0, 42.9069
42.534078172, 96.390, 1840.0, 42.8952
42.560338737, 96.390, 1811.0, 42.5558
42.586599302, 96.390, 1780.0, 42.1900
42.612859868, 96.390, 1776.0, 42.1426
42.639120433, 96.390, 1744.0, 41.7612
42.665380999, 96.390, 1823.0, 42.6966
42.691641564, 96.390, 1916.0, 43.7721
42.717902129, 96.390, 1994.0, 44.6542
42.744162695, 96.390, 2017.0, 44.9110
42.770423260, 96.390, 1995.0, 44.6654
42.796683825, 96.390, 2029.0, 45.0444
42.822944391, 96.390, 2005.0, 44.7772
42.849204956, 96.390, 1999.0, 44.7102
42.875465521, 96.390, 2052.0, 45.2990
42.901726087, 96.390, 1944.0, 44.0908
42.927986652, 96.390, 1972.0, 44.4072
42.954247217, 96.390, 1948.0, 44.1362
42.980507783, 96.390, 1951.0, 44.1701
43.006768348, 96.390, 1859.0, 43.1161
43.033028914, 96.390, 1868.0, 43.2204
43.059289479, 96.390, 1831.0, 42.7902
43.085550044, 96.390, 1791.0, 42.3202
43.111810610, 96.390, 1756.0, 41.9047
43.138071175, 96.390, 1815.0, 42.6028
43.164331740, 96.390, 1729.0, 41.5812
43.190592306, 96.390, 1697.0, 41.1947
43.216852871, 96.390, 1629.0, 40.3609
43.243113436, 96.390, 1658.0, 40.7185
43.269374002, 96.390, 1577.0, 39.7115
43.295634567, 96.390, 1588.0, 39.8497
43.321895132, 96.390, 1563.0, 39.5348
43.348155698, 96.390, 1582.0, 39.7744
43.374416263, 96.390, 1466.0, 38.2884
43.400676828, 96.390, 1508.0, 38.8330
43.426937394, 96.390, 1493.0, 38.6394
43.453197959, 96.390, 1487.0, 38.5616
43.479458525, 96.390, 1537.0, 39.2046
43.505719090, 96.390, 1485.0, 38.5357
43.531979655, 96.390, 1472.0, 38.3667
43.558240221, 96.390, 1525.0, 39.0512
43.584500786, 96.390, 1537.0, 39.2046
43.610761351, 96.390, 1526.0, 39.0640
43.637021917, 96.390, 1587.0, 39.8372
43.663282482, 96.390, 1576.0, 39.6989
43.689543047, 96.390, 1669.0, 40.8534
43.715803613, 96.390, 1771.0, 42.0833
43.742064178, 96.390, 1938.0, 44.0227
43.768324743, 96.390, 1963.0, 44.3058
43.794585309, 96.390, 2006.0, 44.7884
43.820845874, 96.390, 1929.0, 43.9204
43.847106440, 96.390, 1853.0, 43.0465
43.873367005, 96.390, 1831.0, 42.7902
43.899627570, 96.390, 1784.0, 42.2374
43.925888136, 96.390, 1795.0, 42.3674
43.952148701, 96.390, 1689.0, 41.0974
43.978409266, 96.390, 1604.0, 40.0500
44.004669832, 96.390, 1499.0, 38.7169
44.030930397, 96.390, 1556.0, 39.4462
44.057190962, 96.390, 1452.0, 38.1051
44.083451528, 96.390, 1503.0, 38.7685
44.109712093, 96.390, 1441.0, 37.9605
44.135972658, 96.390, 1492.0, 38.6264
44.162233224, 96.390, 1442.0, 37.9737
44.188493789, 96.390, 1509.0, 38.8458
44.214754354, 96.390, 1531.0, 39.1280
44.241014920, 96.390, 1484.0, 38.5227
44.267275485, 96.390, 1503.0, 38.7685
44.293536051, 96.390, 1593.0, 39.9124
44.319796616, 96.390, 1520.0, 38.9872
44.346057181, 96.390, 1580.0, 39.7492
44.372317747, 96.390, 1714.0, 41.4005
44.398578312, 96.390, 1750.0, 41.8330
44.424838877, 96.390, 1695.0, 41.1704
44.451099443, 96.390, 1742.0, 41.7373
44.477360008, 96.390, 1642.0, 40.5216
44.503620573, 96.390, 1624.0, 40.2989
44.529881139, 96.390, 1608.0, 40.0999
44.556141704, 96.390, 1623.0, 40.2865
44.582402269, 96.390, 1537.0, 39.2046
44.608662835, 96.390, 1507.0, 38.8201
44.634923400, 96.390, 1523.0, 39.0256
44.661183966, 96.390, 1417.0, 37.6431
44.687444531, 96.390, 1402.0, 37.4433
44.713705096, 96.390, 1486.0, 38.5487
44.739965662, 96.390, 1434.0, 37.8682
44.766226227, 96.390, 1481.0, 38.4838
44.792486792, 96.390, 1525.0, 39.0512
44.818747358, 96.390, 1544.0, 39.2938
44.845007923, 96.390, 1500.0, 38.7298
44.871268488, 96.390, 1525.0, 39.0512
44.897529054, 96.390, 1518.0, 38.9615
44.923789619, 96.390, 1621.0, 40.2616
44.950050184, 96.390, 1609.0, 40.1123
44.976310750, 96.390, 1640.0, 40.4969
45.002571315, 96.390, 1721.0, 41.4849
45.028831880, 96.390, 1719.0, 41.4608
45.055092446, 96.390, 1712.0, 41.3763
45.081353011, 96.390, 1743.0, 41.7493
45.107613577, 96.390, 1806.0, 42.4971
45.133874142, 96.390, 1734.0, 41.6413
45.160134707, 96.390, 1719.0, 41.4608
45.186395273, 96.390, 1616.0, 40.1995
45.212655838, 96.390, 1706.0, 41.3038
45.238916403, 96.390, 1630.0, 40.3733
45.265176969, 96.390, 1690.0, 41.1096
45.291437534, 96.390, 1636.0, 40.4475
45.317698099, 96.390, 1636.0, 40.4475
45.343958665, 96.390, 1723.0, 41.5090
45.370219230, 96.390, 1702.0, 41.2553
45.396479795, 96.390, 1672.0, 40.8901
45.422740361, 96.390, 1644.0, 40.5463
45.449000926, 96.390, 1664.0, 40.7922
45.475261492, 96.390, 1641.0, 40.5093
45.501522057, 96.390, 1572.0, 39.6485
45.527782622, 96.390, 1493.0, 38.6394
45.554043188, 96.390, 1476.0, 38.4187
45.580303753, 96.390, 1487.0, 38.5616
45.606564318, 96.390, 1441.0, 37.9605
45.632824884, 96.390, 1480.0, 38.4708
45.659085449, 96.390, 1394.0, 37.3363
45.685346014, 96.390, 1360.0, 36.8782
45.711606580, 96.390, 1274.0, 35.6931
45.737867145, 96.390, 1333.0, 36.5103
45.764127710, 96.390, 1345.0, 36.6742
45.790388276, 96.390, 1334.0, 36.5240
45.816648841, 96.390, 1285.0, 35.8469
45.842909406, 96.390, 1329.0, 36.4555
45.869169972, 96.390, 1382.0, 37.1753
45.895430537, 96.390, 1348.0, 36.7151
45.921691103, 96.390, 1383.0, 37.1887
45.947951668, 96.390, 1377.0, 37.1080
45.974212233, 96.390, 1314.0, 36.2491
46.000472799, 96.390, 1430.0, 37.8153
46.026733364, 96.390, 1336.0, 36.5513
46.052993929, 96.390, 1327.0, 36.4280
46.079254495, 96.390, 1381.0, 37.1618
46.105515060, 96.390, 1446.0, 38.0263
46.131775625, 96.390, 1411.0, 37.5633
46.158036191, 96.390, 1509.0, 38.8458
46.184296756, 96.390, 1538.0, 39.2173
46.210557321, 96.390, 1702.0, 41.2553
46.236817887, 96.390, 1706.0, 41.3038
46.263078452, 96.390, 1842.0, 42.9185
46.289339017, 96.390, 1824.0, 42.7083
46.315599583, 96.390, 1695.0, 41.1704
46.341860148, 96.390, 1689.0, 41.0974
46.368120714, 96.390, 1569.0, 39.6106
46.394381279, 96.390, 1512.0, 38.8844
46.420641844, 96.390, 1554.0, 39.4208
46.446902410, 96.390, 1519.0, 38.9744
46.473162975, 96.390, 1375.0, 37.0810
46.499423540, 96.390, 1361.0, 36.8917
46.525684106, 96.390, 1344.0, 36.6606
46.551944671, 96.390, 1317.0, 36.2905
46.578205236, 96.390, 1279.0, 35.7631
46.604465802, 96.390, 1304.0, 36.1109
46.630726367, 96.390, 1290.0, 35.9166
46.656986932, 96.390, 1322.0, 36.3593
46.683247498, 96.390, 1313.0, 36.2353
46.709508063, 96.390, 1307.0, 36.1525
46.735768629, 96.390, 1364.0, 36.9324
46.762029194, 96.390, 1281.0, 35.7911
46.788289759, 96.390, 1291.0, 35.9305
46.814550325, 96.390, 1209.0, 34.7707
46.840810890, 96.390, 1270.0, 35.6371
46.867071455, 96.390, 1312.0, 36.2215
46.893332021, 96.390, 1271.0, 35.6511
46.919592586, 96.390, 1240.0, 35.2136
46.945853151, 96.390, 1319.0, 36.3180
46.972113717, 96.390, 1311.0, 36.2077
46.998374282, 96.390, 1290.0, 35.9166
47.024634847, 96.390, 1406.0, 37.4967
47.050895413, 96.390, 1353.0, 36.7831
47.077155978, 96.390, 1366.0, 36.9594
47.103416543, 96.390, 1339.0, 36.5923
47.129677109, 96.390, 1281.0, 35.7911
47.155937674, 96.390, 1261.0, 35.5106
47.182198240, 96.390, 1274.0, 35.6931
47.208458805, 96.390, 1263.0, 35.5387
47.234719370, 96.390, 1338.0, 36.5787
47.260979936, 96.390, 1277.0, 35.7351
47.287240501, 96.390, 1261.0, 35.5106
47.313501066, 96.390, 1303.0, 36.0971
47.339761632, 96.390, 1236.0, 35.1568
47.366022197, 96.390, 1263.0, 35.5387
47.392282762, 96.390, 1248.0, 35.3270
47.418543328, 96.390, 1270.0, 35.6371
47.444803893, 96.390, 1310.0, 36.1939
47.471064458, 96.390, 1340.0, 36.6060
47.497325024, 96.390, 1346.0, 36.6879
47.523585589, 96.390, 1302.0, 36.0832
47.549846155, 96.390, 1307.0, 36.1525
47.576106720, 96.390, 1235.0, 35.1426
47.602367285, 96.390, 1285.0, 35.8469
47.628627851, 96.390, 1183.0, 34.3948
47.654888416, 96.390, 1314.0, 36.2491
47.681148981, 96.390, 1314.0, 36.2491
47.707409547, 96.390, 1337.0, 36.5650
47.733670112, 96.390, 1269.0, 35.6230
47.759930677, 96.390, 1370.0, 37.0135
47.786191243, 96.390, 1381.0, 37.1618
47.812451808, 96.390, 1401.0, 37.4299
47.838712373, 96.390, 1364.0, 36.9324
47.864972939, 96.390, 1328.0, 36.4417
47.891233504, 96.390, 1242.0, 35.2420
47.917494069, 96.390, 1266.0, 35.5809
47.943754635, 96.390, 1314.0, 36.2491
47.970015200, 96.390, 1177.0, 34.3074
47.996275766, 96.390, 1231.0, 35.0856
48.022536331, 96.390, 1248.0, 35.3270
48.048796896, 96.390, 1272.0, 35.6651
48.075057462, 96.390, 1289.0, 35.9026
48.101318027, 96.390, 1309.0, 36.1801
48.127578592, 96.390, 1298.0, 36.0278
48.153839158, 96.390, 1333.0, 36.5103
48.180099723, 96.390, 1286.0, 35.8608
48.206360288, 96.390, 1291.0, 35.9305
48.232620854, 96.390, 1280.0, 35.7771
48.258881419, 96.390, 1325.0, 36.4005
48.285141984, 96.390, 1269.0, 35.6230
48.311402550, 96.390, 1242.0, 35.2420
48.337663115, 96.390, 1256.0, 35.4401
48.363923681, 96.390, 1201.0, 34.6554
48.390184246, 96.390, 1329.0, 36.4555
48.416444811, 96.390, 1376.0, 37.0945
48.442705377, 96.390, 1524.0, 39.0384
48.468965942, 96.390, 1559.0, 39.4842
48.495226507, 96.390, 1602.0, 40.0250
48.521487073, 96.390, 1604.0, 40.0500
48.547747638, 96.390, 1559.0, 39.4842
48.574008203, 96.390, 1445.0, 38.0132
48.600268769, 96.390, 1440.0, 37.9473
48.626529334, 96.390, 1363.0, 36.9188
48.652789899, 96.390, 1291.0, 35.9305
48.679050465, 96.390, 1280.0, 35.7771
48.705311030, 96.390, 1129.0, 33.6006
48.731571595, 96.390, 1166.0, 34.1467
48.757832161, 96.390, 1148.0, 33.8821
48.784092726, 96.390, 1205.0, 34.7131
48.810353292, 96.390, 1136.0, 33.7046
48.836613857, 96.390, 1068.0, 32.6803
48.862874422, 96.390, 1142.0, 33.7935
48.889134988, 96.390, 1144.0, 33.8231
48.915395553, 96.390, 1234.0, 35.1283
48.941656118, 96.390, 1079.0, 32.8481
48.967916684, 96.390, 1227.0, 35.0286
48.994177249, 96.390, 1156.0, 34.0000
49.020437814, 96.390, 1184.0, 34.4093
49.046698380, 96.390, 1257.0, 35.4542
49.072958945, 96.390, 1143.0, 33.8083
49.099219510, 96.390, 1219.0, 34.9142
49.125480076, 96.390, 1134.0, 33.6749
49.151740641, 96.390, 1273.0, 35.6791
49.178001207, 96.390, 1255.0, 35.4260
49.204261772, 96.390, 1180.0, 34.3511
49.230522337, 96.390, 1146.0, 33.8526
49.256782903, 96.390, 1195.0, 34.5688
49.283043468, 96.390, 1220.0, 34.9285
49.309304033, 96.390, 1145.0, 33.8378
49.335564599, 96.390, 1180.0, 34.3511
49.361825164, 96.390, 1075.0, 32.7872
49.388085729, 96.390, 1036.0, 32.1870
49.414346295, 96.390, 1095.0, 33.0908
49.440606860, 96.390, 1023.0, 31.9844
49.466867425, 96.390, 1033.0, 32.1403
49.493127991, 96.390, 1048.0, 32.3728
49.519388556, 96.390, 1090.0, 33.0151
49.545649121, 96.390, 1072.0, 32.7414
49.571909687, 96.390, 1079.0, 32.8481
49.598170252, 96.390, 1059.0, 32.5423
49.624430818, 96.390, 1058.0, 32.5269
49.650691383, 96.390, 1094.0, 33.0757
49.676951948, 96.390, 1080.0, 32.8634
49.703212514, 96.390, 1117.0, 33.4215
49.729473079, 96.390, 1123.0, 33.5112
49.755733644, 96.390, 1064.0, 32.6190
49.781994210, 96.390, 1118.0, 33.4365
49.808254775, 96.390, 1066.0, 32.6497
49.834515340, 96.390, 1102.0, 33.1964
49.860775906, 96.390, 1041.0, 32.2645
49.887036471, 96.390, 1032.0, 32.1248
49.913297036, 96.390, 1025.0, 32.0156
49.939557602, 96.390, 987.0, 31.4166
49.965818167, 96.390, 1020.0, 31.9374
49.992078732, 96.390, 1070.0, 32.7109
50.018339298, 96.390, 1062.0, 32.5883
50.044599863, 96.390, 1085.0, 32.9393
50.070860429, 96.390, 1032.0, 32.1248
50.097120994, 96.390, 1031.0, 32.1092
50.123381559, 96.390, 1080.0, 32.8634
50.149642125, 96.390, 1069.0, 32.6956
50.175902690, 96.390, 1165.0, 34.1321
50.202163255, 96.390, 1289.0, 35.9026
50.228423821, 96.390, 1315.0, 36.2629
50.254684386, 96.390, 1342.0, 36.6333
50.280944951, 96.390, 1222.0, 34.9571
50.307205517, 96.390, 1217.0, 34.8855
50.333466082, 96.390, 1144.0, 33.8231
50.359726647, 96.390, 1198.0, 34.6121
50.385987213, 96.390, 1103.0, 33.2114
50.412247778, 96.390, 1226.0, 35.0143
50.438508344, 96.390, 1159.0, 34.0441
50.464768909, 96.390, 1129.0, 33.6006
50.491029474, 96.390, 1218.0, 34.8999
50.517290040, 96.390, 1185.0, 34.4238
50.543550605, 96.390, 1211.0, 34.7994
50.569811170, 96.390, 1128.0, 33.5857
50.596071736, 96.390, 1171.0, 34.2199
50.622332301, 96.390, 1142.0, 33.7935
50.648592866, 96.390, 1104.0, 33.2265
50.674853432, 96.390, 1072.0, 32.7414
50.701113997, 96.390, 1052.0, 32.4345
50.727374562, 96.390, 1041.0, 32.2645
50.753635128, 96.390, 1052.0, 32.4345
50.779895693, 96.390, 1078.0, 32.8329
50.806156258, 96.390, 1128.0, 33.5857
50.832416824, 96.390, 1054.0, 32.4654
50.858677389, 96.390, 1139.0, 33.7491
50.884937955, 96.390, 1070.0, 32.7109
50.911198520, 96.390, 1036.0, 32.1870
50.937459085, 96.390, 1115.0, 33.3916
50.963719651, 96.390, 1142.0, 33.7935
50.989980216, 96.390, 1177.0, 34.3074
51.016240781, 96.390, 1174.0, 34.2637
51.042501347, 96.390, 1258.0, 35.4683
51.068761912, 96.390, 1258.0, 35.4683
51.095022477, 96.390, 1196.0, 34.5832
51.121283043, 96.390, 1198.0, 34.6121
51.147543608, 96.390, 1167.0, 34.1614
51.173804173, 96.390, 1202.0, 34.6699
51.200064739, 96.390, 1207.0, 34.7419
51.226325304, 96.390, 1180.0, 34.3511
51.252585870, 96.390, 1167.0, 34.1614
51.278846435, 96.390, 1061.0, 32.5730
51.305107000, 96.390, 1075.0, 32.7872
51.331367566, 96.390, 1105.0, 33.2415
51.357628131, 96.390, 1015.0, 31.8591
51.383888696, 96.390, 1008.0, 31.7490
51.410149262, 96.390, 977.0, 31.2570
51.436409827, 96.390, 1004.0, 31.6860
51.462670392, 96.390, 945.0, 30.7409
51.488930958, 96.390, 960.0, 30.9839
51.515191523, 96.390, 932.0, 30.5287
51.541452088, 96.390, 907.0, 30.1164
51.567712654, 96.390, 972.0, 31.1769
51.593973219, 96.390, 954.0, 30.8869
51.620233784, 96.390, 992.0, 31.4960
51.646494350, 96.390, 937.0, 30.6105
51.672754915, 96.390, 933.0, 30.5450
51.699015481, 96.390, 971.0, 31.1609
51.725276046, 96.390, 968.0, 31.1127
51.751536611, 96.390, 977.0, 31.2570
51.777797177, 96.390, 1037.0, 32.2025
51.804057742, 96.390, 1053.0, 32.4500
51.830318307, 96.390, 1033.0, 32.1403
51.856578873, 96.390, 1121.0, 33.4813
51.882839438, 96.390, 1010.0, 31.7805
51.909100003, 96.390, 1041.0, 32.2645
51.935360569, 96.390, 1047.0, 32.3574
51.961621134, 96.390, 1042.0, 32.2800
51.987881699, 96.390, 1141.0, 33.7787
52.014142265, 96.390, 1096.0, 33.1059
52.040402830, 96.390, 1007.0, 31.7333
52.066663396, 96.390, 1051.0, 32.4191
52.092923961, 96.390, 1064.0, 32.6190
52.119184526, 96.390, 1136.0, 33.7046
52.145445092, 96.390, 1125.0, 33.5410
52.171705657, 96.390, 1146.0, 33.8526
52.197966222, 96.390, 1151.0, 33.9264
52.224226788, 96.390, 1158.0, 34.0294
52.250487353, 96.390, 1195.0, 34.5688
52.276747918, 96.390, 1180.0, 34.3511
52.303008484, 96.390, 1154.0, 33.9706
52.329269049, 96.390, 1096.0, 33.1059
52.355529614, 96.390, 1020.0, 31.9374
52.381790180, 96.390, 1039.0, 32.2335
52.408050745, 96.390, 1048.0, 32.3728
52.434311310, 96.390, 1032.0, 32.1248
52.460571876, 96.390, 980.0, 31.3050
52.486832441, 96.390, 932.0, 30.5287
52.513093007, 96.390, 1035.0, 32.1714
52.539353572, 96.390, 1034.0, 32.1559
52.565614137, 96.390, 962.0, 31.0161
52.591874703, 96.390, 980.0, 31.3050
52.618135268, 96.390, 953.0, 30.8707
52.644395833, 96.390, 970.0, 31.1448
52.670656399, 96.390, 929.0, 30.4795
52.696916964, 96.390, 909.0, 30.1496
52.723177529, 96.390, 982.0, 31.3369
52.749438095, 96.390, 963.0, 31.0322
52.775698660, 96.390, 1024.0, 32.0000
52.801959225, 96.390, 965.0, 31.0644
52.828219791, 96.390, 943.0, 30.7083
52.854480356, 96.390, 1001.0, 31.6386
52.880740922, 96.390, 1011.0, 31.7962
52.907001487, 96.390, 1051.0, 32.4191
52.933262052, 96.390, 927.0, 30.4467
52.959522618, 96.390, 933.0, 30.5450
52.985783183, 96.390, 965.0, 31.0644
53.012043748, 96.390, 905.0, 30.0832
53.038304314, 96.390, 1035.0, 32.1714
53.064564879, 96.390, 961.0, 31.0000
53.090825444, 96.390, 973.0, 31.1929
53.117086010, 96.390, 950.0, 30.8221
53.143346575, 96.390, 965.0, 31.0644
53.169607140, 96.390, 950.0, 30.8221
53.195867706, 96.390, 991.0, 31.4802
53.222128271, 96.390, 1010.0, 31.7805
53.248388836, 96.390, 990.0, 31.4643
53.274649402, 96.390, 964.0, 31.0483
53.300909967, 96.390, 1008.0, 31.7490
53.327170533, 96.390, 972.0, 31.1769
53.353431098, 96.390, 1004.0, 31.6860
53.379691663, 96.390, 985.0, 31.3847
53.405952229, 96.390, 1020.0, 31.9374
53.432212794, 96.390, 970.0, 31.1448
53.458473359, 96.390, 1017.0, 31.8904
53.484733925, 96.390, 987.0, 31.4166
53.510994490, 96.390, 964.0, 31.0483
53.537255055, 96.390, 953.0, 30.8707
53.563515621, 96.390, 927.0, 30.4467
53.589776186, 96.390, 985.0, 31.3847
53.616036751, 96.390, 915.0, 30.2490
53.642297317, 96.390, 916.0, 30.2655
53.668557882, 96.390, 911.0, 30.1828
53.694818448, 96.390, 916.0, 30.2655
53.721079013, 96.390, 913.0, 30.2159
53.747339578, 96.390, 917.0, 30.2820
53.773600144, 96.390, 906.0, 30.0998
53.799860709, 96.390, 947.0, 30.7734
53.826121274, 96.390, 905.0, 30.0832
53.852381840, 96.390, 966.0, 31.0805
53.878642405, 96.390, 1024.0, 32.0000
53.904902970, 96.390, 1020.0, 31.9374
53.931163536, 96.390, 1096.0, 33.1059
53.957424101, 96.390, 1112.0, 33.3467
53.983684666, 96.390, 1042.0, 32.2800
54.009945232, 96.390, 1111.0, 33.3317
54.036205797, 96.390, 1094.0, 33.0757
54.062466362, 96.390, 1072.0, 32.7414
54.088726928, 96.390, 1130.0, 33.6155
54.114987493, 96.390, 1059.0, 32.5423
54.141248059, 96.390, 1091.0, 33.0303
54.167508624, 96.390, 1076.0, 32.8024
54.193769189, 96.390, 1089.0, 33.0000
54.220029755, 96.390, 1002.0, 31.6544
54.246290320, 96.390, 1022.0, 31.9687
54.272550885, 96.390, 1101.0, 33.1813
54.298811451, 96.390, 1093.0, 33.0606
54.325072016, 96.390, 1057.0, 32.5115
54.351332581, 96.390, 1067.0, 32.6650
54.377593147, 96.390, 1040.0, 32.2490
54.403853712, 96.390, 977.0, 31.2570
54.430114277, 96.390, 1017.0, 31.8904
54.456374843, 96.390, 950.0, 30.8221
54.482635408, 96.390, 966.0, 31.0805
54.508895973, 96.390, 970.0, 31.1448
54.535156539, 96.390, 918.0, 30.2985
54.561417104, 96.390, 989.0, 31.4484
54.587677670, 96.390, 923.0, 30.3809
54.613938235, 96.390, 959.0, 30.9677
54.640198800, 96.390, 929.0, 30.4795
54.666459366, 96.390, 834.0, 28.8791
54.692719931, 96.390, 924.0, 30.3974
54.718980496, 96.390, 894.0, 29.8998
54.745241062, 96.390, 850.0, 29.1548
54.771501627, 96.390, 906.0, 30.0998
54.797762192, 96.390, 901.0, 30.0167
54.824022758, 96.390, 860.0, 29.3258
54.850283323, 96.390, 890.0, 29.8329
54.876543888, 96.390, 872.0, 29.5296
54.902804454, 96.390, 879.0, 29.6479
54.929065019, 96.390, 873.0, 29.5466
54.955325585, 96.390, 856.0, 29.2575
54.981586150, 96.390, 892.0, 29.8664
55.007846715, 96.390, 869.0, 29.4788
55.034107281, 96.390, 836.0, 28.9137
55.060367846, 96.390, 885.0, 29.7489
55.086628411, 96.390, 855.0, 29.2404
55.112888977, 96.390, 896.0, 29.9333
55.139149542, 96.390, 916.0, 30.2655
55.165410107, 96.390, 921.0, 30.3480
55.191670673, 96.390, 885.0, 29.7489
55.217931238, 96.390, 852.0, 29.1890
55.244191803, 96.390, 961.0, 31.0000
55.270452369, 96.390, 860.0, 29.3258
55.296712934, 96.390, 937.0, 30.6105
55.322973499, 96.390, 871.0, 29.5127
55.349234065, 96.390, 939.0, 30.6431
55.375494630, 96.390, 895.0, 29.9166
55.401755196, 96.390, 930.0, 30.4959
55.428015761, 96.390, 980.0, 31.3050
55.454276326, 96.390, 930.0, 30.4959
55.480536892, 96.390, 863.0, 29.3769
55.506797457, 96.390, 913.0, 30.2159
55.533058022, 96.390, 941.0, 30.6757
55.559318588, 96.390, 960.0, 30.9839
55.585579153, 96.390, 918.0, 30.2985
55.611839718, 96.390, 964.0, 31.0483
55.638100284, 96.390, 919.0, 30.3150
55.664360849, 96.390, 924.0, 30.3974
55.690621414, 96.390, 920.0, 30.3315
55.716881980, 96.390, 947.0, 30.7734
55.743142545, 96.390, 990.0, 31.4643
55.769403111, 96.390, 949.0, 30.8058
55.795663676, 96.390, 924.0, 30.3974
55.821924241, 96.390, 904.0, 30.0666
55.848184807, 96.390, 980.0, 31.3050
55.874445372, 96.390, 947.0, 30.7734
55.900705937, 96.390, 924.0, 30.3974
55.926966503, 96.390, 887.0, 29.7825
55.953227068, 96.390, 892.0, 29.8664
55.979487633, 96.390, 902.0, 30.0333
56.005748199, 96.390, 929.0, 30.4795
56.032008764, 96.390, 947.0, 30.7734
56.058269329, 96.390, 933.0, 30.5450
56.084529895, 96.390, 962.0, 31.0161
56.110790460, 96.390, 975.0, 31.2250
56.137051025, 96.390, 930.0, 30.4959
56.163311591, 96.390, 931.0, 30.5123
56.189572156, 96.390, 891.0, 29.8496
56.215832722, 96.390, 975.0, 31.2250
56.242093287, 96.390, 905.0, 30.0832
56.268353852, 96.390, 923.0, 30.3809
56.294614418, 96.390, 961.0, 31.0000
56.320874983, 96.390, 913.0, 30.2159
56.347135548, 96.390, 947.0, 30.7734
56.373396114, 96.390, 865.0, 29.4109
56.399656679, 96.390, 885.0, 29.7489
56.425917244, 96.390, 796.0, 28.2135
56.452177810, 96.390, 923.0, 30.3809
56.478438375, 96.390, 881.0, 29.6816
56.504698940, 96.390, 899.0, 29.9833
56.530959506, 96.390, 908.0, 30.1330
56.557220071, 96.390, 848.0, 29.1204
56.583480637, 96.390, 839.0, 28.9655
56.609741202, 96.390, 832.0, 28.8444
56.636001767, 96.390, 885.0, 29.7489
56.662262333, 96.390, 880.0, 29.6648
56.688522898, 96.390, 868.0, 29.4618
56.714783463, 96.390, 897.0, 29.9500
56.741044029, 96.390, 885.0, 29.7489
56.767304594, 96.390, 914.0, 30.2324
56.793565159, 96.390, 858.0, 29.2916
56.819825725, 96.390, 922.0, 30.3645
56.846086290, 96.390, 919.0, 30.3150
56.872346855, 96.390, 853.0, 29.2062
56.898607421, 96.390, 914.0, 30.2324
56.924867986, 96.390, 913.0, 30.2159
56.951128551, 96.390, 834.0, 28.8791
56.977389117, 96.390, 905.0, 30.0832
57.003649682, 96.390, 895.0, 29.9166
57.029910248, 96.390, 855.0, 29.2404
57.056170813, 96.390, 883.0, 29.7153
57.082431378, 96.390, 877.0, 29.6142
57.108691944, 96.390, 928.0, 30.4631
57.134952509, 96.390, 958.0, 30.9516
57.161213074, 96.390, 924.0, 30.3974
57.187473640, 96.390, 1052.0, 32.4345
57.213734205, 96.390, 1002.0, 31.6544
57.239994770, 96.390, 983.0, 31.3528
57.266255336, 96.390, 971.0, 31.1609
57.292515901, 96.390, 916.0, 30.2655
57.318776466, 96.390, 951.0, 30.8383
57.345037032, 96.390, 983.0, 31.3528
57.371297597, 96.390, 860.0, 29.3258
57.397558163, 96.390, 916.0, 30.2655
57.423818728, 96.390, 898.0, 29.9666
57.450079293, 96.390, 892.0, 29.8664
57.476339859, 96.390, 893.0, 29.8831
57.502600424, 96.390, 884.0, 29.7321
57.528860989, 96.390, 883.0, 29.7153
57.555121555, 96.390, 866.0, 29.4279
57.581382120, 96.390, 840.0, 28.9828
57.607642685, 96.390, 874.0, 29.5635
57.633903251, 96.390, 804.0, 28.3549
57.660163816, 96.390, 876.0, 29.5973
57.686424381, 96.390, 804.0, 28.3549
57.712684947, 96.390, 877.0, 29.6142
57.738945512, 96.390, 915.0, 30.2490
57.765206077, 96.390, 877.0, 29.6142
57.791466643, 96.390, 950.0, 30.8221
57.817727208, 96.390, 881.0, 29.6816
57.843987774, 96.390, 880.0, 29.6648
57.870248339, 96.390, 857.0, 29.2746
57.896508904, 96.390, 896.0, 29.9333
57.922769470, 96.390, 908.0, 30.1330
57.949030035, 96.390, 912.0, 30.1993
57.975290600, 96.390, 940.0, 30.6594
58.001551166, 96.390, 1036.0, 32.1870
58.027811731, 96.390, 991.0, 31.4802
58.054072296, 96.390, 1115.0, 33.3916
58.080332862, 96.390, 1089.0, 33.0000
58.106593427, 96.390, 1074.0, 32.7719
58.132853992, 96.390, 986.0, 31.4006
58.159114558, 96.390, 942.0, 30.6920
58.185375123, 96.390, 955.0, 30.9031
58.211635689, 96.390, 996.0, 31.5595
58.237896254, 96.390, 941.0, 30.6757
58.264156819, 96.390, 928.0, 30.4631
58.290417385, 96.390, 924.0, 30.3974
58.316677950, 96.390, 911.0, 30.1828
58.342938515, 96.390, 956.0, 30.9192
58.369199081, 96.390, 933.0, 30.5450
58.395459646, 96.390, 886.0, 29.7658
58.421720211, 96.390, 929.0, 30.4795
58.447980777, 96.390, 883.0, 29.7153
58.474241342, 96.390, 942.0, 30.6920
58.500501907, 96.390, 847.0, 29.1033
58.526762473, 96.390, 921.0, 30.3480
58.553023038, 96.390, 939.0, 30.6431
58.579283603, 96.390, 950.0, 30.8221
58.605544169, 96.390, 910.0, 30.1662
58.631804734, 96.390, 973.0, 31.1929
58.658065300, 96.390, 973.0, 31.1929
58.684325865, 96.390, 933.0, 30.5450
58.710586430, 96.390, 970.0, 31.1448
58.736846996, 96.390, 938.0, 30.6268
58.763107561, 96.390, 913.0, 30.2159
58.789368126, 96.390, 976.0, 31.2410
58.815628692, 96.390, 985.0, 31.3847
58.841889257, 96.390, 1006.0, 31.7175
58.868149822, 96.390, 988.0, 31.4325
58.894410388, 96.390, 989.0, 31.4484
58.920670953, 96.390, 1004.0, 31.6860
58.946931518, 96.390, 981.0, 31.3209
58.973192084, 96.390, 969.0, 31.1288
58.999452649, 96.390, 1035.0, 32.1714
59.025713214, 96.390, 1064.0, 32.6190
59.051973780, 96.390, 1039.0, 32.2335
59.078234345, 96.390, 1029.0, 32.0780
59.104494911, 96.390, 1090.0, 33.0151
59.130755476, 96.390, 1058.0, 32.5269
59.157016041, 96.390, 1125.0, 33.5410
59.183276607, 96.390, 1110.0, 33.3167
59.209537172, 96.390, 1117.0, 33.4215
59.235797737, 96.390, 1139.0, 33.7491
59.262058303, 96.390, 1116.0, 33.4066
59.288318868, 96.390, 1179.0, 34.3366
59.314579433, 96.390, 1190.0, 34.4964
59.340839999, 96.390, 1183.0, 34.3948
59.367100564, 96.390, 1197.0, 34.5977
59.393361129, 96.390, 1189.0, 34.4819
59.419621695, 96.390, 1213.0, 34.8281
59.445882260, 96.390, 1257.0, 35.4542
59.472142826, 96.390, 1361.0, 36.8917
59.498403391, 96.390, 1240.0, 35.2136
59.524663956, 96.390, 1342.0, 36.6333
59.550924522, 96.390, 1275.0, 35.7071
59.577185087, 96.390, 1292.0, 35.9444
59.603445652, 96.390, 1378.0, 37.1214
59.629706218, 96.390, 1344.0, 36.6606
59.655966783, 96.390, 1368.0, 36.9865
59.682227348, 96.390, 1433.0, 37.8550
59.708487914, 96.390, 1438.0, 37.9210
59.734748479, 96.390, 1447.0, 38.0395
59.761009044, 96.390, 1568.0, 39.5980
59.787269610, 96.390, 1498.0, 38.7040
59.813530175, 96.390, 1526.0, 39.0640
59.839790740, 96.390, 1610.0, 40.1248
59.866051306, 96.390, 1516.0, 38.9358
59.892311871, 96.390, 1630.0, 40.3733
59.918572437, 96.390, 1591.0, 39.8873
59.944833002, 96.390, 1628.0, 40.3485
59.971093567, 96.390, 1741.0, 41.7253
59.997354133, 96.390, 1771.0, 42.0833
60.023614698, 96.390, 1702.0, 41.2553
60.049875263, 96.390, 1723.0, 41.5090
60.076135829, 96.390, 1751.0, 41.8450
60.102396394, 96.390, 1748.0, 41.8091
60.128656959, 96.390, 1813.0, 42.5793
60.154917525, 96.390, 1802.0, 42.4500
60.181178090, 96.390, 1855.0, 43.0697
60.207438655, 96.390, 1941.0, 44.0568
60.233699221, 96.390, 1813.0, 42.5793
60.259959786, 96.390, 1944.0, 44.0908
60.286220352, 96.390, 1882.0, 43.3820
60.312480917, 96.390, 1875.0, 43.3013
60.338741482, 96.390, 1900.0, 43.5890
60.365002048, 96.390, 1822.0, 42.6849
60.391262613, 96.390, 1906.0, 43.6578
60.417523178, 96.390, 1854.0, 43.0581
60.443783744, 96.390, 1923.0, 43.8520
60.470044309, 96.390, 1939.0, 44.0341
60.496304874, 96.390, 1877.0, 43.3244
60.522565440, 96.390, 1895.0, 43.5316
60.548826005, 96.390, 1908.0, 43.6807
60.575086570, 96.390, 1805.0, 42.4853
60.601347136, 96.390, 1879.0, 43.3474
60.627607701, 96.390, 1878.0, 43.3359
60.653868266, 96.390, 1726.0, 41.5452
60.680128832, 96.390, 1807.0, 42.5088
60.706389397, 96.390, 1694.0, 41.1582
60.732649963, 96.390, 1725.0, 41.5331
60.758910528, 96.390, 1731.0, 41.6053
60.785171093, 96.390, 1658.0, 40.7185
60.811431659, 96.390, 1647.0, 40.5832
60.837692224, 96.390, 1643.0, 40.5339
60.863952789, 96.390, 1580.0, 39.7492
60.890213355, 96.390, 1591.0, 39.8873
60.916473920, 96.390, 1613.0, 40.1622
60.942734485, 96.390, 1548.0, 39.3446
60.968995051, 96.390, 1557.0, 39.4588
60.995255616, 96.390, 1587.0, 39.8372
61.021516181, 96.390, 1537.0, 39.2046
61.047776747, 96.390, 1554.0, 39.4208
61.074037312, 96.390, 1607.0, 40.0874
61.100297878, 96.390, 1505.0, 38.7943
61.126558443, 96.390, 1583.0, 39.7869
61.152819008, 96.390, 1568.0, 39.5980
61.179079574, 96.390, 1530.0, 39.1152
61.205340139, 96.390, 1543.0, 39.2810
61.231600704, 96.390, 1483.0, 38.5097
61.257861270, 96.390, 1501.0, 38.7427
61.284121835, 96.390, 1523.0, 39.0256
61.310382400, 96.390, 1506.0, 38.8072
61.336642966, 96.390, 1474.0, 38.3927
61.362903531, 96.390, 1543.0, 39.2810
61.389164096, 96.390, 1513.0, 38.8973
61.415424662, 96.390, 1538.0, 39.2173
61.441685227, 96.390, 1484.0, 38.5227
61.467945792, 96.390, 1471.0, 38.3536
61.494206358, 96.390, 1491.0, 38.6135
61.520466923, 96.390, 1466.0, 38.2884
61.546727489, 96.390, 1386.0, 37.2290
61.572988054, 96.390, 1408.0, 37.5233
61.599248619, 96.390, 1467.0, 38.3014
61.625509185, 96.390, 1446.0, 38.0263
61.651769750, 96.390, 1394.0, 37.3363
61.678030315, 96.390, 1424.0, 37.7359
61.704290881, 96.390, 1403.0, 37.4566
61.730551446, 96.390, 1304.0, 36.1109
61.756812011, 96.390, 1335.0, 36.5377
61.783072577, 96.390, 1332.0, 36.4966
61.809333142, 96.390, 1331.0, 36.4829
61.835593707, 96.390, 1287.0, 35.8748
61.861854273, 96.390, 1313.0, 36.2353
61.888114838, 96.390, 1320.0, 36.3318
61.914375404, 96.390, 1255.0, 35.4260
61.940635969, 96.390, 1274.0, 35.6931
61.966896534, 96.390, 1248.0, 35.3270
61.993157100, 96.390, 1261.0, 35.5106
62.019417665, 96.390, 1270.0, 35.6371
62.045678230, 96.390, 1257.0, 35.4542
62.071938796, 96.390, 1276.0, 35.7211
62.098199361, 96.390, 1244.0, 35.2704
62.124459926, 96.390, 1295.0, 35.9861
62.150720492, 96.390, 1250.0, 35.3553
62.176981057, 96.390, 1277.0, 35.7351
62.203241622, 96.390, 1310.0, 36.1939
62.229502188, 96.390, 1270.0, 35.6371
62.255762753, 96.390, 1323.0, 36.3731
62.282023318, 96.390, 1321.0, 36.3456
62.308283884, 96.390, 1293.0, 35.9583
62.334544449, 96.390, 1313.0, 36.2353
62.360805015, 96.390, 1211.0, 34.7994
62.387065580, 96.390, 1168.0, 34.1760
62.413326145, 96.390, 1189.0, 34.4819
62.439586711, 96.390, 1097.0, 33.1210
62.465847276, 96.390, 1126.0, 33.5559
62.492107841, 96.390, 1077.0, 32.8177
62.518368407, 96.390, 1153.0, 33.9559
62.544628972, 96.390, 1089.0, 33.0000
62.570889537, 96.390, 1056.0, 32.4962
62.597150103, 96.390, 1093.0, 33.0606
62.623410668, 96.390, 1041.0, 32.2645
62.649671233, 96.390, 1000.0, 31.6228
62.675931799, 96.390, 1119.0, 33.4515
62.702192364, 96.390, 1041.0, 32.2645
62.728452930, 96.390, 1013.0, 31.8277
62.754713495, 96.390, 1020.0, 31.9374
62.780974060, 96.390, 981.0, 31.3209
62.807234626, 96.390, 1014.0, 31.8434
62.833495191, 96.390, 980.0, 31.3050
62.859755756, 96.390, 994.0, 31.5278
62.886016322, 96.390, 921.0, 30.3480
62.912276887, 96.390, 947.0, 30.7734
62.938537452, 96.390, 928.0, 30.4631
62.964798018, 96.390, 865.0, 29.4109
62.991058583, 96.390, 863.0, 29.3769
63.017319148, 96.390, 830.0, 28.8097
63.043579714, 96.390, 840.0, 28.9828
63.069840279, 96.390, 844.0, 29.0517
63.096100844, 96.390, 841.0, 29.0000
63.122361410, 96.390, 787.0, 28.0535
63.148621975, 96.390, 764.0, 27.6405
63.174882541, 96.390, 796.0, 28.2135
63.201143106, 96.390, 786.0, 28.0357
63.227403671, 96.390, 764.0, 27.6405
63.253664237, 96.390, 831.0, 28.8271
63.279924802, 96.390, 800.0, 28.2843
63.306185367, 96.390, 860.0, 29.3258
63.332445933, 96.390, 787.0, 28.0535
63.358706498, 96.390, 815.0, 28.5482
63.384967063, 96.390, 785.0, 28.0179
63.411227629, 96.390, 801.0, 28.3019
63.437488194, 96.390, 760.0, 27.5681
63.463748759, 96.390, 803.0, 28.3373
63.490009325, 96.390, 827.0, 28.7576
63.516269890, 96.390, 762.0, 27.6043
63.542530455, 96.390, 785.0, 28.0179
63.568791021, 96.390, 765.0, 27.6586
63.595051586, 96.390, 764.0, 27.6405
63.621312152, 96.390, 841.0, 29.0000
63.647572717, 96.390, 835.0, 28.8964
63.673833282, 96.390, 771.0, 27.7669
63.700093848, 96.390, 836.0, 28.9137
63.726354413, 96.390, 801.0, 28.3019
63.752614978, 96.390, 806.0, 28.3901
63.778875544, 96.390, 826.0, 28.7402
63.805136109, 96.390, 808.0, 28.4253
63.831396674, 96.390, 823.0, 28.6880
63.857657240, 96.390, 853.0, 29.2062
63.883917805, 96.390, 864.0, 29.3939
63.910178370, 96.390, 790.0, 28.1069
63.936438936, 96.390, 752.0, 27.4226
63.962699501, 96.390, 820.0, 28.6356
63.988960067, 96.390, 812.0, 28.4956
64.015220632, 96.390, 761.0, 27.5862
64.041481197, 96.390, 753.0, 27.4408
64.067741763, 96.390, 798.0, 28.2489
64.094002328, 96.390, 787.0, 28.0535
64.120262893, 96.390, 788.0, 28.0713
64.146523459, 96.390, 801.0, 28.3019
64.172784024, 96.390, 781.0, 27.9464
64.199044589, 96.390, 738.0, 27.1662
64.225305155, 96.390, 808.0, 28.4253
64.251565720, 96.390, 778.0, 27.8927
64.277826285, 96.390, 795.0, 28.1957
64.304086851, 96.390, 776.0, 27.8568
64.330347416, 96.390, 743.0, 27.2580
64.356607981, 96.390, 750.0, 27.3861
64.382868547, 96.390, 782.0, 27.9643
64.409129112, 96.390, 770.0, 27.7489
64.435389678, 96.390, 757.0, 27.5136
64.461650243, 96.390, 763.0, 27.6225
64.487910808, 96.390, 767.0, 27.6948
64.514171374, 96.390, 785.0, 28.0179
64.540431939, 96.390, 743.0, 27.2580
64.566692504, 96.390, 666.0, 25.8070
64.592953070, 96.390, 724.0, 26.9072
64.619213635, 96.390, 746.0, 27.3130
64.645474200, 96.390, 725.0, 26.9258
64.671734766, 96.390, 684.0, 26.1534
64.697995331, 96.390, 683.0, 26.1343
64.724255896, 96.390, 651.0, 25.5147
64.750516462, 96.390, 718.0, 26.7955
64.776777027, 96.390, 738.0, 27.1662
64.803037593, 96.390, 705.0, 26.5518
64.829298158, 96.390, 717.0, 26.7769
64.855558723, 96.390, 759.0, 27.5500
64.881819289, 96.390, 748.0, 27.3496
64.908079854, 96.390, 732.0, 27.0555
64.934340419, 96.390, 761.0, 27.5862
64.960600985, 96.390, 717.0, 26.7769
64.986861550, 96.390, 708.0, 26.6083
