[Measurement conditions]
Sample identification,XRD_P04Free14Apr22_Act18Apr22_B2_1000M_NaOH_LS0133_1
Comment - 1,"Configuration=Stage for Flat Samples/Holders, Owner=User-1, Creation date=7/1/2020 9:53:24 AM"
Comment - 2,"Goniometer=Theta/Theta; Minimum step size 2Theta:0.0001; Minimum step size Omega:0.0001"
Comment - 3,"Sample stage=Stage for flat samples/holders"
Comment - 4,"Diffractometer system=EMPYREAN"
Comment - 5,"Measurement program=C:\Users\ibo5034\OneDrive - The Pennsylvania State University\NEUP\Zerobackground scan.xrdmp, Identifier={98A3B11C-88F9-4AA6-982C-73314A311EF5}"
Anode material,Cu
K-Alpha1 wavelength,1.5405980
K-Alpha2 wavelength,1.5444260
Ratio K-Alpha2/K-Alpha1,0.500
Divergence slit,Fixed,0.25
Monochromator used,NO
Generator voltage, 45
Tube current, 40
File date and time,21/Apr/2022 17:13
Unit cell,
h k l, 0 0 0
Scan axis,Gonio
Scan range,4.994599997,64.999991833
Scan step size,0.0262606
No. of points, 2285
Scan type,CONTINUOUS
Time per step,96.390
[Scan points]
Angle, TimePerStep, Intensity, ESD
5.007730280, 96.390, 5070.0, 71.2039
5.033990845, 96.390, 4989.0, 70.6329
5.060251411, 96.390, 5000.0, 70.7107
5.086511976, 96.390, 4984.0, 70.5975
5.112772541, 96.390, 4819.0, 69.4190
5.139033107, 96.390, 4882.0, 69.8713
5.165293672, 96.390, 4892.0, 69.9428
5.191554237, 96.390, 4948.0, 70.3420
5.217814803, 96.390, 4963.0, 70.4486
5.244075368, 96.390, 4972.0, 70.5124
5.270335934, 96.390, 4938.0, 70.2709
5.296596499, 96.390, 4908.0, 70.0571
5.322857064, 96.390, 4817.0, 69.4046
5.349117630, 96.390, 4986.0, 70.6116
5.375378195, 96.390, 4971.0, 70.5053
5.401638760, 96.390, 5039.0, 70.9859
5.427899326, 96.390, 5129.0, 71.6170
5.454159891, 96.390, 5192.0, 72.0555
5.480420456, 96.390, 5198.0, 72.0972
5.506681022, 96.390, 5369.0, 73.2735
5.532941587, 96.390, 5293.0, 72.7530
5.559202152, 96.390, 5405.0, 73.5187
5.585462718, 96.390, 5679.0, 75.3591
5.611723283, 96.390, 5680.0, 75.3658
5.637983849, 96.390, 5770.0, 75.9605
5.664244414, 96.390, 5922.0, 76.9545
5.690504979, 96.390, 6065.0, 77.8781
5.716765545, 96.390, 6153.0, 78.4411
5.743026110, 96.390, 6263.0, 79.1391
5.769286675, 96.390, 6272.0, 79.1960
5.795547241, 96.390, 6416.0, 80.0999
5.821807806, 96.390, 6551.0, 80.9382
5.848068371, 96.390, 6364.0, 79.7747
5.874328937, 96.390, 6422.0, 80.1374
5.900589502, 96.390, 6191.0, 78.6829
5.926850067, 96.390, 6316.0, 79.4733
5.953110633, 96.390, 6050.0, 77.7817
5.979371198, 96.390, 6213.0, 78.8226
6.005631763, 96.390, 6056.0, 77.8203
6.031892329, 96.390, 6165.0, 78.5175
6.058152894, 96.390, 6124.0, 78.2560
6.084413460, 96.390, 5977.0, 77.3111
6.110674025, 96.390, 6083.0, 77.9936
6.136934590, 96.390, 5897.0, 76.7919
6.163195156, 96.390, 6089.0, 78.0320
6.189455721, 96.390, 5911.0, 76.8830
6.215716286, 96.390, 5828.0, 76.3413
6.241976852, 96.390, 5939.0, 77.0649
6.268237417, 96.390, 6080.0, 77.9744
6.294497982, 96.390, 5927.0, 76.9870
6.320758548, 96.390, 5898.0, 76.7984
6.347019113, 96.390, 5853.0, 76.5049
6.373279678, 96.390, 5789.0, 76.0855
6.399540244, 96.390, 5660.0, 75.2330
6.425800809, 96.390, 5657.0, 75.2130
6.452061375, 96.390, 5739.0, 75.7562
6.478321940, 96.390, 5651.0, 75.1731
6.504582505, 96.390, 5645.0, 75.1332
6.530843071, 96.390, 5655.0, 75.1997
6.557103636, 96.390, 5416.0, 73.5935
6.583364201, 96.390, 5344.0, 73.1027
6.609624767, 96.390, 5370.0, 73.2803
6.635885332, 96.390, 5238.0, 72.3740
6.662145897, 96.390, 5300.0, 72.8011
6.688406463, 96.390, 5199.0, 72.1041
6.714667028, 96.390, 5033.0, 70.9436
6.740927593, 96.390, 5075.0, 71.2390
6.767188159, 96.390, 5132.0, 71.6380
6.793448724, 96.390, 4928.0, 70.1997
6.819709289, 96.390, 4914.0, 70.0999
6.845969855, 96.390, 4975.0, 70.5337
6.872230420, 96.390, 4916.0, 70.1142
6.898490986, 96.390, 4727.0, 68.7532
6.924751551, 96.390, 4789.0, 69.2026
6.951012116, 96.390, 4703.0, 68.5784
6.977272682, 96.390, 4636.0, 68.0882
7.003533247, 96.390, 4588.0, 67.7348
7.029793812, 96.390, 4751.0, 68.9275
7.056054378, 96.390, 4590.0, 67.7495
7.082314943, 96.390, 4599.0, 67.8159
7.108575508, 96.390, 4529.0, 67.2978
7.134836074, 96.390, 4557.0, 67.5056
7.161096639, 96.390, 4359.0, 66.0227
7.187357204, 96.390, 4431.0, 66.5658
7.213617770, 96.390, 4419.0, 66.4756
7.239878335, 96.390, 4280.0, 65.4217
7.266138900, 96.390, 4315.0, 65.6887
7.292399466, 96.390, 4287.0, 65.4752
7.318660031, 96.390, 4193.0, 64.7534
7.344920597, 96.390, 4093.0, 63.9766
7.371181162, 96.390, 4148.0, 64.4050
7.397441727, 96.390, 4242.0, 65.1306
7.423702293, 96.390, 4179.0, 64.6452
7.449962858, 96.390, 4030.0, 63.4823
7.476223423, 96.390, 3967.0, 62.9841
7.502483989, 96.390, 4014.0, 63.3561
7.528744554, 96.390, 3936.0, 62.7375
7.555005119, 96.390, 3873.0, 62.2334
7.581265685, 96.390, 3996.0, 63.2139
7.607526250, 96.390, 3954.0, 62.8808
7.633786815, 96.390, 3791.0, 61.5711
7.660047381, 96.390, 3817.0, 61.7819
7.686307946, 96.390, 3699.0, 60.8194
7.712568512, 96.390, 3808.0, 61.7090
7.738829077, 96.390, 3645.0, 60.3738
7.765089642, 96.390, 3526.0, 59.3801
7.791350208, 96.390, 3570.0, 59.7495
7.817610773, 96.390, 3710.0, 60.9098
7.843871338, 96.390, 3648.0, 60.3987
7.870131904, 96.390, 3626.0, 60.2163
7.896392469, 96.390, 3617.0, 60.1415
7.922653034, 96.390, 3566.0, 59.7160
7.948913600, 96.390, 3495.0, 59.1185
7.975174165, 96.390, 3488.0, 59.0593
8.001434730, 96.390, 3440.0, 58.6515
8.027695296, 96.390, 3486.0, 59.0424
8.053955861, 96.390, 3438.0, 58.6345
8.080216426, 96.390, 3483.0, 59.0169
8.106476992, 96.390, 3475.0, 58.9491
8.132737557, 96.390, 3444.0, 58.6856
8.158998123, 96.390, 3393.0, 58.2495
8.185258688, 96.390, 3345.0, 57.8360
8.211519253, 96.390, 3200.0, 56.5685
8.237779819, 96.390, 3346.0, 57.8446
8.264040384, 96.390, 3379.0, 58.1292
8.290300949, 96.390, 3302.0, 57.4630
8.316561515, 96.390, 3341.0, 57.8014
8.342822080, 96.390, 3377.0, 58.1120
8.369082645, 96.390, 3320.0, 57.6194
8.395343211, 96.390, 3234.0, 56.8683
8.421603776, 96.390, 3211.0, 56.6657
8.447864341, 96.390, 3272.0, 57.2014
8.474124907, 96.390, 3265.0, 57.1402
8.500385472, 96.390, 3205.0, 56.6127
8.526646038, 96.390, 3199.0, 56.5597
8.552906603, 96.390, 3225.0, 56.7891
8.579167168, 96.390, 3041.0, 55.1453
8.605427734, 96.390, 3141.0, 56.0446
8.631688299, 96.390, 3164.0, 56.2494
8.657948864, 96.390, 3144.0, 56.0714
8.684209430, 96.390, 3174.0, 56.3383
8.710469995, 96.390, 3134.0, 55.9821
8.736730560, 96.390, 3108.0, 55.7494
8.762991126, 96.390, 3086.0, 55.5518
8.789251691, 96.390, 3187.0, 56.4535
8.815512256, 96.390, 3216.0, 56.7098
8.841772822, 96.390, 3158.0, 56.1961
8.868033387, 96.390, 3161.0, 56.2228
8.894293952, 96.390, 3124.0, 55.8928
8.920554518, 96.390, 3012.0, 54.8817
8.946815083, 96.390, 3025.0, 55.0000
8.973075649, 96.390, 3108.0, 55.7494
8.999336214, 96.390, 3037.0, 55.1090
9.025596779, 96.390, 3146.0, 56.0892
9.051857345, 96.390, 3121.0, 55.8659
9.078117910, 96.390, 3113.0, 55.7943
9.104378475, 96.390, 3140.0, 56.0357
9.130639041, 96.390, 3107.0, 55.7405
9.156899606, 96.390, 3142.0, 56.0535
9.183160171, 96.390, 3117.0, 55.8301
9.209420737, 96.390, 2922.0, 54.0555
9.235681302, 96.390, 3109.0, 55.7584
9.261941867, 96.390, 2988.0, 54.6626
9.288202433, 96.390, 3120.0, 55.8570
9.314462998, 96.390, 3086.0, 55.5518
9.340723564, 96.390, 3114.0, 55.8032
9.366984129, 96.390, 3150.0, 56.1249
9.393244694, 96.390, 3049.0, 55.2178
9.419505260, 96.390, 3123.0, 55.8838
9.445765825, 96.390, 3092.0, 55.6058
9.472026390, 96.390, 3132.0, 55.9643
9.498286956, 96.390, 3107.0, 55.7405
9.524547521, 96.390, 3193.0, 56.5066
9.550808086, 96.390, 3163.0, 56.2406
9.577068652, 96.390, 3138.0, 56.0179
9.603329217, 96.390, 3247.0, 56.9825
9.629589782, 96.390, 3166.0, 56.2672
9.655850348, 96.390, 3284.0, 57.3062
9.682110913, 96.390, 3288.0, 57.3411
9.708371478, 96.390, 3247.0, 56.9825
9.734632044, 96.390, 3238.0, 56.9034
9.760892609, 96.390, 3384.0, 58.1722
9.787153175, 96.390, 3446.0, 58.7026
9.813413740, 96.390, 3524.0, 59.3633
9.839674305, 96.390, 3637.0, 60.3075
9.865934871, 96.390, 3492.0, 59.0931
9.892195436, 96.390, 3567.0, 59.7244
9.918456001, 96.390, 3697.0, 60.8030
9.944716567, 96.390, 3678.0, 60.6465
9.970977132, 96.390, 3801.0, 61.6523
9.997237697, 96.390, 3769.0, 61.3922
10.023498263, 96.390, 3784.0, 61.5142
10.049758828, 96.390, 3646.0, 60.3821
10.076019393, 96.390, 3818.0, 61.7900
10.102279959, 96.390, 3554.0, 59.6154
10.128540524, 96.390, 3534.0, 59.4475
10.154801090, 96.390, 3572.0, 59.7662
10.181061655, 96.390, 3467.0, 58.8812
10.207322220, 96.390, 3514.0, 59.2790
10.233582786, 96.390, 3585.0, 59.8749
10.259843351, 96.390, 3429.0, 58.5577
10.286103916, 96.390, 3490.0, 59.0762
10.312364482, 96.390, 3411.0, 58.4038
10.338625047, 96.390, 3399.0, 58.3009
10.364885612, 96.390, 3374.0, 58.0861
10.391146178, 96.390, 3367.0, 58.0259
10.417406743, 96.390, 3400.0, 58.3095
10.443667308, 96.390, 3464.0, 58.8558
10.469927874, 96.390, 3449.0, 58.7282
10.496188439, 96.390, 3488.0, 59.0593
10.522449004, 96.390, 3538.0, 59.4811
10.548709570, 96.390, 3524.0, 59.3633
10.574970135, 96.390, 3459.0, 58.8133
10.601230701, 96.390, 3480.0, 58.9915
10.627491266, 96.390, 3542.0, 59.5147
10.653751831, 96.390, 3519.0, 59.3212
10.680012397, 96.390, 3624.0, 60.1997
10.706272962, 96.390, 3621.0, 60.1747
10.732533527, 96.390, 3569.0, 59.7411
10.758794093, 96.390, 3591.0, 59.9250
10.785054658, 96.390, 3527.0, 59.3886
10.811315223, 96.390, 3600.0, 60.0000
10.837575789, 96.390, 3594.0, 59.9500
10.863836354, 96.390, 3520.0, 59.3296
10.890096919, 96.390, 3665.0, 60.5392
10.916357485, 96.390, 3695.0, 60.7865
10.942618050, 96.390, 3716.0, 60.9590
10.968878616, 96.390, 3670.0, 60.5805
10.995139181, 96.390, 3630.0, 60.2495
11.021399746, 96.390, 3671.0, 60.5888
11.047660312, 96.390, 3794.0, 61.5955
11.073920877, 96.390, 3697.0, 60.8030
11.100181442, 96.390, 3754.0, 61.2699
11.126442008, 96.390, 3786.0, 61.5305
11.152702573, 96.390, 3761.0, 61.3270
11.178963138, 96.390, 3602.0, 60.0167
11.205223704, 96.390, 3778.0, 61.4654
11.231484269, 96.390, 3749.0, 61.2291
11.257744834, 96.390, 3739.0, 61.1474
11.284005400, 96.390, 3814.0, 61.7576
11.310265965, 96.390, 3774.0, 61.4329
11.336526530, 96.390, 3873.0, 62.2334
11.362787096, 96.390, 3851.0, 62.0564
11.389047661, 96.390, 3911.0, 62.5380
11.415308227, 96.390, 3835.0, 61.9274
11.441568792, 96.390, 3912.0, 62.5460
11.467829357, 96.390, 3883.0, 62.3137
11.494089923, 96.390, 3905.0, 62.4900
11.520350488, 96.390, 3797.0, 61.6198
11.546611053, 96.390, 3940.0, 62.7694
11.572871619, 96.390, 3888.0, 62.3538
11.599132184, 96.390, 3886.0, 62.3378
11.625392749, 96.390, 3868.0, 62.1932
11.651653315, 96.390, 3868.0, 62.1932
11.677913880, 96.390, 3873.0, 62.2334
11.704174445, 96.390, 3951.0, 62.8570
11.730435011, 96.390, 3930.0, 62.6897
11.756695576, 96.390, 3905.0, 62.4900
11.782956141, 96.390, 3869.0, 62.2013
11.809216707, 96.390, 3849.0, 62.0403
11.835477272, 96.390, 3887.0, 62.3458
11.861737838, 96.390, 3802.0, 61.6604
11.887998403, 96.390, 3784.0, 61.5142
11.914258968, 96.390, 3663.0, 60.5227
11.940519534, 96.390, 3746.0, 61.2046
11.966780099, 96.390, 3684.0, 60.6960
11.993040664, 96.390, 3552.0, 59.5987
12.019301230, 96.390, 3716.0, 60.9590
12.045561795, 96.390, 3512.0, 59.2621
12.071822360, 96.390, 3579.0, 59.8247
12.098082926, 96.390, 3459.0, 58.8133
12.124343491, 96.390, 3438.0, 58.6345
12.150604056, 96.390, 3358.0, 57.9483
12.176864622, 96.390, 3380.0, 58.1378
12.203125187, 96.390, 3306.0, 57.4978
12.229385753, 96.390, 3251.0, 57.0175
12.255646318, 96.390, 3220.0, 56.7450
12.281906883, 96.390, 3189.0, 56.4712
12.308167449, 96.390, 3165.0, 56.2583
12.334428014, 96.390, 3092.0, 55.6058
12.360688579, 96.390, 3083.0, 55.5248
12.386949145, 96.390, 3108.0, 55.7494
12.413209710, 96.390, 3148.0, 56.1070
12.439470275, 96.390, 3093.0, 55.6147
12.465730841, 96.390, 2818.0, 53.0848
12.491991406, 96.390, 2861.0, 53.4883
12.518251971, 96.390, 2871.0, 53.5817
12.544512537, 96.390, 2909.0, 53.9351
12.570773102, 96.390, 2862.0, 53.4977
12.597033667, 96.390, 2824.0, 53.1413
12.623294233, 96.390, 2753.0, 52.4690
12.649554798, 96.390, 2749.0, 52.4309
12.675815364, 96.390, 2692.0, 51.8845
12.702075929, 96.390, 2727.0, 52.2207
12.728336494, 96.390, 2630.0, 51.2835
12.754597060, 96.390, 2653.0, 51.5073
12.780857625, 96.390, 2729.0, 52.2398
12.807118190, 96.390, 2669.0, 51.6624
12.833378756, 96.390, 2551.0, 50.5074
12.859639321, 96.390, 2556.0, 50.5569
12.885899886, 96.390, 2617.0, 51.1566
12.912160452, 96.390, 2584.0, 50.8331
12.938421017, 96.390, 2490.0, 49.8999
12.964681582, 96.390, 2475.0, 49.7494
12.990942148, 96.390, 2360.0, 48.5798
13.017202713, 96.390, 2430.0, 49.2950
13.043463279, 96.390, 2384.0, 48.8262
13.069723844, 96.390, 2412.0, 49.1121
13.095984409, 96.390, 2425.0, 49.2443
13.122244975, 96.390, 2313.0, 48.0937
13.148505540, 96.390, 2323.0, 48.1975
13.174766105, 96.390, 2333.0, 48.3011
13.201026671, 96.390, 2293.0, 47.8853
13.227287236, 96.390, 2334.0, 48.3115
13.253547801, 96.390, 2327.0, 48.2390
13.279808367, 96.390, 2279.0, 47.7389
13.306068932, 96.390, 2363.0, 48.6107
13.332329497, 96.390, 2221.0, 47.1275
13.358590063, 96.390, 2258.0, 47.5184
13.384850628, 96.390, 2238.0, 47.3075
13.411111193, 96.390, 2232.0, 47.2440
13.437371759, 96.390, 2251.0, 47.4447
13.463632324, 96.390, 2306.0, 48.0208
13.489892890, 96.390, 2183.0, 46.7226
13.516153455, 96.390, 2247.0, 47.4025
13.542414020, 96.390, 2121.0, 46.0543
13.568674586, 96.390, 2235.0, 47.2758
13.594935151, 96.390, 2147.0, 46.3357
13.621195716, 96.390, 2156.0, 46.4327
13.647456282, 96.390, 2150.0, 46.3681
13.673716847, 96.390, 2173.0, 46.6154
13.699977412, 96.390, 2184.0, 46.7333
13.726237978, 96.390, 2122.0, 46.0652
13.752498543, 96.390, 2156.0, 46.4327
13.778759108, 96.390, 2152.0, 46.3897
13.805019674, 96.390, 2091.0, 45.7275
13.831280239, 96.390, 2191.0, 46.8081
13.857540805, 96.390, 2094.0, 45.7602
13.883801370, 96.390, 2158.0, 46.4543
13.910061935, 96.390, 2207.0, 46.9787
13.936322501, 96.390, 2128.0, 46.1303
13.962583066, 96.390, 2158.0, 46.4543
13.988843631, 96.390, 2148.0, 46.3465
14.015104197, 96.390, 2121.0, 46.0543
14.041364762, 96.390, 2185.0, 46.7440
14.067625327, 96.390, 2174.0, 46.6262
14.093885893, 96.390, 2162.0, 46.4973
14.120146458, 96.390, 2122.0, 46.0652
14.146407023, 96.390, 2073.0, 45.5302
14.172667589, 96.390, 2001.0, 44.7325
14.198928154, 96.390, 2151.0, 46.3789
14.225188719, 96.390, 2022.0, 44.9667
14.251449285, 96.390, 2058.0, 45.3652
14.277709850, 96.390, 2038.0, 45.1442
14.303970416, 96.390, 2051.0, 45.2880
14.330230981, 96.390, 2099.0, 45.8148
14.356491546, 96.390, 2067.0, 45.4643
14.382752112, 96.390, 2006.0, 44.7884
14.409012677, 96.390, 2029.0, 45.0444
14.435273242, 96.390, 2004.0, 44.7661
14.461533808, 96.390, 1968.0, 44.3621
14.487794373, 96.390, 2011.0, 44.8442
14.514054938, 96.390, 1974.0, 44.4297
14.540315504, 96.390, 2035.0, 45.1110
14.566576069, 96.390, 1954.0, 44.2041
14.592836634, 96.390, 2018.0, 44.9222
14.619097200, 96.390, 1926.0, 43.8862
14.645357765, 96.390, 1972.0, 44.4072
14.671618331, 96.390, 2043.0, 45.1996
14.697878896, 96.390, 2047.0, 45.2438
14.724139461, 96.390, 1965.0, 44.3283
14.750400027, 96.390, 1988.0, 44.5870
14.776660592, 96.390, 2067.0, 45.4643
14.802921157, 96.390, 2007.0, 44.7996
14.829181723, 96.390, 2049.0, 45.2659
14.855442288, 96.390, 2049.0, 45.2659
14.881702853, 96.390, 2094.0, 45.7602
14.907963419, 96.390, 2054.0, 45.3211
14.934223984, 96.390, 2091.0, 45.7275
14.960484549, 96.390, 2099.0, 45.8148
14.986745115, 96.390, 2172.0, 46.6047
15.013005680, 96.390, 2119.0, 46.0326
15.039266245, 96.390, 2105.0, 45.8803
15.065526811, 96.390, 2155.0, 46.4220
15.091787376, 96.390, 2201.0, 46.9148
15.118047942, 96.390, 2303.0, 47.9896
15.144308507, 96.390, 2368.0, 48.6621
15.170569072, 96.390, 2490.0, 49.8999
15.196829638, 96.390, 2466.0, 49.6588
15.223090203, 96.390, 2512.0, 50.1199
15.249350768, 96.390, 2750.0, 52.4404
15.275611334, 96.390, 2619.0, 51.1762
15.301871899, 96.390, 2759.0, 52.5262
15.328132464, 96.390, 2854.0, 53.4228
15.354393030, 96.390, 2762.0, 52.5547
15.380653595, 96.390, 2800.0, 52.9150
15.406914160, 96.390, 2749.0, 52.4309
15.433174726, 96.390, 2692.0, 51.8845
15.459435291, 96.390, 2723.0, 52.1824
15.485695857, 96.390, 2684.0, 51.8073
15.511956422, 96.390, 2629.0, 51.2738
15.538216987, 96.390, 2491.0, 49.9099
15.564477553, 96.390, 2578.0, 50.7740
15.590738118, 96.390, 2544.0, 50.4381
15.616998683, 96.390, 2411.0, 49.1019
15.643259249, 96.390, 2522.0, 50.2195
15.669519814, 96.390, 2387.0, 48.8569
15.695780379, 96.390, 2347.0, 48.4458
15.722040945, 96.390, 2228.0, 47.2017
15.748301510, 96.390, 2178.0, 46.6690
15.774562075, 96.390, 2211.0, 47.0213
15.800822641, 96.390, 2165.0, 46.5296
15.827083206, 96.390, 2160.0, 46.4758
15.853343771, 96.390, 2091.0, 45.7275
15.879604337, 96.390, 2041.0, 45.1774
15.905864902, 96.390, 1950.0, 44.1588
15.932125468, 96.390, 2041.0, 45.1774
15.958386033, 96.390, 2135.0, 46.2061
15.984646598, 96.390, 1979.0, 44.4860
16.010907164, 96.390, 1899.0, 43.5775
16.037167729, 96.390, 1947.0, 44.1248
16.063428294, 96.390, 1955.0, 44.2154
16.089688860, 96.390, 1969.0, 44.3734
16.115949425, 96.390, 1926.0, 43.8862
16.142209990, 96.390, 1941.0, 44.0568
16.168470556, 96.390, 1835.0, 42.8369
16.194731121, 96.390, 1956.0, 44.2267
16.220991686, 96.390, 1862.0, 43.1509
16.247252252, 96.390, 1897.0, 43.5546
16.273512817, 96.390, 1920.0, 43.8178
16.299773382, 96.390, 1851.0, 43.0232
16.326033948, 96.390, 1861.0, 43.1393
16.352294513, 96.390, 1863.0, 43.1625
16.378555079, 96.390, 1848.0, 42.9884
16.404815644, 96.390, 1824.0, 42.7083
16.431076209, 96.390, 1828.0, 42.7551
16.457336775, 96.390, 1843.0, 42.9302
16.483597340, 96.390, 1861.0, 43.1393
16.509857905, 96.390, 1905.0, 43.6463
16.536118471, 96.390, 1841.0, 42.9069
16.562379036, 96.390, 1820.0, 42.6615
16.588639601, 96.390, 1837.0, 42.8602
16.614900167, 96.390, 1746.0, 41.7852
16.641160732, 96.390, 1822.0, 42.6849
16.667421297, 96.390, 1799.0, 42.4146
16.693681863, 96.390, 1821.0, 42.6732
16.719942428, 96.390, 1755.0, 41.8927
16.746202994, 96.390, 1824.0, 42.7083
16.772463559, 96.390, 1782.0, 42.2137
16.798724124, 96.390, 1834.0, 42.8252
16.824984690, 96.390, 1753.0, 41.8688
16.851245255, 96.390, 1788.0, 42.2847
16.877505820, 96.390, 1809.0, 42.5323
16.903766386, 96.390, 1844.0, 42.9418
16.930026951, 96.390, 1816.0, 42.6146
16.956287516, 96.390, 1801.0, 42.4382
16.982548082, 96.390, 1768.0, 42.0476
17.008808647, 96.390, 1618.0, 40.2244
17.035069212, 96.390, 1728.0, 41.5692
17.061329778, 96.390, 1780.0, 42.1900
17.087590343, 96.390, 1796.0, 42.3792
17.113850908, 96.390, 1715.0, 41.4126
17.140111474, 96.390, 1802.0, 42.4500
17.166372039, 96.390, 1643.0, 40.5339
17.192632605, 96.390, 1750.0, 41.8330
17.218893170, 96.390, 1720.0, 41.4729
17.245153735, 96.390, 1735.0, 41.6533
17.271414301, 96.390, 1782.0, 42.2137
17.297674866, 96.390, 1702.0, 41.2553
17.323935431, 96.390, 1766.0, 42.0238
17.350195997, 96.390, 1688.0, 41.0853
17.376456562, 96.390, 1704.0, 41.2795
17.402717127, 96.390, 1807.0, 42.5088
17.428977693, 96.390, 1698.0, 41.2068
17.455238258, 96.390, 1768.0, 42.0476
17.481498823, 96.390, 1709.0, 41.3401
17.507759389, 96.390, 1792.0, 42.3320
17.534019954, 96.390, 1737.0, 41.6773
17.560280520, 96.390, 1757.0, 41.9166
17.586541085, 96.390, 1716.0, 41.4246
17.612801650, 96.390, 1667.0, 40.8289
17.639062216, 96.390, 1740.0, 41.7133
17.665322781, 96.390, 1723.0, 41.5090
17.691583346, 96.390, 1708.0, 41.3280
17.717843912, 96.390, 1652.0, 40.6448
17.744104477, 96.390, 1679.0, 40.9756
17.770365042, 96.390, 1725.0, 41.5331
17.796625608, 96.390, 1738.0, 41.6893
17.822886173, 96.390, 1727.0, 41.5572
17.849146738, 96.390, 1717.0, 41.4367
17.875407304, 96.390, 1806.0, 42.4971
17.901667869, 96.390, 1806.0, 42.4971
17.927928434, 96.390, 1702.0, 41.2553
17.954189000, 96.390, 1767.0, 42.0357
17.980449565, 96.390, 1807.0, 42.5088
18.006710131, 96.390, 1700.0, 41.2311
18.032970696, 96.390, 1814.0, 42.5911
18.059231261, 96.390, 1727.0, 41.5572
18.085491827, 96.390, 1790.0, 42.3084
18.111752392, 96.390, 1802.0, 42.4500
18.138012957, 96.390, 1739.0, 41.7013
18.164273523, 96.390, 1772.0, 42.0951
18.190534088, 96.390, 1664.0, 40.7922
18.216794653, 96.390, 1802.0, 42.4500
18.243055219, 96.390, 1777.0, 42.1545
18.269315784, 96.390, 1754.0, 41.8808
18.295576349, 96.390, 1770.0, 42.0714
18.321836915, 96.390, 1868.0, 43.2204
18.348097480, 96.390, 1779.0, 42.1782
18.374358046, 96.390, 1840.0, 42.8952
18.400618611, 96.390, 1829.0, 42.7668
18.426879176, 96.390, 1780.0, 42.1900
18.453139742, 96.390, 1820.0, 42.6615
18.479400307, 96.390, 1830.0, 42.7785
18.505660872, 96.390, 1875.0, 43.3013
18.531921438, 96.390, 1852.0, 43.0349
18.558182003, 96.390, 1866.0, 43.1972
18.584442568, 96.390, 1809.0, 42.5323
18.610703134, 96.390, 1741.0, 41.7253
18.636963699, 96.390, 1768.0, 42.0476
18.663224264, 96.390, 1807.0, 42.5088
18.689484830, 96.390, 1850.0, 43.0116
18.715745395, 96.390, 1896.0, 43.5431
18.742005960, 96.390, 1786.0, 42.2611
18.768266526, 96.390, 1691.0, 41.1218
18.794527091, 96.390, 1764.0, 42.0000
18.820787657, 96.390, 1698.0, 41.2068
18.847048222, 96.390, 1773.0, 42.1070
18.873308787, 96.390, 1783.0, 42.2256
18.899569353, 96.390, 1815.0, 42.6028
18.925829918, 96.390, 1805.0, 42.4853
18.952090483, 96.390, 1835.0, 42.8369
18.978351049, 96.390, 1833.0, 42.8135
19.004611614, 96.390, 1788.0, 42.2847
19.030872179, 96.390, 1786.0, 42.2611
19.057132745, 96.390, 1831.0, 42.7902
19.083393310, 96.390, 1747.0, 41.7971
19.109653875, 96.390, 1872.0, 43.2666
19.135914441, 96.390, 1864.0, 43.1741
19.162175006, 96.390, 1759.0, 41.9404
19.188435572, 96.390, 1736.0, 41.6653
19.214696137, 96.390, 1860.0, 43.1277
19.240956702, 96.390, 1881.0, 43.3705
19.267217268, 96.390, 1829.0, 42.7668
19.293477833, 96.390, 1870.0, 43.2435
19.319738398, 96.390, 1874.0, 43.2897
19.345998964, 96.390, 1877.0, 43.3244
19.372259529, 96.390, 1845.0, 42.9535
19.398520094, 96.390, 1822.0, 42.6849
19.424780660, 96.390, 1756.0, 41.9047
19.451041225, 96.390, 1941.0, 44.0568
19.477301790, 96.390, 1877.0, 43.3244
19.503562356, 96.390, 1791.0, 42.3202
19.529822921, 96.390, 1874.0, 43.2897
19.556083486, 96.390, 1926.0, 43.8862
19.582344052, 96.390, 1880.0, 43.3590
19.608604617, 96.390, 1870.0, 43.2435
19.634865183, 96.390, 1892.0, 43.4971
19.661125748, 96.390, 1911.0, 43.7150
19.687386313, 96.390, 1908.0, 43.6807
19.713646879, 96.390, 1944.0, 44.0908
19.739907444, 96.390, 1947.0, 44.1248
19.766168009, 96.390, 1915.0, 43.7607
19.792428575, 96.390, 1913.0, 43.7379
19.818689140, 96.390, 2055.0, 45.3321
19.844949705, 96.390, 2075.0, 45.5522
19.871210271, 96.390, 2092.0, 45.7384
19.897470836, 96.390, 2114.0, 45.9783
19.923731401, 96.390, 2061.0, 45.3982
19.949991967, 96.390, 2254.0, 47.4763
19.976252532, 96.390, 2264.0, 47.5815
20.002513097, 96.390, 2272.0, 47.6655
20.028773663, 96.390, 2317.0, 48.1352
20.055034228, 96.390, 2332.0, 48.2908
20.081294794, 96.390, 2320.0, 48.1664
20.107555359, 96.390, 2265.0, 47.5920
20.133815924, 96.390, 2221.0, 47.1275
20.160076490, 96.390, 2233.0, 47.2546
20.186337055, 96.390, 2195.0, 46.8508
20.212597620, 96.390, 2064.0, 45.4313
20.238858186, 96.390, 2118.0, 46.0217
20.265118751, 96.390, 2145.0, 46.3141
20.291379316, 96.390, 1921.0, 43.8292
20.317639882, 96.390, 1925.0, 43.8748
20.343900447, 96.390, 1941.0, 44.0568
20.370161012, 96.390, 1918.0, 43.7950
20.396421578, 96.390, 1957.0, 44.2380
20.422682143, 96.390, 1868.0, 43.2204
20.448942709, 96.390, 1880.0, 43.3590
20.475203274, 96.390, 1846.0, 42.9651
20.501463839, 96.390, 1860.0, 43.1277
20.527724405, 96.390, 1950.0, 44.1588
20.553984970, 96.390, 1895.0, 43.5316
20.580245535, 96.390, 1875.0, 43.3013
20.606506101, 96.390, 1892.0, 43.4971
20.632766666, 96.390, 1819.0, 42.6497
20.659027231, 96.390, 1865.0, 43.1856
20.685287797, 96.390, 1904.0, 43.6348
20.711548362, 96.390, 1874.0, 43.2897
20.737808927, 96.390, 1866.0, 43.1972
20.764069493, 96.390, 1888.0, 43.4511
20.790330058, 96.390, 1897.0, 43.5546
20.816590623, 96.390, 1936.0, 44.0000
20.842851189, 96.390, 1904.0, 43.6348
20.869111754, 96.390, 1976.0, 44.4522
20.895372320, 96.390, 1948.0, 44.1362
20.921632885, 96.390, 1992.0, 44.6318
20.947893450, 96.390, 1998.0, 44.6990
20.974154016, 96.390, 1938.0, 44.0227
21.000414581, 96.390, 1980.0, 44.4972
21.026675146, 96.390, 1939.0, 44.0341
21.052935712, 96.390, 1904.0, 43.6348
21.079196277, 96.390, 1995.0, 44.6654
21.105456842, 96.390, 2003.0, 44.7549
21.131717408, 96.390, 1906.0, 43.6578
21.157977973, 96.390, 1963.0, 44.3058
21.184238538, 96.390, 1993.0, 44.6430
21.210499104, 96.390, 1882.0, 43.3820
21.236759669, 96.390, 1908.0, 43.6807
21.263020235, 96.390, 1956.0, 44.2267
21.289280800, 96.390, 1890.0, 43.4741
21.315541365, 96.390, 2020.0, 44.9444
21.341801931, 96.390, 1936.0, 44.0000
21.368062496, 96.390, 1974.0, 44.4297
21.394323061, 96.390, 1990.0, 44.6094
21.420583627, 96.390, 2004.0, 44.7661
21.446844192, 96.390, 2028.0, 45.0333
21.473104757, 96.390, 2097.0, 45.7930
21.499365323, 96.390, 2071.0, 45.5082
21.525625888, 96.390, 1963.0, 44.3058
21.551886453, 96.390, 1945.0, 44.1022
21.578147019, 96.390, 1996.0, 44.6766
21.604407584, 96.390, 2078.0, 45.5851
21.630668149, 96.390, 2030.0, 45.0555
21.656928715, 96.390, 2089.0, 45.7056
21.683189280, 96.390, 1976.0, 44.4522
21.709449846, 96.390, 2072.0, 45.5192
21.735710411, 96.390, 2058.0, 45.3652
21.761970976, 96.390, 2061.0, 45.3982
21.788231542, 96.390, 2116.0, 46.0000
21.814492107, 96.390, 2109.0, 45.9239
21.840752672, 96.390, 2039.0, 45.1553
21.867013238, 96.390, 2135.0, 46.2061
21.893273803, 96.390, 2103.0, 45.8585
21.919534368, 96.390, 2095.0, 45.7712
21.945794934, 96.390, 2077.0, 45.5741
21.972055499, 96.390, 2046.0, 45.2327
21.998316064, 96.390, 2198.0, 46.8828
22.024576630, 96.390, 2196.0, 46.8615
22.050837195, 96.390, 2240.0, 47.3286
22.077097761, 96.390, 2140.0, 46.2601
22.103358326, 96.390, 2166.0, 46.5403
22.129618891, 96.390, 2183.0, 46.7226
22.155879457, 96.390, 2234.0, 47.2652
22.182140022, 96.390, 2227.0, 47.1911
22.208400587, 96.390, 2337.0, 48.3425
22.234661153, 96.390, 2252.0, 47.4552
22.260921718, 96.390, 2224.0, 47.1593
22.287182283, 96.390, 2283.0, 47.7807
22.313442849, 96.390, 2325.0, 48.2183
22.339703414, 96.390, 2485.0, 49.8498
22.365963979, 96.390, 2385.0, 48.8365
22.392224545, 96.390, 2350.0, 48.4768
22.418485110, 96.390, 2341.0, 48.3839
22.444745675, 96.390, 2368.0, 48.6621
22.471006241, 96.390, 2478.0, 49.7795
22.497266806, 96.390, 2486.0, 49.8598
22.523527372, 96.390, 2502.0, 50.0200
22.549787937, 96.390, 2584.0, 50.8331
22.576048502, 96.390, 2553.0, 50.5272
22.602309068, 96.390, 2668.0, 51.6527
22.628569633, 96.390, 2633.0, 51.3128
22.654830198, 96.390, 2589.0, 50.8822
22.681090764, 96.390, 2680.0, 51.7687
22.707351329, 96.390, 2737.0, 52.3163
22.733611894, 96.390, 2669.0, 51.6624
22.759872460, 96.390, 2712.0, 52.0769
22.786133025, 96.390, 2785.0, 52.7731
22.812393590, 96.390, 2792.0, 52.8394
22.838654156, 96.390, 2810.0, 53.0094
22.864914721, 96.390, 2847.0, 53.3573
22.891175287, 96.390, 2819.0, 53.0943
22.917435852, 96.390, 3074.0, 55.4437
22.943696417, 96.390, 3055.0, 55.2721
22.969956983, 96.390, 3094.0, 55.6237
22.996217548, 96.390, 3178.0, 56.3738
23.022478113, 96.390, 3230.0, 56.8331
23.048738679, 96.390, 3286.0, 57.3236
23.074999244, 96.390, 3367.0, 58.0259
23.101259809, 96.390, 3522.0, 59.3464
23.127520375, 96.390, 3616.0, 60.1332
23.153780940, 96.390, 3637.0, 60.3075
23.180041505, 96.390, 3781.0, 61.4898
23.206302071, 96.390, 3844.0, 62.0000
23.232562636, 96.390, 3873.0, 62.2334
23.258823201, 96.390, 3788.0, 61.5467
23.285083767, 96.390, 3933.0, 62.7136
23.311344332, 96.390, 3877.0, 62.2656
23.337604898, 96.390, 3741.0, 61.1637
23.363865463, 96.390, 3736.0, 61.1228
23.390126028, 96.390, 3608.0, 60.0666
23.416386594, 96.390, 3590.0, 59.9166
23.442647159, 96.390, 3562.0, 59.6825
23.468907724, 96.390, 3471.0, 58.9152
23.495168290, 96.390, 3294.0, 57.3934
23.521428855, 96.390, 3348.0, 57.8619
23.547689420, 96.390, 3291.0, 57.3672
23.573949986, 96.390, 3227.0, 56.8067
23.600210551, 96.390, 3165.0, 56.2583
23.626471116, 96.390, 3052.0, 55.2449
23.652731682, 96.390, 3174.0, 56.3383
23.678992247, 96.390, 3040.0, 55.1362
23.705252813, 96.390, 2957.0, 54.3783
23.731513378, 96.390, 2980.0, 54.5894
23.757773943, 96.390, 2835.0, 53.2447
23.784034509, 96.390, 2920.0, 54.0370
23.810295074, 96.390, 2891.0, 53.7680
23.836555639, 96.390, 2804.0, 52.9528
23.862816205, 96.390, 2734.0, 52.2877
23.889076770, 96.390, 2715.0, 52.1057
23.915337335, 96.390, 2599.0, 50.9804
23.941597901, 96.390, 2640.0, 51.3809
23.967858466, 96.390, 2629.0, 51.2738
23.994119031, 96.390, 2649.0, 51.4684
24.020379597, 96.390, 2567.0, 50.6656
24.046640162, 96.390, 2625.0, 51.2348
24.072900727, 96.390, 2446.0, 49.4571
24.099161293, 96.390, 2567.0, 50.6656
24.125421858, 96.390, 2406.0, 49.0510
24.151682424, 96.390, 2371.0, 48.6929
24.177942989, 96.390, 2501.0, 50.0100
24.204203554, 96.390, 2304.0, 48.0000
24.230464120, 96.390, 2401.0, 49.0000
24.256724685, 96.390, 2349.0, 48.4665
24.282985250, 96.390, 2361.0, 48.5901
24.309245816, 96.390, 2360.0, 48.5798
24.335506381, 96.390, 2341.0, 48.3839
24.361766946, 96.390, 2382.0, 48.8057
24.388027512, 96.390, 2362.0, 48.6004
24.414288077, 96.390, 2264.0, 47.5815
24.440548642, 96.390, 2272.0, 47.6655
24.466809208, 96.390, 2337.0, 48.3425
24.493069773, 96.390, 2369.0, 48.6724
24.519330338, 96.390, 2230.0, 47.2229
24.545590904, 96.390, 2240.0, 47.3286
24.571851469, 96.390, 2232.0, 47.2440
24.598112035, 96.390, 2154.0, 46.4112
24.624372600, 96.390, 2196.0, 46.8615
24.650633165, 96.390, 2161.0, 46.4866
24.676893731, 96.390, 2097.0, 45.7930
24.703154296, 96.390, 2153.0, 46.4004
24.729414861, 96.390, 2116.0, 46.0000
24.755675427, 96.390, 2114.0, 45.9783
24.781935992, 96.390, 2040.0, 45.1664
24.808196557, 96.390, 2033.0, 45.0888
24.834457123, 96.390, 1980.0, 44.4972
24.860717688, 96.390, 2060.0, 45.3872
24.886978253, 96.390, 2034.0, 45.0999
24.913238819, 96.390, 2025.0, 45.0000
24.939499384, 96.390, 1965.0, 44.3283
24.965759950, 96.390, 1922.0, 43.8406
24.992020515, 96.390, 1954.0, 44.2041
25.018281080, 96.390, 1921.0, 43.8292
25.044541646, 96.390, 1985.0, 44.5533
25.070802211, 96.390, 1969.0, 44.3734
25.097062776, 96.390, 2020.0, 44.9444
25.123323342, 96.390, 1948.0, 44.1362
25.149583907, 96.390, 1945.0, 44.1022
25.175844472, 96.390, 1982.0, 44.5197
25.202105038, 96.390, 1912.0, 43.7264
25.228365603, 96.390, 1888.0, 43.4511
25.254626168, 96.390, 1907.0, 43.6692
25.280886734, 96.390, 1926.0, 43.8862
25.307147299, 96.390, 1878.0, 43.3359
25.333407864, 96.390, 1934.0, 43.9773
25.359668430, 96.390, 1980.0, 44.4972
25.385928995, 96.390, 1868.0, 43.2204
25.412189561, 96.390, 1962.0, 44.2945
25.438450126, 96.390, 1960.0, 44.2719
25.464710691, 96.390, 1955.0, 44.2154
25.490971257, 96.390, 1864.0, 43.1741
25.517231822, 96.390, 1968.0, 44.3621
25.543492387, 96.390, 1893.0, 43.5086
25.569752953, 96.390, 1877.0, 43.3244
25.596013518, 96.390, 1905.0, 43.6463
25.622274083, 96.390, 1908.0, 43.6807
25.648534649, 96.390, 1953.0, 44.1928
25.674795214, 96.390, 1943.0, 44.0795
25.701055779, 96.390, 1809.0, 42.5323
25.727316345, 96.390, 1906.0, 43.6578
25.753576910, 96.390, 1973.0, 44.4185
25.779837476, 96.390, 1962.0, 44.2945
25.806098041, 96.390, 1905.0, 43.6463
25.832358606, 96.390, 2003.0, 44.7549
25.858619172, 96.390, 1998.0, 44.6990
25.884879737, 96.390, 1907.0, 43.6692
25.911140302, 96.390, 1974.0, 44.4297
25.937400868, 96.390, 1991.0, 44.6206
25.963661433, 96.390, 2051.0, 45.2880
25.989921998, 96.390, 1986.0, 44.5646
26.016182564, 96.390, 2043.0, 45.1996
26.042443129, 96.390, 2042.0, 45.1885
26.068703694, 96.390, 2017.0, 44.9110
26.094964260, 96.390, 2150.0, 46.3681
26.121224825, 96.390, 2099.0, 45.8148
26.147485390, 96.390, 2111.0, 45.9456
26.173745956, 96.390, 2149.0, 46.3573
26.200006521, 96.390, 2098.0, 45.8039
26.226267087, 96.390, 2206.0, 46.9681
26.252527652, 96.390, 2138.0, 46.2385
26.278788217, 96.390, 2269.0, 47.6340
26.305048783, 96.390, 2352.0, 48.4974
26.331309348, 96.390, 2272.0, 47.6655
26.357569913, 96.390, 2351.0, 48.4871
26.383830479, 96.390, 2344.0, 48.4149
26.410091044, 96.390, 2383.0, 48.8160
26.436351609, 96.390, 2488.0, 49.8799
26.462612175, 96.390, 2488.0, 49.8799
26.488872740, 96.390, 2589.0, 50.8822
26.515133305, 96.390, 2672.0, 51.6914
26.541393871, 96.390, 2663.0, 51.6043
26.567654436, 96.390, 2878.0, 53.6470
26.593915002, 96.390, 2848.0, 53.3667
26.620175567, 96.390, 2890.0, 53.7587
26.646436132, 96.390, 3074.0, 55.4437
26.672696698, 96.390, 2994.0, 54.7175
26.698957263, 96.390, 2932.0, 54.1479
26.725217828, 96.390, 2734.0, 52.2877
26.751478394, 96.390, 2681.0, 51.7784
26.777738959, 96.390, 2701.0, 51.9711
26.803999524, 96.390, 2619.0, 51.1762
26.830260090, 96.390, 2498.0, 49.9800
26.856520655, 96.390, 2434.0, 49.3356
26.882781220, 96.390, 2387.0, 48.8569
26.909041786, 96.390, 2251.0, 47.4447
26.935302351, 96.390, 2256.0, 47.4974
26.961562916, 96.390, 2289.0, 47.8435
26.987823482, 96.390, 2216.0, 47.0744
27.014084047, 96.390, 2095.0, 45.7712
27.040344613, 96.390, 2140.0, 46.2601
27.066605178, 96.390, 2069.0, 45.4863
27.092865743, 96.390, 2033.0, 45.0888
27.119126309, 96.390, 2103.0, 45.8585
27.145386874, 96.390, 2053.0, 45.3100
27.171647439, 96.390, 2059.0, 45.3762
27.197908005, 96.390, 2027.0, 45.0222
27.224168570, 96.390, 2042.0, 45.1885
27.250429135, 96.390, 2053.0, 45.3100
27.276689701, 96.390, 1941.0, 44.0568
27.302950266, 96.390, 1990.0, 44.6094
27.329210831, 96.390, 1928.0, 43.9090
27.355471397, 96.390, 1956.0, 44.2267
27.381731962, 96.390, 2020.0, 44.9444
27.407992528, 96.390, 1960.0, 44.2719
27.434253093, 96.390, 1988.0, 44.5870
27.460513658, 96.390, 1928.0, 43.9090
27.486774224, 96.390, 1987.0, 44.5758
27.513034789, 96.390, 1942.0, 44.0681
27.539295354, 96.390, 1943.0, 44.0795
27.565555920, 96.390, 1901.0, 43.6005
27.591816485, 96.390, 1924.0, 43.8634
27.618077050, 96.390, 1976.0, 44.4522
27.644337616, 96.390, 1889.0, 43.4626
27.670598181, 96.390, 1920.0, 43.8178
27.696858746, 96.390, 1917.0, 43.7836
27.723119312, 96.390, 1955.0, 44.2154
27.749379877, 96.390, 1793.0, 42.3438
27.775640442, 96.390, 1958.0, 44.2493
27.801901008, 96.390, 1895.0, 43.5316
27.828161573, 96.390, 1864.0, 43.1741
27.854422139, 96.390, 1929.0, 43.9204
27.880682704, 96.390, 1984.0, 44.5421
27.906943269, 96.390, 1849.0, 43.0000
27.933203835, 96.390, 2021.0, 44.9555
27.959464400, 96.390, 1985.0, 44.5533
27.985724965, 96.390, 1908.0, 43.6807
28.011985531, 96.390, 1998.0, 44.6990
28.038246096, 96.390, 1945.0, 44.1022
28.064506661, 96.390, 1884.0, 43.4051
28.090767227, 96.390, 1892.0, 43.4971
28.117027792, 96.390, 2041.0, 45.1774
28.143288357, 96.390, 1912.0, 43.7264
28.169548923, 96.390, 2009.0, 44.8219
28.195809488, 96.390, 1927.0, 43.8976
28.222070054, 96.390, 1864.0, 43.1741
28.248330619, 96.390, 1943.0, 44.0795
28.274591184, 96.390, 1952.0, 44.1814
28.300851750, 96.390, 1950.0, 44.1588
28.327112315, 96.390, 1922.0, 43.8406
28.353372880, 96.390, 1946.0, 44.1135
28.379633446, 96.390, 1919.0, 43.8064
28.405894011, 96.390, 2023.0, 44.9778
28.432154576, 96.390, 1989.0, 44.5982
28.458415142, 96.390, 2015.0, 44.8888
28.484675707, 96.390, 1955.0, 44.2154
28.510936272, 96.390, 1959.0, 44.2606
28.537196838, 96.390, 2007.0, 44.7996
28.563457403, 96.390, 1960.0, 44.2719
28.589717968, 96.390, 2035.0, 45.1110
28.615978534, 96.390, 2040.0, 45.1664
28.642239099, 96.390, 1963.0, 44.3058
28.668499665, 96.390, 2034.0, 45.0999
28.694760230, 96.390, 2018.0, 44.9222
28.721020795, 96.390, 2052.0, 45.2990
28.747281361, 96.390, 2136.0, 46.2169
28.773541926, 96.390, 2049.0, 45.2659
28.799802491, 96.390, 2083.0, 45.6399
28.826063057, 96.390, 2117.0, 46.0109
28.852323622, 96.390, 2232.0, 47.2440
28.878584187, 96.390, 2117.0, 46.0109
28.904844753, 96.390, 2102.0, 45.8476
28.931105318, 96.390, 2233.0, 47.2546
28.957365883, 96.390, 2200.0, 46.9042
28.983626449, 96.390, 2200.0, 46.9042
29.009887014, 96.390, 2381.0, 48.7955
29.036147579, 96.390, 2408.0, 49.0714
29.062408145, 96.390, 2238.0, 47.3075
29.088668710, 96.390, 2410.0, 49.0918
29.114929276, 96.390, 2389.0, 48.8774
29.141189841, 96.390, 2427.0, 49.2646
29.167450406, 96.390, 2415.0, 49.1426
29.193710972, 96.390, 2366.0, 48.6415
29.219971537, 96.390, 2443.0, 49.4267
29.246232102, 96.390, 2445.0, 49.4469
29.272492668, 96.390, 2456.0, 49.5580
29.298753233, 96.390, 2439.0, 49.3862
29.325013798, 96.390, 2430.0, 49.2950
29.351274364, 96.390, 2420.0, 49.1935
29.377534929, 96.390, 2519.0, 50.1896
29.403795494, 96.390, 2371.0, 48.6929
29.430056060, 96.390, 2349.0, 48.4665
29.456316625, 96.390, 2328.0, 48.2494
29.482577191, 96.390, 2378.0, 48.7647
29.508837756, 96.390, 2298.0, 47.9375
29.535098321, 96.390, 2281.0, 47.7598
29.561358887, 96.390, 2307.0, 48.0312
29.587619452, 96.390, 2296.0, 47.9166
29.613880017, 96.390, 2265.0, 47.5920
29.640140583, 96.390, 2316.0, 48.1248
29.666401148, 96.390, 2214.0, 47.0532
29.692661713, 96.390, 2316.0, 48.1248
29.718922279, 96.390, 2302.0, 47.9792
29.745182844, 96.390, 2332.0, 48.2908
29.771443409, 96.390, 2203.0, 46.9361
29.797703975, 96.390, 2219.0, 47.1063
29.823964540, 96.390, 2248.0, 47.4131
29.850225105, 96.390, 2210.0, 47.0106
29.876485671, 96.390, 2371.0, 48.6929
29.902746236, 96.390, 2329.0, 48.2597
29.929006802, 96.390, 2219.0, 47.1063
29.955267367, 96.390, 2292.0, 47.8748
29.981527932, 96.390, 2307.0, 48.0312
30.007788498, 96.390, 2434.0, 49.3356
30.034049063, 96.390, 2238.0, 47.3075
30.060309628, 96.390, 2286.0, 47.8121
30.086570194, 96.390, 2472.0, 49.7192
30.112830759, 96.390, 2537.0, 50.3686
30.139091324, 96.390, 2443.0, 49.4267
30.165351890, 96.390, 2476.0, 49.7594
30.191612455, 96.390, 2452.0, 49.5177
30.217873020, 96.390, 2460.0, 49.5984
30.244133586, 96.390, 2487.0, 49.8698
30.270394151, 96.390, 2540.0, 50.3984
30.296654717, 96.390, 2476.0, 49.7594
30.322915282, 96.390, 2500.0, 50.0000
30.349175847, 96.390, 2469.0, 49.6890
30.375436413, 96.390, 2472.0, 49.7192
30.401696978, 96.390, 2520.0, 50.1996
30.427957543, 96.390, 2696.0, 51.9230
30.454218109, 96.390, 2710.0, 52.0577
30.480478674, 96.390, 2621.0, 51.1957
30.506739239, 96.390, 2753.0, 52.4690
30.532999805, 96.390, 2816.0, 53.0660
30.559260370, 96.390, 2726.0, 52.2111
30.585520935, 96.390, 2788.0, 52.8015
30.611781501, 96.390, 2788.0, 52.8015
30.638042066, 96.390, 2882.0, 53.6843
30.664302631, 96.390, 2911.0, 53.9537
30.690563197, 96.390, 2873.0, 53.6004
30.716823762, 96.390, 3064.0, 55.3534
30.743084328, 96.390, 3005.0, 54.8179
30.769344893, 96.390, 3010.0, 54.8635
30.795605458, 96.390, 3067.0, 55.3805
30.821866024, 96.390, 3201.0, 56.5774
30.848126589, 96.390, 3070.0, 55.4076
30.874387154, 96.390, 3090.0, 55.5878
30.900647720, 96.390, 3186.0, 56.4447
30.926908285, 96.390, 3169.0, 56.2939
30.953168850, 96.390, 3170.0, 56.3028
30.979429416, 96.390, 3150.0, 56.1249
31.005689981, 96.390, 2960.0, 54.4059
31.031950546, 96.390, 3047.0, 55.1996
31.058211112, 96.390, 3014.0, 54.8999
31.084471677, 96.390, 3012.0, 54.8817
31.110732243, 96.390, 2874.0, 53.6097
31.136992808, 96.390, 2915.0, 53.9907
31.163253373, 96.390, 2942.0, 54.2402
31.189513939, 96.390, 2903.0, 53.8795
31.215774504, 96.390, 2746.0, 52.4023
31.242035069, 96.390, 2740.0, 52.3450
31.268295635, 96.390, 2738.0, 52.3259
31.294556200, 96.390, 2704.0, 52.0000
31.320816765, 96.390, 2675.0, 51.7204
31.347077331, 96.390, 2669.0, 51.6624
31.373337896, 96.390, 2601.0, 51.0000
31.399598461, 96.390, 2623.0, 51.2152
31.425859027, 96.390, 2670.0, 51.6720
31.452119592, 96.390, 2630.0, 51.2835
31.478380157, 96.390, 2568.0, 50.6754
31.504640723, 96.390, 2499.0, 49.9900
31.530901288, 96.390, 2475.0, 49.7494
31.557161854, 96.390, 2504.0, 50.0400
31.583422419, 96.390, 2439.0, 49.3862
31.609682984, 96.390, 2405.0, 49.0408
31.635943550, 96.390, 2374.0, 48.7237
31.662204115, 96.390, 2480.0, 49.7996
31.688464680, 96.390, 2381.0, 48.7955
31.714725246, 96.390, 2502.0, 50.0200
31.740985811, 96.390, 2440.0, 49.3964
31.767246376, 96.390, 2417.0, 49.1630
31.793506942, 96.390, 2469.0, 49.6890
31.819767507, 96.390, 2424.0, 49.2341
31.846028072, 96.390, 2385.0, 48.8365
31.872288638, 96.390, 2345.0, 48.4252
31.898549203, 96.390, 2452.0, 49.5177
31.924809769, 96.390, 2383.0, 48.8160
31.951070334, 96.390, 2472.0, 49.7192
31.977330899, 96.390, 2301.0, 47.9687
32.003591465, 96.390, 2361.0, 48.5901
32.029852030, 96.390, 2296.0, 47.9166
32.056112595, 96.390, 2367.0, 48.6518
32.082373161, 96.390, 2381.0, 48.7955
32.108633726, 96.390, 2271.0, 47.6550
32.134894291, 96.390, 2284.0, 47.7912
32.161154857, 96.390, 2289.0, 47.8435
32.187415422, 96.390, 2277.0, 47.7179
32.213675987, 96.390, 2294.0, 47.8957
32.239936553, 96.390, 2254.0, 47.4763
32.266197118, 96.390, 2195.0, 46.8508
32.292457683, 96.390, 2291.0, 47.8644
32.318718249, 96.390, 2249.0, 47.4236
32.344978814, 96.390, 2205.0, 46.9574
32.371239380, 96.390, 2213.0, 47.0425
32.397499945, 96.390, 2232.0, 47.2440
32.423760510, 96.390, 2198.0, 46.8828
32.450021076, 96.390, 2184.0, 46.7333
32.476281641, 96.390, 2167.0, 46.5510
32.502542206, 96.390, 2216.0, 47.0744
32.528802772, 96.390, 2163.0, 46.5081
32.555063337, 96.390, 2175.0, 46.6369
32.581323902, 96.390, 2216.0, 47.0744
32.607584468, 96.390, 2202.0, 46.9255
32.633845033, 96.390, 2126.0, 46.1086
32.660105598, 96.390, 1977.0, 44.4635
32.686366164, 96.390, 2016.0, 44.8999
32.712626729, 96.390, 2013.0, 44.8665
32.738887295, 96.390, 2109.0, 45.9239
32.765147860, 96.390, 2073.0, 45.5302
32.791408425, 96.390, 2053.0, 45.3100
32.817668991, 96.390, 2106.0, 45.8912
32.843929556, 96.390, 2052.0, 45.2990
32.870190121, 96.390, 2063.0, 45.4203
32.896450687, 96.390, 2071.0, 45.5082
32.922711252, 96.390, 2067.0, 45.4643
32.948971817, 96.390, 2061.0, 45.3982
32.975232383, 96.390, 2045.0, 45.2217
33.001492948, 96.390, 1988.0, 44.5870
33.027753513, 96.390, 2093.0, 45.7493
33.054014079, 96.390, 2034.0, 45.0999
33.080274644, 96.390, 2154.0, 46.4112
33.106535209, 96.390, 2054.0, 45.3211
33.132795775, 96.390, 2115.0, 45.9891
33.159056340, 96.390, 2032.0, 45.0777
33.185316906, 96.390, 2074.0, 45.5412
33.211577471, 96.390, 2089.0, 45.7056
33.237838036, 96.390, 2154.0, 46.4112
33.264098602, 96.390, 2102.0, 45.8476
33.290359167, 96.390, 2134.0, 46.1952
33.316619732, 96.390, 2152.0, 46.3897
33.342880298, 96.390, 2181.0, 46.7012
33.369140863, 96.390, 2150.0, 46.3681
33.395401428, 96.390, 2222.0, 47.1381
33.421661994, 96.390, 2169.0, 46.5725
33.447922559, 96.390, 2197.0, 46.8722
33.474183124, 96.390, 2230.0, 47.2229
33.500443690, 96.390, 2221.0, 47.1275
33.526704255, 96.390, 2211.0, 47.0213
33.552964820, 96.390, 2272.0, 47.6655
33.579225386, 96.390, 2241.0, 47.3392
33.605485951, 96.390, 2248.0, 47.4131
33.631746517, 96.390, 2214.0, 47.0532
33.658007082, 96.390, 2246.0, 47.3920
33.684267647, 96.390, 2225.0, 47.1699
33.710528213, 96.390, 2169.0, 46.5725
33.736788778, 96.390, 2250.0, 47.4342
33.763049343, 96.390, 2270.0, 47.6445
33.789309909, 96.390, 2191.0, 46.8081
33.815570474, 96.390, 2265.0, 47.5920
33.841831039, 96.390, 2291.0, 47.8644
33.868091605, 96.390, 2299.0, 47.9479
33.894352170, 96.390, 2227.0, 47.1911
33.920612735, 96.390, 2322.0, 48.1871
33.946873301, 96.390, 2194.0, 46.8402
33.973133866, 96.390, 2385.0, 48.8365
33.999394432, 96.390, 2262.0, 47.5605
34.025654997, 96.390, 2293.0, 47.8853
34.051915562, 96.390, 2340.0, 48.3735
34.078176128, 96.390, 2303.0, 47.9896
34.104436693, 96.390, 2374.0, 48.7237
34.130697258, 96.390, 2395.0, 48.9387
34.156957824, 96.390, 2399.0, 48.9796
34.183218389, 96.390, 2465.0, 49.6488
34.209478954, 96.390, 2426.0, 49.2544
34.235739520, 96.390, 2548.0, 50.4777
34.262000085, 96.390, 2508.0, 50.0799
34.288260650, 96.390, 2513.0, 50.1298
34.314521216, 96.390, 2525.0, 50.2494
34.340781781, 96.390, 2555.0, 50.5470
34.367042346, 96.390, 2620.0, 51.1859
34.393302912, 96.390, 2602.0, 51.0098
34.419563477, 96.390, 2531.0, 50.3090
34.445824043, 96.390, 2585.0, 50.8429
34.472084608, 96.390, 2612.0, 51.1077
34.498345173, 96.390, 2626.0, 51.2445
34.524605739, 96.390, 2666.0, 51.6333
34.550866304, 96.390, 2671.0, 51.6817
34.577126869, 96.390, 2660.0, 51.5752
34.603387435, 96.390, 2701.0, 51.9711
34.629648000, 96.390, 2693.0, 51.8941
34.655908565, 96.390, 2731.0, 52.2590
34.682169131, 96.390, 2762.0, 52.5547
34.708429696, 96.390, 2644.0, 51.4198
34.734690261, 96.390, 2724.0, 52.1920
34.760950827, 96.390, 2828.0, 53.1789
34.787211392, 96.390, 2728.0, 52.2303
34.813471958, 96.390, 2754.0, 52.4786
34.839732523, 96.390, 2615.0, 51.1371
34.865993088, 96.390, 2681.0, 51.7784
34.892253654, 96.390, 2599.0, 50.9804
34.918514219, 96.390, 2635.0, 51.3323
34.944774784, 96.390, 2595.0, 50.9411
34.971035350, 96.390, 2602.0, 51.0098
34.997295915, 96.390, 2487.0, 49.8698
35.023556480, 96.390, 2489.0, 49.8899
35.049817046, 96.390, 2567.0, 50.6656
35.076077611, 96.390, 2606.0, 51.0490
35.102338176, 96.390, 2506.0, 50.0600
35.128598742, 96.390, 2530.0, 50.2991
35.154859307, 96.390, 2490.0, 49.8999
35.181119872, 96.390, 2432.0, 49.3153
35.207380438, 96.390, 2397.0, 48.9592
35.233641003, 96.390, 2472.0, 49.7192
35.259901569, 96.390, 2521.0, 50.2096
35.286162134, 96.390, 2307.0, 48.0312
35.312422699, 96.390, 2297.0, 47.9270
35.338683265, 96.390, 2369.0, 48.6724
35.364943830, 96.390, 2317.0, 48.1352
35.391204395, 96.390, 2277.0, 47.7179
35.417464961, 96.390, 2287.0, 47.8226
35.443725526, 96.390, 2163.0, 46.5081
35.469986091, 96.390, 2233.0, 47.2546
35.496246657, 96.390, 2216.0, 47.0744
35.522507222, 96.390, 2206.0, 46.9681
35.548767787, 96.390, 2187.0, 46.7654
35.575028353, 96.390, 2200.0, 46.9042
35.601288918, 96.390, 2224.0, 47.1593
35.627549484, 96.390, 2215.0, 47.0638
35.653810049, 96.390, 2175.0, 46.6369
35.680070614, 96.390, 2150.0, 46.3681
35.706331180, 96.390, 2263.0, 47.5710
35.732591745, 96.390, 2183.0, 46.7226
35.758852310, 96.390, 2085.0, 45.6618
35.785112876, 96.390, 2070.0, 45.4973
35.811373441, 96.390, 2009.0, 44.8219
35.837634006, 96.390, 2032.0, 45.0777
35.863894572, 96.390, 2082.0, 45.6289
35.890155137, 96.390, 1968.0, 44.3621
35.916415702, 96.390, 2063.0, 45.4203
35.942676268, 96.390, 1982.0, 44.5197
35.968936833, 96.390, 1971.0, 44.3959
35.995197398, 96.390, 2024.0, 44.9889
36.021457964, 96.390, 2001.0, 44.7325
36.047718529, 96.390, 2048.0, 45.2548
36.073979095, 96.390, 1996.0, 44.6766
36.100239660, 96.390, 1936.0, 44.0000
36.126500225, 96.390, 1910.0, 43.7035
36.152760791, 96.390, 2064.0, 45.4313
36.179021356, 96.390, 1957.0, 44.2380
36.205281921, 96.390, 1990.0, 44.6094
36.231542487, 96.390, 1987.0, 44.5758
36.257803052, 96.390, 2071.0, 45.5082
36.284063617, 96.390, 1943.0, 44.0795
36.310324183, 96.390, 1953.0, 44.1928
36.336584748, 96.390, 2000.0, 44.7214
36.362845313, 96.390, 1901.0, 43.6005
36.389105879, 96.390, 1865.0, 43.1856
36.415366444, 96.390, 1998.0, 44.6990
36.441627010, 96.390, 1990.0, 44.6094
36.467887575, 96.390, 2013.0, 44.8665
36.494148140, 96.390, 1863.0, 43.1625
36.520408706, 96.390, 1888.0, 43.4511
36.546669271, 96.390, 1917.0, 43.7836
36.572929836, 96.390, 1949.0, 44.1475
36.599190402, 96.390, 1928.0, 43.9090
36.625450967, 96.390, 1910.0, 43.7035
36.651711532, 96.390, 1870.0, 43.2435
36.677972098, 96.390, 1938.0, 44.0227
36.704232663, 96.390, 1900.0, 43.5890
36.730493228, 96.390, 1861.0, 43.1393
36.756753794, 96.390, 1909.0, 43.6921
36.783014359, 96.390, 1941.0, 44.0568
36.809274924, 96.390, 1856.0, 43.0813
36.835535490, 96.390, 1859.0, 43.1161
36.861796055, 96.390, 1970.0, 44.3847
36.888056621, 96.390, 1919.0, 43.8064
36.914317186, 96.390, 1858.0, 43.1045
36.940577751, 96.390, 1913.0, 43.7379
36.966838317, 96.390, 1836.0, 42.8486
36.993098882, 96.390, 1893.0, 43.5086
37.019359447, 96.390, 1847.0, 42.9767
37.045620013, 96.390, 1794.0, 42.3556
37.071880578, 96.390, 1888.0, 43.4511
37.098141143, 96.390, 1888.0, 43.4511
37.124401709, 96.390, 1867.0, 43.2088
37.150662274, 96.390, 1885.0, 43.4166
37.176922839, 96.390, 1850.0, 43.0116
37.203183405, 96.390, 1880.0, 43.3590
37.229443970, 96.390, 1875.0, 43.3013
37.255704535, 96.390, 1834.0, 42.8252
37.281965101, 96.390, 1876.0, 43.3128
37.308225666, 96.390, 1908.0, 43.6807
37.334486232, 96.390, 1848.0, 42.9884
37.360746797, 96.390, 1906.0, 43.6578
37.387007362, 96.390, 1793.0, 42.3438
37.413267928, 96.390, 1893.0, 43.5086
37.439528493, 96.390, 1821.0, 42.6732
37.465789058, 96.390, 1883.0, 43.3935
37.492049624, 96.390, 1787.0, 42.2729
37.518310189, 96.390, 1885.0, 43.4166
37.544570754, 96.390, 1818.0, 42.6380
37.570831320, 96.390, 1893.0, 43.5086
37.597091885, 96.390, 1878.0, 43.3359
37.623352450, 96.390, 1809.0, 42.5323
37.649613016, 96.390, 1811.0, 42.5558
37.675873581, 96.390, 1754.0, 41.8808
37.702134147, 96.390, 1845.0, 42.9535
37.728394712, 96.390, 1786.0, 42.2611
37.754655277, 96.390, 1874.0, 43.2897
37.780915843, 96.390, 1886.0, 43.4281
37.807176408, 96.390, 1830.0, 42.7785
37.833436973, 96.390, 1858.0, 43.1045
37.859697539, 96.390, 1849.0, 43.0000
37.885958104, 96.390, 1890.0, 43.4741
37.912218669, 96.390, 1886.0, 43.4281
37.938479235, 96.390, 1862.0, 43.1509
37.964739800, 96.390, 1837.0, 42.8602
37.991000365, 96.390, 1867.0, 43.2088
38.017260931, 96.390, 1858.0, 43.1045
38.043521496, 96.390, 1819.0, 42.6497
38.069782061, 96.390, 1849.0, 43.0000
38.096042627, 96.390, 1805.0, 42.4853
38.122303192, 96.390, 1737.0, 41.6773
38.148563758, 96.390, 1747.0, 41.7971
38.174824323, 96.390, 1757.0, 41.9166
38.201084888, 96.390, 1751.0, 41.8450
38.227345454, 96.390, 1687.0, 41.0731
38.253606019, 96.390, 1729.0, 41.5812
38.279866584, 96.390, 1634.0, 40.4228
38.306127150, 96.390, 1729.0, 41.5812
38.332387715, 96.390, 1733.0, 41.6293
38.358648280, 96.390, 1742.0, 41.7373
38.384908846, 96.390, 1755.0, 41.8927
38.411169411, 96.390, 1652.0, 40.6448
38.437429976, 96.390, 1654.0, 40.6694
38.463690542, 96.390, 1817.0, 42.6263
38.489951107, 96.390, 1741.0, 41.7253
38.516211673, 96.390, 1769.0, 42.0595
38.542472238, 96.390, 1655.0, 40.6817
38.568732803, 96.390, 1679.0, 40.9756
38.594993369, 96.390, 1629.0, 40.3609
38.621253934, 96.390, 1637.0, 40.4599
38.647514499, 96.390, 1698.0, 41.2068
38.673775065, 96.390, 1688.0, 41.0853
38.700035630, 96.390, 1631.0, 40.3856
38.726296195, 96.390, 1660.0, 40.7431
38.752556761, 96.390, 1669.0, 40.8534
38.778817326, 96.390, 1638.0, 40.4722
38.805077891, 96.390, 1657.0, 40.7063
38.831338457, 96.390, 1596.0, 39.9500
38.857599022, 96.390, 1636.0, 40.4475
38.883859587, 96.390, 1599.0, 39.9875
38.910120153, 96.390, 1735.0, 41.6533
38.936380718, 96.390, 1709.0, 41.3401
38.962641284, 96.390, 1544.0, 39.2938
38.988901849, 96.390, 1675.0, 40.9268
39.015162414, 96.390, 1579.0, 39.7366
39.041422980, 96.390, 1722.0, 41.4970
39.067683545, 96.390, 1695.0, 41.1704
39.093944110, 96.390, 1639.0, 40.4846
39.120204676, 96.390, 1662.0, 40.7676
39.146465241, 96.390, 1611.0, 40.1373
39.172725806, 96.390, 1621.0, 40.2616
39.198986372, 96.390, 1544.0, 39.2938
39.225246937, 96.390, 1614.0, 40.1746
39.251507502, 96.390, 1644.0, 40.5463
39.277768068, 96.390, 1630.0, 40.3733
39.304028633, 96.390, 1550.0, 39.3700
39.330289199, 96.390, 1612.0, 40.1497
39.356549764, 96.390, 1585.0, 39.8121
39.382810329, 96.390, 1584.0, 39.7995
39.409070895, 96.390, 1601.0, 40.0125
39.435331460, 96.390, 1587.0, 39.8372
39.461592025, 96.390, 1616.0, 40.1995
39.487852591, 96.390, 1615.0, 40.1871
39.514113156, 96.390, 1645.0, 40.5586
39.540373721, 96.390, 1582.0, 39.7744
39.566634287, 96.390, 1575.0, 39.6863
39.592894852, 96.390, 1639.0, 40.4846
39.619155417, 96.390, 1558.0, 39.4715
39.645415983, 96.390, 1559.0, 39.4842
39.671676548, 96.390, 1593.0, 39.9124
39.697937113, 96.390, 1554.0, 39.4208
39.724197679, 96.390, 1586.0, 39.8246
39.750458244, 96.390, 1526.0, 39.0640
39.776718810, 96.390, 1629.0, 40.3609
39.802979375, 96.390, 1546.0, 39.3192
39.829239940, 96.390, 1575.0, 39.6863
39.855500506, 96.390, 1586.0, 39.8246
39.881761071, 96.390, 1515.0, 38.9230
39.908021636, 96.390, 1573.0, 39.6611
39.934282202, 96.390, 1566.0, 39.5727
39.960542767, 96.390, 1537.0, 39.2046
39.986803332, 96.390, 1560.0, 39.4968
40.013063898, 96.390, 1510.0, 38.8587
40.039324463, 96.390, 1533.0, 39.1535
40.065585028, 96.390, 1588.0, 39.8497
40.091845594, 96.390, 1560.0, 39.4968
40.118106159, 96.390, 1559.0, 39.4842
40.144366725, 96.390, 1565.0, 39.5601
40.170627290, 96.390, 1555.0, 39.4335
40.196887855, 96.390, 1536.0, 39.1918
40.223148421, 96.390, 1577.0, 39.7115
40.249408986, 96.390, 1595.0, 39.9375
40.275669551, 96.390, 1544.0, 39.2938
40.301930117, 96.390, 1536.0, 39.1918
40.328190682, 96.390, 1509.0, 38.8458
40.354451247, 96.390, 1474.0, 38.3927
40.380711813, 96.390, 1590.0, 39.8748
40.406972378, 96.390, 1550.0, 39.3700
40.433232943, 96.390, 1571.0, 39.6358
40.459493509, 96.390, 1597.0, 39.9625
40.485754074, 96.390, 1541.0, 39.2556
40.512014639, 96.390, 1571.0, 39.6358
40.538275205, 96.390, 1629.0, 40.3609
40.564535770, 96.390, 1552.0, 39.3954
40.590796336, 96.390, 1693.0, 41.1461
40.617056901, 96.390, 1632.0, 40.3980
40.643317466, 96.390, 1593.0, 39.9124
40.669578032, 96.390, 1622.0, 40.2741
40.695838597, 96.390, 1646.0, 40.5709
40.722099162, 96.390, 1715.0, 41.4126
40.748359728, 96.390, 1731.0, 41.6053
40.774620293, 96.390, 1743.0, 41.7493
40.800880858, 96.390, 1717.0, 41.4367
40.827141424, 96.390, 1747.0, 41.7971
40.853401989, 96.390, 1874.0, 43.2897
40.879662554, 96.390, 1658.0, 40.7185
40.905923120, 96.390, 1763.0, 41.9881
40.932183685, 96.390, 1670.0, 40.8656
40.958444251, 96.390, 1714.0, 41.4005
40.984704816, 96.390, 1638.0, 40.4722
41.010965381, 96.390, 1682.0, 41.0122
41.037225947, 96.390, 1535.0, 39.1791
41.063486512, 96.390, 1732.0, 41.6173
41.089747077, 96.390, 1639.0, 40.4846
41.116007643, 96.390, 1604.0, 40.0500
41.142268208, 96.390, 1661.0, 40.7554
41.168528773, 96.390, 1665.0, 40.8044
41.194789339, 96.390, 1651.0, 40.6325
41.221049904, 96.390, 1612.0, 40.1497
41.247310469, 96.390, 1627.0, 40.3361
41.273571035, 96.390, 1611.0, 40.1373
41.299831600, 96.390, 1574.0, 39.6737
41.326092165, 96.390, 1629.0, 40.3609
41.352352731, 96.390, 1646.0, 40.5709
41.378613296, 96.390, 1624.0, 40.2989
41.404873862, 96.390, 1586.0, 39.8246
41.431134427, 96.390, 1580.0, 39.7492
41.457394992, 96.390, 1605.0, 40.0625
41.483655558, 96.390, 1614.0, 40.1746
41.509916123, 96.390, 1585.0, 39.8121
41.536176688, 96.390, 1537.0, 39.2046
41.562437254, 96.390, 1474.0, 38.3927
41.588697819, 96.390, 1556.0, 39.4462
41.614958384, 96.390, 1608.0, 40.0999
41.641218950, 96.390, 1500.0, 38.7298
41.667479515, 96.390, 1543.0, 39.2810
41.693740080, 96.390, 1536.0, 39.1918
41.720000646, 96.390, 1514.0, 38.9102
41.746261211, 96.390, 1586.0, 39.8246
41.772521776, 96.390, 1455.0, 38.1445
41.798782342, 96.390, 1476.0, 38.4187
41.825042907, 96.390, 1519.0, 38.9744
41.851303473, 96.390, 1486.0, 38.5487
41.877564038, 96.390, 1481.0, 38.4838
41.903824603, 96.390, 1468.0, 38.3145
41.930085169, 96.390, 1425.0, 37.7492
41.956345734, 96.390, 1455.0, 38.1445
41.982606299, 96.390, 1418.0, 37.6563
42.008866865, 96.390, 1454.0, 38.1314
42.035127430, 96.390, 1463.0, 38.2492
42.061387995, 96.390, 1421.0, 37.6962
42.087648561, 96.390, 1425.0, 37.7492
42.113909126, 96.390, 1455.0, 38.1445
42.140169691, 96.390, 1457.0, 38.1707
42.166430257, 96.390, 1399.0, 37.4032
42.192690822, 96.390, 1506.0, 38.8072
42.218951388, 96.390, 1435.0, 37.8814
42.245211953, 96.390, 1409.0, 37.5366
42.271472518, 96.390, 1442.0, 37.9737
42.297733084, 96.390, 1415.0, 37.6165
42.323993649, 96.390, 1476.0, 38.4187
42.350254214, 96.390, 1386.0, 37.2290
42.376514780, 96.390, 1442.0, 37.9737
42.402775345, 96.390, 1422.0, 37.7094
42.429035910, 96.390, 1500.0, 38.7298
42.455296476, 96.390, 1493.0, 38.6394
42.481557041, 96.390, 1360.0, 36.8782
42.507817606, 96.390, 1436.0, 37.8946
42.534078172, 96.390, 1387.0, 37.2424
42.560338737, 96.390, 1457.0, 38.1707
42.586599302, 96.390, 1385.0, 37.2156
42.612859868, 96.390, 1458.0, 38.1838
42.639120433, 96.390, 1480.0, 38.4708
42.665380999, 96.390, 1390.0, 37.2827
42.691641564, 96.390, 1356.0, 36.8239
42.717902129, 96.390, 1422.0, 37.7094
42.744162695, 96.390, 1398.0, 37.3898
42.770423260, 96.390, 1401.0, 37.4299
42.796683825, 96.390, 1431.0, 37.8286
42.822944391, 96.390, 1419.0, 37.6696
42.849204956, 96.390, 1432.0, 37.8418
42.875465521, 96.390, 1423.0, 37.7227
42.901726087, 96.390, 1442.0, 37.9737
42.927986652, 96.390, 1386.0, 37.2290
42.954247217, 96.390, 1420.0, 37.6829
42.980507783, 96.390, 1362.0, 36.9053
43.006768348, 96.390, 1331.0, 36.4829
43.033028914, 96.390, 1354.0, 36.7967
43.059289479, 96.390, 1343.0, 36.6470
43.085550044, 96.390, 1357.0, 36.8375
43.111810610, 96.390, 1345.0, 36.6742
43.138071175, 96.390, 1348.0, 36.7151
43.164331740, 96.390, 1395.0, 37.3497
43.190592306, 96.390, 1312.0, 36.2215
43.216852871, 96.390, 1319.0, 36.3180
43.243113436, 96.390, 1351.0, 36.7560
43.269374002, 96.390, 1373.0, 37.0540
43.295634567, 96.390, 1311.0, 36.2077
43.321895132, 96.390, 1282.0, 35.8050
43.348155698, 96.390, 1301.0, 36.0694
43.374416263, 96.390, 1275.0, 35.7071
43.400676828, 96.390, 1252.0, 35.3836
43.426937394, 96.390, 1346.0, 36.6879
43.453197959, 96.390, 1228.0, 35.0428
43.479458525, 96.390, 1252.0, 35.3836
43.505719090, 96.390, 1212.0, 34.8138
43.531979655, 96.390, 1277.0, 35.7351
43.558240221, 96.390, 1258.0, 35.4683
43.584500786, 96.390, 1280.0, 35.7771
43.610761351, 96.390, 1247.0, 35.3129
43.637021917, 96.390, 1156.0, 34.0000
43.663282482, 96.390, 1195.0, 34.5688
43.689543047, 96.390, 1247.0, 35.3129
43.715803613, 96.390, 1233.0, 35.1141
43.742064178, 96.390, 1205.0, 34.7131
43.768324743, 96.390, 1236.0, 35.1568
43.794585309, 96.390, 1200.0, 34.6410
43.820845874, 96.390, 1239.0, 35.1994
43.847106440, 96.390, 1212.0, 34.8138
43.873367005, 96.390, 1292.0, 35.9444
43.899627570, 96.390, 1229.0, 35.0571
43.925888136, 96.390, 1211.0, 34.7994
43.952148701, 96.390, 1247.0, 35.3129
43.978409266, 96.390, 1238.0, 35.1852
44.004669832, 96.390, 1196.0, 34.5832
44.030930397, 96.390, 1170.0, 34.2053
44.057190962, 96.390, 1248.0, 35.3270
44.083451528, 96.390, 1159.0, 34.0441
44.109712093, 96.390, 1186.0, 34.4384
44.135972658, 96.390, 1136.0, 33.7046
44.162233224, 96.390, 1254.0, 35.4119
44.188493789, 96.390, 1193.0, 34.5398
44.214754354, 96.390, 1131.0, 33.6303
44.241014920, 96.390, 1145.0, 33.8378
44.267275485, 96.390, 1187.0, 34.4529
44.293536051, 96.390, 1162.0, 34.0881
44.319796616, 96.390, 1169.0, 34.1906
44.346057181, 96.390, 1182.0, 34.3802
44.372317747, 96.390, 1228.0, 35.0428
44.398578312, 96.390, 1193.0, 34.5398
44.424838877, 96.390, 1212.0, 34.8138
44.451099443, 96.390, 1202.0, 34.6699
44.477360008, 96.390, 1178.0, 34.3220
44.503620573, 96.390, 1216.0, 34.8712
44.529881139, 96.390, 1244.0, 35.2704
44.556141704, 96.390, 1208.0, 34.7563
44.582402269, 96.390, 1136.0, 33.7046
44.608662835, 96.390, 1200.0, 34.6410
44.634923400, 96.390, 1211.0, 34.7994
44.661183966, 96.390, 1228.0, 35.0428
44.687444531, 96.390, 1226.0, 35.0143
44.713705096, 96.390, 1219.0, 34.9142
44.739965662, 96.390, 1201.0, 34.6554
44.766226227, 96.390, 1270.0, 35.6371
44.792486792, 96.390, 1201.0, 34.6554
44.818747358, 96.390, 1184.0, 34.4093
44.845007923, 96.390, 1261.0, 35.5106
44.871268488, 96.390, 1271.0, 35.6511
44.897529054, 96.390, 1231.0, 35.0856
44.923789619, 96.390, 1277.0, 35.7351
44.950050184, 96.390, 1196.0, 34.5832
44.976310750, 96.390, 1230.0, 35.0714
45.002571315, 96.390, 1246.0, 35.2987
45.028831880, 96.390, 1264.0, 35.5528
45.055092446, 96.390, 1274.0, 35.6931
45.081353011, 96.390, 1348.0, 36.7151
45.107613577, 96.390, 1316.0, 36.2767
45.133874142, 96.390, 1284.0, 35.8329
45.160134707, 96.390, 1302.0, 36.0832
45.186395273, 96.390, 1246.0, 35.2987
45.212655838, 96.390, 1247.0, 35.3129
45.238916403, 96.390, 1207.0, 34.7419
45.265176969, 96.390, 1240.0, 35.2136
45.291437534, 96.390, 1232.0, 35.0999
45.317698099, 96.390, 1238.0, 35.1852
45.343958665, 96.390, 1275.0, 35.7071
45.370219230, 96.390, 1215.0, 34.8569
45.396479795, 96.390, 1208.0, 34.7563
45.422740361, 96.390, 1263.0, 35.5387
45.449000926, 96.390, 1248.0, 35.3270
45.475261492, 96.390, 1283.0, 35.8190
45.501522057, 96.390, 1246.0, 35.2987
45.527782622, 96.390, 1276.0, 35.7211
45.554043188, 96.390, 1246.0, 35.2987
45.580303753, 96.390, 1266.0, 35.5809
45.606564318, 96.390, 1300.0, 36.0555
45.632824884, 96.390, 1280.0, 35.7771
45.659085449, 96.390, 1319.0, 36.3180
45.685346014, 96.390, 1247.0, 35.3129
45.711606580, 96.390, 1297.0, 36.0139
45.737867145, 96.390, 1229.0, 35.0571
45.764127710, 96.390, 1277.0, 35.7351
45.790388276, 96.390, 1256.0, 35.4401
45.816648841, 96.390, 1308.0, 36.1663
45.842909406, 96.390, 1184.0, 34.4093
45.869169972, 96.390, 1283.0, 35.8190
45.895430537, 96.390, 1297.0, 36.0139
45.921691103, 96.390, 1339.0, 36.5923
45.947951668, 96.390, 1312.0, 36.2215
45.974212233, 96.390, 1243.0, 35.2562
46.000472799, 96.390, 1243.0, 35.2562
46.026733364, 96.390, 1291.0, 35.9305
46.052993929, 96.390, 1336.0, 36.5513
46.079254495, 96.390, 1266.0, 35.5809
46.105515060, 96.390, 1307.0, 36.1525
46.131775625, 96.390, 1287.0, 35.8748
46.158036191, 96.390, 1249.0, 35.3412
46.184296756, 96.390, 1317.0, 36.2905
46.210557321, 96.390, 1356.0, 36.8239
46.236817887, 96.390, 1353.0, 36.7831
46.263078452, 96.390, 1293.0, 35.9583
46.289339017, 96.390, 1350.0, 36.7423
46.315599583, 96.390, 1334.0, 36.5240
46.341860148, 96.390, 1366.0, 36.9594
46.368120714, 96.390, 1260.0, 35.4965
46.394381279, 96.390, 1325.0, 36.4005
46.420641844, 96.390, 1332.0, 36.4966
46.446902410, 96.390, 1324.0, 36.3868
46.473162975, 96.390, 1378.0, 37.1214
46.499423540, 96.390, 1232.0, 35.0999
46.525684106, 96.390, 1302.0, 36.0832
46.551944671, 96.390, 1390.0, 37.2827
46.578205236, 96.390, 1288.0, 35.8887
46.604465802, 96.390, 1298.0, 36.0278
46.630726367, 96.390, 1284.0, 35.8329
46.656986932, 96.390, 1296.0, 36.0000
46.683247498, 96.390, 1309.0, 36.1801
46.709508063, 96.390, 1288.0, 35.8887
46.735768629, 96.390, 1245.0, 35.2846
46.762029194, 96.390, 1270.0, 35.6371
46.788289759, 96.390, 1297.0, 36.0139
46.814550325, 96.390, 1317.0, 36.2905
46.840810890, 96.390, 1345.0, 36.6742
46.867071455, 96.390, 1329.0, 36.4555
46.893332021, 96.390, 1317.0, 36.2905
46.919592586, 96.390, 1297.0, 36.0139
46.945853151, 96.390, 1299.0, 36.0416
46.972113717, 96.390, 1251.0, 35.3695
46.998374282, 96.390, 1291.0, 35.9305
47.024634847, 96.390, 1258.0, 35.4683
47.050895413, 96.390, 1278.0, 35.7491
47.077155978, 96.390, 1267.0, 35.5949
47.103416543, 96.390, 1258.0, 35.4683
47.129677109, 96.390, 1256.0, 35.4401
47.155937674, 96.390, 1293.0, 35.9583
47.182198240, 96.390, 1292.0, 35.9444
47.208458805, 96.390, 1284.0, 35.8329
47.234719370, 96.390, 1387.0, 37.2424
47.260979936, 96.390, 1264.0, 35.5528
47.287240501, 96.390, 1208.0, 34.7563
47.313501066, 96.390, 1270.0, 35.6371
47.339761632, 96.390, 1228.0, 35.0428
47.366022197, 96.390, 1198.0, 34.6121
47.392282762, 96.390, 1248.0, 35.3270
47.418543328, 96.390, 1219.0, 34.9142
47.444803893, 96.390, 1226.0, 35.0143
47.471064458, 96.390, 1173.0, 34.2491
47.497325024, 96.390, 1211.0, 34.7994
47.523585589, 96.390, 1267.0, 35.5949
47.549846155, 96.390, 1163.0, 34.1028
47.576106720, 96.390, 1209.0, 34.7707
47.602367285, 96.390, 1124.0, 33.5261
47.628627851, 96.390, 1184.0, 34.4093
47.654888416, 96.390, 1112.0, 33.3467
47.681148981, 96.390, 1122.0, 33.4963
47.707409547, 96.390, 1134.0, 33.6749
47.733670112, 96.390, 1183.0, 34.3948
47.759930677, 96.390, 1142.0, 33.7935
47.786191243, 96.390, 1153.0, 33.9559
47.812451808, 96.390, 1103.0, 33.2114
47.838712373, 96.390, 1125.0, 33.5410
47.864972939, 96.390, 1104.0, 33.2265
47.891233504, 96.390, 1212.0, 34.8138
47.917494069, 96.390, 1136.0, 33.7046
47.943754635, 96.390, 1073.0, 32.7567
47.970015200, 96.390, 1125.0, 33.5410
47.996275766, 96.390, 1070.0, 32.7109
48.022536331, 96.390, 1140.0, 33.7639
48.048796896, 96.390, 1113.0, 33.3617
48.075057462, 96.390, 1080.0, 32.8634
48.101318027, 96.390, 1103.0, 33.2114
48.127578592, 96.390, 1174.0, 34.2637
48.153839158, 96.390, 1164.0, 34.1174
48.180099723, 96.390, 1156.0, 34.0000
48.206360288, 96.390, 1086.0, 32.9545
48.232620854, 96.390, 1072.0, 32.7414
48.258881419, 96.390, 1090.0, 33.0151
48.285141984, 96.390, 1091.0, 33.0303
48.311402550, 96.390, 1092.0, 33.0454
48.337663115, 96.390, 1096.0, 33.1059
48.363923681, 96.390, 1121.0, 33.4813
48.390184246, 96.390, 1088.0, 32.9848
48.416444811, 96.390, 1051.0, 32.4191
48.442705377, 96.390, 1060.0, 32.5576
48.468965942, 96.390, 1091.0, 33.0303
48.495226507, 96.390, 1105.0, 33.2415
48.521487073, 96.390, 1077.0, 32.8177
48.547747638, 96.390, 1058.0, 32.5269
48.574008203, 96.390, 1030.0, 32.0936
48.600268769, 96.390, 1072.0, 32.7414
48.626529334, 96.390, 1008.0, 31.7490
48.652789899, 96.390, 1116.0, 33.4066
48.679050465, 96.390, 1139.0, 33.7491
48.705311030, 96.390, 1081.0, 32.8786
48.731571595, 96.390, 1111.0, 33.3317
48.757832161, 96.390, 1005.0, 31.7017
48.784092726, 96.390, 1089.0, 33.0000
48.810353292, 96.390, 1074.0, 32.7719
48.836613857, 96.390, 1096.0, 33.1059
48.862874422, 96.390, 1001.0, 31.6386
48.889134988, 96.390, 1028.0, 32.0624
48.915395553, 96.390, 1015.0, 31.8591
48.941656118, 96.390, 1047.0, 32.3574
48.967916684, 96.390, 1053.0, 32.4500
48.994177249, 96.390, 1057.0, 32.5115
49.020437814, 96.390, 1059.0, 32.5423
49.046698380, 96.390, 1024.0, 32.0000
49.072958945, 96.390, 1060.0, 32.5576
49.099219510, 96.390, 1063.0, 32.6037
49.125480076, 96.390, 1058.0, 32.5269
49.151740641, 96.390, 973.0, 31.1929
49.178001207, 96.390, 1005.0, 31.7017
49.204261772, 96.390, 1041.0, 32.2645
49.230522337, 96.390, 943.0, 30.7083
49.256782903, 96.390, 1032.0, 32.1248
49.283043468, 96.390, 1018.0, 31.9061
49.309304033, 96.390, 1002.0, 31.6544
49.335564599, 96.390, 1053.0, 32.4500
49.361825164, 96.390, 998.0, 31.5911
49.388085729, 96.390, 1011.0, 31.7962
49.414346295, 96.390, 983.0, 31.3528
49.440606860, 96.390, 1035.0, 32.1714
49.466867425, 96.390, 1017.0, 31.8904
49.493127991, 96.390, 1058.0, 32.5269
49.519388556, 96.390, 1016.0, 31.8748
49.545649121, 96.390, 1040.0, 32.2490
49.571909687, 96.390, 1023.0, 31.9844
49.598170252, 96.390, 925.0, 30.4138
49.624430818, 96.390, 1034.0, 32.1559
49.650691383, 96.390, 1052.0, 32.4345
49.676951948, 96.390, 1035.0, 32.1714
49.703212514, 96.390, 1002.0, 31.6544
49.729473079, 96.390, 1034.0, 32.1559
49.755733644, 96.390, 1025.0, 32.0156
49.781994210, 96.390, 1025.0, 32.0156
49.808254775, 96.390, 1027.0, 32.0468
49.834515340, 96.390, 947.0, 30.7734
49.860775906, 96.390, 964.0, 31.0483
49.887036471, 96.390, 1015.0, 31.8591
49.913297036, 96.390, 961.0, 31.0000
49.939557602, 96.390, 945.0, 30.7409
49.965818167, 96.390, 994.0, 31.5278
49.992078732, 96.390, 1019.0, 31.9218
50.018339298, 96.390, 1024.0, 32.0000
50.044599863, 96.390, 1012.0, 31.8119
50.070860429, 96.390, 942.0, 30.6920
50.097120994, 96.390, 965.0, 31.0644
50.123381559, 96.390, 977.0, 31.2570
50.149642125, 96.390, 1037.0, 32.2025
50.175902690, 96.390, 1020.0, 31.9374
50.202163255, 96.390, 1010.0, 31.7805
50.228423821, 96.390, 959.0, 30.9677
50.254684386, 96.390, 989.0, 31.4484
50.280944951, 96.390, 995.0, 31.5436
50.307205517, 96.390, 955.0, 30.9031
50.333466082, 96.390, 953.0, 30.8707
50.359726647, 96.390, 1000.0, 31.6228
50.385987213, 96.390, 948.0, 30.7896
50.412247778, 96.390, 1025.0, 32.0156
50.438508344, 96.390, 905.0, 30.0832
50.464768909, 96.390, 937.0, 30.6105
50.491029474, 96.390, 993.0, 31.5119
50.517290040, 96.390, 997.0, 31.5753
50.543550605, 96.390, 980.0, 31.3050
50.569811170, 96.390, 971.0, 31.1609
50.596071736, 96.390, 919.0, 30.3150
50.622332301, 96.390, 1011.0, 31.7962
50.648592866, 96.390, 982.0, 31.3369
50.674853432, 96.390, 970.0, 31.1448
50.701113997, 96.390, 1064.0, 32.6190
50.727374562, 96.390, 1012.0, 31.8119
50.753635128, 96.390, 993.0, 31.5119
50.779895693, 96.390, 1042.0, 32.2800
50.806156258, 96.390, 958.0, 30.9516
50.832416824, 96.390, 993.0, 31.5119
50.858677389, 96.390, 998.0, 31.5911
50.884937955, 96.390, 1028.0, 32.0624
50.911198520, 96.390, 1082.0, 32.8938
50.937459085, 96.390, 1095.0, 33.0908
50.963719651, 96.390, 1064.0, 32.6190
50.989980216, 96.390, 1038.0, 32.2180
51.016240781, 96.390, 1102.0, 33.1964
51.042501347, 96.390, 984.0, 31.3688
51.068761912, 96.390, 973.0, 31.1929
51.095022477, 96.390, 1016.0, 31.8748
51.121283043, 96.390, 1036.0, 32.1870
51.147543608, 96.390, 1090.0, 33.0151
51.173804173, 96.390, 992.0, 31.4960
51.200064739, 96.390, 999.0, 31.6070
51.226325304, 96.390, 1016.0, 31.8748
51.252585870, 96.390, 996.0, 31.5595
51.278846435, 96.390, 992.0, 31.4960
51.305107000, 96.390, 957.0, 30.9354
51.331367566, 96.390, 1015.0, 31.8591
51.357628131, 96.390, 1040.0, 32.2490
51.383888696, 96.390, 1024.0, 32.0000
51.410149262, 96.390, 1032.0, 32.1248
51.436409827, 96.390, 1019.0, 31.9218
51.462670392, 96.390, 1040.0, 32.2490
51.488930958, 96.390, 983.0, 31.3528
51.515191523, 96.390, 1100.0, 33.1662
51.541452088, 96.390, 1066.0, 32.6497
51.567712654, 96.390, 1049.0, 32.3883
51.593973219, 96.390, 1057.0, 32.5115
51.620233784, 96.390, 1023.0, 31.9844
51.646494350, 96.390, 1119.0, 33.4515
51.672754915, 96.390, 1082.0, 32.8938
51.699015481, 96.390, 1098.0, 33.1361
51.725276046, 96.390, 1029.0, 32.0780
51.751536611, 96.390, 1030.0, 32.0936
51.777797177, 96.390, 997.0, 31.5753
51.804057742, 96.390, 993.0, 31.5119
51.830318307, 96.390, 959.0, 30.9677
51.856578873, 96.390, 979.0, 31.2890
51.882839438, 96.390, 1039.0, 32.2335
51.909100003, 96.390, 1003.0, 31.6702
51.935360569, 96.390, 944.0, 30.7246
51.961621134, 96.390, 1019.0, 31.9218
51.987881699, 96.390, 1019.0, 31.9218
52.014142265, 96.390, 948.0, 30.7896
52.040402830, 96.390, 948.0, 30.7896
52.066663396, 96.390, 938.0, 30.6268
52.092923961, 96.390, 1013.0, 31.8277
52.119184526, 96.390, 988.0, 31.4325
52.145445092, 96.390, 917.0, 30.2820
52.171705657, 96.390, 1012.0, 31.8119
52.197966222, 96.390, 995.0, 31.5436
52.224226788, 96.390, 956.0, 30.9192
52.250487353, 96.390, 989.0, 31.4484
52.276747918, 96.390, 1006.0, 31.7175
52.303008484, 96.390, 1003.0, 31.6702
52.329269049, 96.390, 989.0, 31.4484
52.355529614, 96.390, 954.0, 30.8869
52.381790180, 96.390, 1007.0, 31.7333
52.408050745, 96.390, 962.0, 31.0161
52.434311310, 96.390, 974.0, 31.2090
52.460571876, 96.390, 995.0, 31.5436
52.486832441, 96.390, 970.0, 31.1448
52.513093007, 96.390, 942.0, 30.6920
52.539353572, 96.390, 958.0, 30.9516
52.565614137, 96.390, 1044.0, 32.3110
52.591874703, 96.390, 1011.0, 31.7962
52.618135268, 96.390, 1003.0, 31.6702
52.644395833, 96.390, 1048.0, 32.3728
52.670656399, 96.390, 1013.0, 31.8277
52.696916964, 96.390, 975.0, 31.2250
52.723177529, 96.390, 964.0, 31.0483
52.749438095, 96.390, 993.0, 31.5119
52.775698660, 96.390, 994.0, 31.5278
52.801959225, 96.390, 977.0, 31.2570
52.828219791, 96.390, 1052.0, 32.4345
52.854480356, 96.390, 1017.0, 31.8904
52.880740922, 96.390, 978.0, 31.2730
52.907001487, 96.390, 982.0, 31.3369
52.933262052, 96.390, 1030.0, 32.0936
52.959522618, 96.390, 1040.0, 32.2490
52.985783183, 96.390, 1029.0, 32.0780
53.012043748, 96.390, 1043.0, 32.2955
53.038304314, 96.390, 1043.0, 32.2955
53.064564879, 96.390, 1038.0, 32.2180
53.090825444, 96.390, 1102.0, 33.1964
53.117086010, 96.390, 1106.0, 33.2566
53.143346575, 96.390, 1074.0, 32.7719
53.169607140, 96.390, 1055.0, 32.4808
53.195867706, 96.390, 1020.0, 31.9374
53.222128271, 96.390, 1087.0, 32.9697
53.248388836, 96.390, 1074.0, 32.7719
53.274649402, 96.390, 1069.0, 32.6956
53.300909967, 96.390, 1041.0, 32.2645
53.327170533, 96.390, 959.0, 30.9677
53.353431098, 96.390, 1008.0, 31.7490
53.379691663, 96.390, 959.0, 30.9677
53.405952229, 96.390, 941.0, 30.6757
53.432212794, 96.390, 996.0, 31.5595
53.458473359, 96.390, 959.0, 30.9677
53.484733925, 96.390, 976.0, 31.2410
53.510994490, 96.390, 989.0, 31.4484
53.537255055, 96.390, 926.0, 30.4302
53.563515621, 96.390, 913.0, 30.2159
53.589776186, 96.390, 929.0, 30.4795
53.616036751, 96.390, 942.0, 30.6920
53.642297317, 96.390, 920.0, 30.3315
53.668557882, 96.390, 995.0, 31.5436
53.694818448, 96.390, 959.0, 30.9677
53.721079013, 96.390, 855.0, 29.2404
53.747339578, 96.390, 887.0, 29.7825
53.773600144, 96.390, 923.0, 30.3809
53.799860709, 96.390, 881.0, 29.6816
53.826121274, 96.390, 902.0, 30.0333
53.852381840, 96.390, 886.0, 29.7658
53.878642405, 96.390, 921.0, 30.3480
53.904902970, 96.390, 838.0, 28.9482
53.931163536, 96.390, 951.0, 30.8383
53.957424101, 96.390, 918.0, 30.2985
53.983684666, 96.390, 872.0, 29.5296
54.009945232, 96.390, 908.0, 30.1330
54.036205797, 96.390, 873.0, 29.5466
54.062466362, 96.390, 865.0, 29.4109
54.088726928, 96.390, 915.0, 30.2490
54.114987493, 96.390, 876.0, 29.5973
54.141248059, 96.390, 841.0, 29.0000
54.167508624, 96.390, 827.0, 28.7576
54.193769189, 96.390, 855.0, 29.2404
54.220029755, 96.390, 868.0, 29.4618
54.246290320, 96.390, 865.0, 29.4109
54.272550885, 96.390, 912.0, 30.1993
54.298811451, 96.390, 829.0, 28.7924
54.325072016, 96.390, 895.0, 29.9166
54.351332581, 96.390, 894.0, 29.8998
54.377593147, 96.390, 849.0, 29.1376
54.403853712, 96.390, 873.0, 29.5466
54.430114277, 96.390, 896.0, 29.9333
54.456374843, 96.390, 830.0, 28.8097
54.482635408, 96.390, 903.0, 30.0500
54.508895973, 96.390, 839.0, 28.9655
54.535156539, 96.390, 897.0, 29.9500
54.561417104, 96.390, 889.0, 29.8161
54.587677670, 96.390, 954.0, 30.8869
54.613938235, 96.390, 853.0, 29.2062
54.640198800, 96.390, 877.0, 29.6142
54.666459366, 96.390, 860.0, 29.3258
54.692719931, 96.390, 892.0, 29.8664
54.718980496, 96.390, 862.0, 29.3598
54.745241062, 96.390, 864.0, 29.3939
54.771501627, 96.390, 885.0, 29.7489
54.797762192, 96.390, 818.0, 28.6007
54.824022758, 96.390, 888.0, 29.7993
54.850283323, 96.390, 860.0, 29.3258
54.876543888, 96.390, 892.0, 29.8664
54.902804454, 96.390, 842.0, 29.0172
54.929065019, 96.390, 856.0, 29.2575
54.955325585, 96.390, 851.0, 29.1719
54.981586150, 96.390, 891.0, 29.8496
55.007846715, 96.390, 866.0, 29.4279
55.034107281, 96.390, 902.0, 30.0333
55.060367846, 96.390, 923.0, 30.3809
55.086628411, 96.390, 838.0, 28.9482
55.112888977, 96.390, 819.0, 28.6182
55.139149542, 96.390, 871.0, 29.5127
55.165410107, 96.390, 864.0, 29.3939
55.191670673, 96.390, 865.0, 29.4109
55.217931238, 96.390, 896.0, 29.9333
55.244191803, 96.390, 826.0, 28.7402
55.270452369, 96.390, 838.0, 28.9482
55.296712934, 96.390, 877.0, 29.6142
55.322973499, 96.390, 864.0, 29.3939
55.349234065, 96.390, 837.0, 28.9310
55.375494630, 96.390, 846.0, 29.0861
55.401755196, 96.390, 824.0, 28.7054
55.428015761, 96.390, 764.0, 27.6405
55.454276326, 96.390, 796.0, 28.2135
55.480536892, 96.390, 833.0, 28.8617
55.506797457, 96.390, 851.0, 29.1719
55.533058022, 96.390, 854.0, 29.2233
55.559318588, 96.390, 844.0, 29.0517
55.585579153, 96.390, 902.0, 30.0333
55.611839718, 96.390, 813.0, 28.5132
55.638100284, 96.390, 857.0, 29.2746
55.664360849, 96.390, 823.0, 28.6880
55.690621414, 96.390, 820.0, 28.6356
55.716881980, 96.390, 812.0, 28.4956
55.743142545, 96.390, 838.0, 28.9482
55.769403111, 96.390, 805.0, 28.3725
55.795663676, 96.390, 786.0, 28.0357
55.821924241, 96.390, 875.0, 29.5804
55.848184807, 96.390, 847.0, 29.1033
55.874445372, 96.390, 809.0, 28.4429
55.900705937, 96.390, 848.0, 29.1204
55.926966503, 96.390, 831.0, 28.8271
55.953227068, 96.390, 840.0, 28.9828
55.979487633, 96.390, 891.0, 29.8496
56.005748199, 96.390, 886.0, 29.7658
56.032008764, 96.390, 857.0, 29.2746
56.058269329, 96.390, 779.0, 27.9106
56.084529895, 96.390, 802.0, 28.3196
56.110790460, 96.390, 827.0, 28.7576
56.137051025, 96.390, 779.0, 27.9106
56.163311591, 96.390, 847.0, 29.1033
56.189572156, 96.390, 872.0, 29.5296
56.215832722, 96.390, 873.0, 29.5466
56.242093287, 96.390, 847.0, 29.1033
56.268353852, 96.390, 834.0, 28.8791
56.294614418, 96.390, 813.0, 28.5132
56.320874983, 96.390, 822.0, 28.6705
56.347135548, 96.390, 874.0, 29.5635
56.373396114, 96.390, 834.0, 28.8791
56.399656679, 96.390, 878.0, 29.6311
56.425917244, 96.390, 845.0, 29.0689
56.452177810, 96.390, 879.0, 29.6479
56.478438375, 96.390, 891.0, 29.8496
56.504698940, 96.390, 850.0, 29.1548
56.530959506, 96.390, 824.0, 28.7054
56.557220071, 96.390, 827.0, 28.7576
56.583480637, 96.390, 840.0, 28.9828
56.609741202, 96.390, 882.0, 29.6985
56.636001767, 96.390, 897.0, 29.9500
56.662262333, 96.390, 886.0, 29.7658
56.688522898, 96.390, 830.0, 28.8097
56.714783463, 96.390, 840.0, 28.9828
56.741044029, 96.390, 886.0, 29.7658
56.767304594, 96.390, 854.0, 29.2233
56.793565159, 96.390, 883.0, 29.7153
56.819825725, 96.390, 899.0, 29.9833
56.846086290, 96.390, 926.0, 30.4302
56.872346855, 96.390, 899.0, 29.9833
56.898607421, 96.390, 887.0, 29.7825
56.924867986, 96.390, 848.0, 29.1204
56.951128551, 96.390, 873.0, 29.5466
56.977389117, 96.390, 871.0, 29.5127
57.003649682, 96.390, 909.0, 30.1496
57.029910248, 96.390, 901.0, 30.0167
57.056170813, 96.390, 820.0, 28.6356
57.082431378, 96.390, 901.0, 30.0167
57.108691944, 96.390, 843.0, 29.0345
57.134952509, 96.390, 902.0, 30.0333
57.161213074, 96.390, 917.0, 30.2820
57.187473640, 96.390, 941.0, 30.6757
57.213734205, 96.390, 925.0, 30.4138
57.239994770, 96.390, 938.0, 30.6268
57.266255336, 96.390, 966.0, 31.0805
57.292515901, 96.390, 1006.0, 31.7175
57.318776466, 96.390, 977.0, 31.2570
57.345037032, 96.390, 950.0, 30.8221
57.371297597, 96.390, 1016.0, 31.8748
57.397558163, 96.390, 1012.0, 31.8119
57.423818728, 96.390, 980.0, 31.3050
57.450079293, 96.390, 949.0, 30.8058
57.476339859, 96.390, 980.0, 31.3050
57.502600424, 96.390, 968.0, 31.1127
57.528860989, 96.390, 937.0, 30.6105
57.555121555, 96.390, 910.0, 30.1662
57.581382120, 96.390, 911.0, 30.1828
57.607642685, 96.390, 929.0, 30.4795
57.633903251, 96.390, 903.0, 30.0500
57.660163816, 96.390, 950.0, 30.8221
57.686424381, 96.390, 928.0, 30.4631
57.712684947, 96.390, 890.0, 29.8329
57.738945512, 96.390, 878.0, 29.6311
57.765206077, 96.390, 905.0, 30.0832
57.791466643, 96.390, 920.0, 30.3315
57.817727208, 96.390, 847.0, 29.1033
57.843987774, 96.390, 875.0, 29.5804
57.870248339, 96.390, 898.0, 29.9666
57.896508904, 96.390, 900.0, 30.0000
57.922769470, 96.390, 807.0, 28.4077
57.949030035, 96.390, 898.0, 29.9666
57.975290600, 96.390, 914.0, 30.2324
58.001551166, 96.390, 828.0, 28.7750
58.027811731, 96.390, 869.0, 29.4788
58.054072296, 96.390, 871.0, 29.5127
58.080332862, 96.390, 849.0, 29.1376
58.106593427, 96.390, 858.0, 29.2916
58.132853992, 96.390, 890.0, 29.8329
58.159114558, 96.390, 860.0, 29.3258
58.185375123, 96.390, 916.0, 30.2655
58.211635689, 96.390, 867.0, 29.4449
58.237896254, 96.390, 885.0, 29.7489
58.264156819, 96.390, 855.0, 29.2404
58.290417385, 96.390, 876.0, 29.5973
58.316677950, 96.390, 918.0, 30.2985
58.342938515, 96.390, 905.0, 30.0832
58.369199081, 96.390, 896.0, 29.9333
58.395459646, 96.390, 914.0, 30.2324
58.421720211, 96.390, 937.0, 30.6105
58.447980777, 96.390, 914.0, 30.2324
58.474241342, 96.390, 934.0, 30.5614
58.500501907, 96.390, 930.0, 30.4959
58.526762473, 96.390, 921.0, 30.3480
58.553023038, 96.390, 953.0, 30.8707
58.579283603, 96.390, 956.0, 30.9192
58.605544169, 96.390, 879.0, 29.6479
58.631804734, 96.390, 892.0, 29.8664
58.658065300, 96.390, 881.0, 29.6816
58.684325865, 96.390, 927.0, 30.4467
58.710586430, 96.390, 915.0, 30.2490
58.736846996, 96.390, 916.0, 30.2655
58.763107561, 96.390, 897.0, 29.9500
58.789368126, 96.390, 908.0, 30.1330
58.815628692, 96.390, 903.0, 30.0500
58.841889257, 96.390, 885.0, 29.7489
58.868149822, 96.390, 910.0, 30.1662
58.894410388, 96.390, 1025.0, 32.0156
58.920670953, 96.390, 915.0, 30.2490
58.946931518, 96.390, 910.0, 30.1662
58.973192084, 96.390, 948.0, 30.7896
58.999452649, 96.390, 950.0, 30.8221
59.025713214, 96.390, 940.0, 30.6594
59.051973780, 96.390, 884.0, 29.7321
59.078234345, 96.390, 933.0, 30.5450
59.104494911, 96.390, 937.0, 30.6105
59.130755476, 96.390, 926.0, 30.4302
59.157016041, 96.390, 900.0, 30.0000
59.183276607, 96.390, 957.0, 30.9354
59.209537172, 96.390, 995.0, 31.5436
59.235797737, 96.390, 964.0, 31.0483
59.262058303, 96.390, 959.0, 30.9677
59.288318868, 96.390, 993.0, 31.5119
59.314579433, 96.390, 903.0, 30.0500
59.340839999, 96.390, 1042.0, 32.2800
59.367100564, 96.390, 1012.0, 31.8119
59.393361129, 96.390, 1021.0, 31.9531
59.419621695, 96.390, 995.0, 31.5436
59.445882260, 96.390, 1051.0, 32.4191
59.472142826, 96.390, 1042.0, 32.2800
59.498403391, 96.390, 997.0, 31.5753
59.524663956, 96.390, 1030.0, 32.0936
59.550924522, 96.390, 1037.0, 32.2025
59.577185087, 96.390, 981.0, 31.3209
59.603445652, 96.390, 1005.0, 31.7017
59.629706218, 96.390, 1042.0, 32.2800
59.655966783, 96.390, 1101.0, 33.1813
59.682227348, 96.390, 1019.0, 31.9218
59.708487914, 96.390, 1029.0, 32.0780
59.734748479, 96.390, 1066.0, 32.6497
59.761009044, 96.390, 1076.0, 32.8024
59.787269610, 96.390, 1129.0, 33.6006
59.813530175, 96.390, 1063.0, 32.6037
59.839790740, 96.390, 1128.0, 33.5857
59.866051306, 96.390, 1179.0, 34.3366
59.892311871, 96.390, 1107.0, 33.2716
59.918572437, 96.390, 1166.0, 34.1467
59.944833002, 96.390, 1112.0, 33.3467
59.971093567, 96.390, 1090.0, 33.0151
59.997354133, 96.390, 1155.0, 33.9853
60.023614698, 96.390, 1153.0, 33.9559
60.049875263, 96.390, 1198.0, 34.6121
60.076135829, 96.390, 1194.0, 34.5543
60.102396394, 96.390, 1166.0, 34.1467
60.128656959, 96.390, 1168.0, 34.1760
60.154917525, 96.390, 1152.0, 33.9411
60.181178090, 96.390, 1203.0, 34.6843
60.207438655, 96.390, 1207.0, 34.7419
60.233699221, 96.390, 1249.0, 35.3412
60.259959786, 96.390, 1250.0, 35.3553
60.286220352, 96.390, 1241.0, 35.2278
60.312480917, 96.390, 1269.0, 35.6230
60.338741482, 96.390, 1334.0, 36.5240
60.365002048, 96.390, 1320.0, 36.3318
60.391262613, 96.390, 1318.0, 36.3043
60.417523178, 96.390, 1298.0, 36.0278
60.443783744, 96.390, 1331.0, 36.4829
60.470044309, 96.390, 1387.0, 37.2424
60.496304874, 96.390, 1375.0, 37.0810
60.522565440, 96.390, 1420.0, 37.6829
60.548826005, 96.390, 1322.0, 36.3593
60.575086570, 96.390, 1442.0, 37.9737
60.601347136, 96.390, 1389.0, 37.2693
60.627607701, 96.390, 1418.0, 37.6563
60.653868266, 96.390, 1388.0, 37.2559
60.680128832, 96.390, 1413.0, 37.5899
60.706389397, 96.390, 1360.0, 36.8782
60.732649963, 96.390, 1329.0, 36.4555
60.758910528, 96.390, 1432.0, 37.8418
60.785171093, 96.390, 1344.0, 36.6606
60.811431659, 96.390, 1377.0, 37.1080
60.837692224, 96.390, 1445.0, 38.0132
60.863952789, 96.390, 1410.0, 37.5500
60.890213355, 96.390, 1295.0, 35.9861
60.916473920, 96.390, 1392.0, 37.3095
60.942734485, 96.390, 1318.0, 36.3043
60.968995051, 96.390, 1326.0, 36.4143
60.995255616, 96.390, 1289.0, 35.9026
61.021516181, 96.390, 1245.0, 35.2846
61.047776747, 96.390, 1296.0, 36.0000
61.074037312, 96.390, 1254.0, 35.4119
61.100297878, 96.390, 1253.0, 35.3977
61.126558443, 96.390, 1205.0, 34.7131
61.152819008, 96.390, 1199.0, 34.6266
61.179079574, 96.390, 1164.0, 34.1174
61.205340139, 96.390, 1196.0, 34.5832
61.231600704, 96.390, 1161.0, 34.0735
61.257861270, 96.390, 1104.0, 33.2265
61.284121835, 96.390, 1153.0, 33.9559
61.310382400, 96.390, 1149.0, 33.8969
61.336642966, 96.390, 1188.0, 34.4674
61.362903531, 96.390, 1129.0, 33.6006
61.389164096, 96.390, 1109.0, 33.3017
61.415424662, 96.390, 1162.0, 34.0881
61.441685227, 96.390, 1150.0, 33.9116
61.467945792, 96.390, 1134.0, 33.6749
61.494206358, 96.390, 1113.0, 33.3617
61.520466923, 96.390, 1130.0, 33.6155
61.546727489, 96.390, 1098.0, 33.1361
61.572988054, 96.390, 1118.0, 33.4365
61.599248619, 96.390, 1111.0, 33.3317
61.625509185, 96.390, 1088.0, 32.9848
61.651769750, 96.390, 1142.0, 33.7935
61.678030315, 96.390, 1140.0, 33.7639
61.704290881, 96.390, 1154.0, 33.9706
61.730551446, 96.390, 1109.0, 33.3017
61.756812011, 96.390, 1118.0, 33.4365
61.783072577, 96.390, 1099.0, 33.1512
61.809333142, 96.390, 1045.0, 32.3265
61.835593707, 96.390, 1048.0, 32.3728
61.861854273, 96.390, 1191.0, 34.5109
61.888114838, 96.390, 1138.0, 33.7343
61.914375404, 96.390, 1126.0, 33.5559
61.940635969, 96.390, 1142.0, 33.7935
61.966896534, 96.390, 1083.0, 32.9090
61.993157100, 96.390, 1124.0, 33.5261
62.019417665, 96.390, 1123.0, 33.5112
62.045678230, 96.390, 1128.0, 33.5857
62.071938796, 96.390, 1101.0, 33.1813
62.098199361, 96.390, 1068.0, 32.6803
62.124459926, 96.390, 1069.0, 32.6956
62.150720492, 96.390, 1066.0, 32.6497
62.176981057, 96.390, 1027.0, 32.0468
62.203241622, 96.390, 1049.0, 32.3883
62.229502188, 96.390, 1132.0, 33.6452
62.255762753, 96.390, 1015.0, 31.8591
62.282023318, 96.390, 1047.0, 32.3574
62.308283884, 96.390, 1087.0, 32.9697
62.334544449, 96.390, 1005.0, 31.7017
62.360805015, 96.390, 990.0, 31.4643
62.387065580, 96.390, 1013.0, 31.8277
62.413326145, 96.390, 1020.0, 31.9374
62.439586711, 96.390, 1002.0, 31.6544
62.465847276, 96.390, 976.0, 31.2410
62.492107841, 96.390, 956.0, 30.9192
62.518368407, 96.390, 949.0, 30.8058
62.544628972, 96.390, 947.0, 30.7734
62.570889537, 96.390, 921.0, 30.3480
62.597150103, 96.390, 948.0, 30.7896
62.623410668, 96.390, 958.0, 30.9516
62.649671233, 96.390, 900.0, 30.0000
62.675931799, 96.390, 913.0, 30.2159
62.702192364, 96.390, 906.0, 30.0998
62.728452930, 96.390, 875.0, 29.5804
62.754713495, 96.390, 973.0, 31.1929
62.780974060, 96.390, 938.0, 30.6268
62.807234626, 96.390, 955.0, 30.9031
62.833495191, 96.390, 919.0, 30.3150
62.859755756, 96.390, 1001.0, 31.6386
62.886016322, 96.390, 983.0, 31.3528
62.912276887, 96.390, 881.0, 29.6816
62.938537452, 96.390, 901.0, 30.0167
62.964798018, 96.390, 896.0, 29.9333
62.991058583, 96.390, 927.0, 30.4467
63.017319148, 96.390, 876.0, 29.5973
63.043579714, 96.390, 882.0, 29.6985
63.069840279, 96.390, 900.0, 30.0000
63.096100844, 96.390, 891.0, 29.8496
63.122361410, 96.390, 865.0, 29.4109
63.148621975, 96.390, 932.0, 30.5287
63.174882541, 96.390, 895.0, 29.9166
63.201143106, 96.390, 898.0, 29.9666
63.227403671, 96.390, 850.0, 29.1548
63.253664237, 96.390, 820.0, 28.6356
63.279924802, 96.390, 838.0, 28.9482
63.306185367, 96.390, 860.0, 29.3258
63.332445933, 96.390, 814.0, 28.5307
63.358706498, 96.390, 815.0, 28.5482
63.384967063, 96.390, 807.0, 28.4077
63.411227629, 96.390, 775.0, 27.8388
63.437488194, 96.390, 814.0, 28.5307
63.463748759, 96.390, 796.0, 28.2135
63.490009325, 96.390, 793.0, 28.1603
63.516269890, 96.390, 812.0, 28.4956
63.542530455, 96.390, 794.0, 28.1780
63.568791021, 96.390, 820.0, 28.6356
63.595051586, 96.390, 763.0, 27.6225
63.621312152, 96.390, 808.0, 28.4253
63.647572717, 96.390, 782.0, 27.9643
63.673833282, 96.390, 764.0, 27.6405
63.700093848, 96.390, 831.0, 28.8271
63.726354413, 96.390, 740.0, 27.2029
63.752614978, 96.390, 771.0, 27.7669
63.778875544, 96.390, 786.0, 28.0357
63.805136109, 96.390, 817.0, 28.5832
63.831396674, 96.390, 818.0, 28.6007
63.857657240, 96.390, 758.0, 27.5318
63.883917805, 96.390, 763.0, 27.6225
63.910178370, 96.390, 811.0, 28.4781
63.936438936, 96.390, 752.0, 27.4226
63.962699501, 96.390, 786.0, 28.0357
63.988960067, 96.390, 780.0, 27.9285
64.015220632, 96.390, 782.0, 27.9643
64.041481197, 96.390, 771.0, 27.7669
64.067741763, 96.390, 743.0, 27.2580
64.094002328, 96.390, 728.0, 26.9815
64.120262893, 96.390, 731.0, 27.0370
64.146523459, 96.390, 793.0, 28.1603
64.172784024, 96.390, 769.0, 27.7308
64.199044589, 96.390, 745.0, 27.2947
64.225305155, 96.390, 731.0, 27.0370
64.251565720, 96.390, 741.0, 27.2213
64.277826285, 96.390, 720.0, 26.8328
64.304086851, 96.390, 716.0, 26.7582
64.330347416, 96.390, 719.0, 26.8142
64.356607981, 96.390, 673.0, 25.9422
64.382868547, 96.390, 671.0, 25.9037
64.409129112, 96.390, 707.0, 26.5895
64.435389678, 96.390, 646.0, 25.4165
64.461650243, 96.390, 740.0, 27.2029
64.487910808, 96.390, 682.0, 26.1151
64.514171374, 96.390, 710.0, 26.6458
64.540431939, 96.390, 680.0, 26.0768
64.566692504, 96.390, 673.0, 25.9422
64.592953070, 96.390, 644.0, 25.3772
64.619213635, 96.390, 637.0, 25.2389
64.645474200, 96.390, 670.0, 25.8844
64.671734766, 96.390, 722.0, 26.8701
64.697995331, 96.390, 640.0, 25.2982
64.724255896, 96.390, 660.0, 25.6905
64.750516462, 96.390, 698.0, 26.4197
64.776777027, 96.390, 669.0, 25.8650
64.803037593, 96.390, 666.0, 25.8070
64.829298158, 96.390, 656.0, 25.6125
64.855558723, 96.390, 654.0, 25.5734
64.881819289, 96.390, 642.0, 25.3377
64.908079854, 96.390, 663.0, 25.7488
64.934340419, 96.390, 660.0, 25.6905
64.960600985, 96.390, 729.0, 27.0000
64.986861550, 96.390, 658.0, 25.6515
