[Measurement conditions],,,
Sample identification,MNASPH_CentroidPC25Oct21_Act27Oct21,,
Comment - 1,Exposed to air for long period,,
Comment - 2,"Configuration=Stage for Flat Samples/Holders, Owner=User-1, Creation date=7/1/2020 9:53:24 AM",,
Comment - 3,Goniometer=Theta/Theta; Minimum step size 2Theta:0.0001; Minimum step size Omega:0.0001,,
Comment - 4,Sample stage=Stage for flat samples/holders,,
Comment - 5,Diffractometer system=EMPYREAN,,
Anode material,Cu,,
K-Alpha1 wavelength,1.540598,,
K-Alpha2 wavelength,1.544426,,
Ratio K-Alpha2/K-Alpha1,0.5,,
Divergence slit,Fixed,0.25,
Monochromator used,NO,,
Generator voltage,45,,
Tube current,40,,
File date and time,11/15/2021 15:40,,
Unit cell,,,
h k l, 0 0 0,,
Scan axis,Gonio,,
Scan range,4.994599997,64.99999183,
Scan step size,0.0262606,,
No. of points,2285,,
Scan type,CONTINUOUS,,
Time per step,96.39,,
[Scan points],,,
Angle, TimePerStep, Intensity, ESD
5.00773028,96.39,4740,68.8477
5.033990845,96.39,4695,68.5201
5.060251411,96.39,4789,69.2026
5.086511976,96.39,4791,69.217
5.112772541,96.39,4661,68.2715
5.139033107,96.39,4638,68.1029
5.165293672,96.39,4542,67.3944
5.191554237,96.39,4497,67.0597
5.217814803,96.39,4497,67.0597
5.244075368,96.39,4452,66.7233
5.270335934,96.39,4509,67.1491
5.296596499,96.39,4468,66.8431
5.322857064,96.39,4476,66.9029
5.34911763,96.39,4500,67.082
5.375378195,96.39,4413,66.4304
5.40163876,96.39,4366,66.0757
5.427899326,96.39,4452,66.7233
5.454159891,96.39,4341,65.8863
5.480420456,96.39,4382,66.1967
5.506681022,96.39,4395,66.2948
5.532941587,96.39,4424,66.5132
5.559202152,96.39,4363,66.053
5.585462718,96.39,4414,66.4379
5.611723283,96.39,4406,66.3777
5.637983849,96.39,4355,65.9924
5.664244414,96.39,4210,64.8845
5.690504979,96.39,4304,65.6049
5.716765545,96.39,4403,66.3551
5.74302611,96.39,4430,66.5582
5.769286675,96.39,4276,65.3911
5.795547241,96.39,4380,66.1816
5.821807806,96.39,4351,65.9621
5.848068371,96.39,4150,64.4205
5.874328937,96.39,4243,65.1383
5.900589502,96.39,4239,65.1076
5.926850067,96.39,4318,65.7115
5.953110633,96.39,4239,65.1076
5.979371198,96.39,4191,64.7379
6.005631763,96.39,4164,64.5291
6.031892329,96.39,4256,65.238
6.058152894,96.39,4242,65.1306
6.08441346,96.39,4279,65.4141
6.110674025,96.39,4250,65.192
6.13693459,96.39,4162,64.5136
6.163195156,96.39,4201,64.8151
6.189455721,96.39,4290,65.4981
6.215716286,96.39,4280,65.4217
6.241976852,96.39,4158,64.4826
6.268237417,96.39,4189,64.7225
6.294497982,96.39,4192,64.7457
6.320758548,96.39,4197,64.7843
6.347019113,96.39,4157,64.4748
6.373279678,96.39,4106,64.0781
6.399540244,96.39,4159,64.4903
6.425800809,96.39,4243,65.1383
6.452061375,96.39,4267,65.3223
6.47832194,96.39,4222,64.9769
6.504582505,96.39,4144,64.3739
6.530843071,96.39,4149,64.4127
6.557103636,96.39,4123,64.2106
6.583364201,96.39,4106,64.0781
6.609624767,96.39,4069,63.7887
6.635885332,96.39,4044,63.5925
6.662145897,96.39,4077,63.8514
6.688406463,96.39,4193,64.7534
6.714667028,96.39,4272,65.3605
6.740927593,96.39,4111,64.1171
6.767188159,96.39,4189,64.7225
6.793448724,96.39,4087,63.9296
6.819709289,96.39,4179,64.6452
6.845969855,96.39,4057,63.6946
6.87223042,96.39,4077,63.8514
6.898490986,96.39,4087,63.9296
6.924751551,96.39,4049,63.6318
6.951012116,96.39,3977,63.0635
6.977272682,96.39,4052,63.6553
7.003533247,96.39,4064,63.7495
7.029793812,96.39,4021,63.4114
7.056054378,96.39,4094,63.9844
7.082314943,96.39,3967,62.9841
7.108575508,96.39,4169,64.5678
7.134836074,96.39,4078,63.8592
7.161096639,96.39,3934,62.7216
7.187357204,96.39,3935,62.7296
7.21361777,96.39,3964,62.9603
7.239878335,96.39,3940,62.7694
7.2661389,96.39,3997,63.2218
7.292399466,96.39,3936,62.7375
7.318660031,96.39,3916,62.578
7.344920597,96.39,4022,63.4192
7.371181162,96.39,4013,63.3482
7.397441727,96.39,3967,62.9841
7.423702293,96.39,3978,63.0714
7.449962858,96.39,3971,63.0159
7.476223423,96.39,3902,62.466
7.502483989,96.39,3955,62.8888
7.528744554,96.39,3941,62.7774
7.555005119,96.39,3934,62.7216
7.581265685,96.39,3914,62.562
7.60752625,96.39,3961,62.9365
7.633786815,96.39,3875,62.2495
7.660047381,96.39,3871,62.2174
7.686307946,96.39,3849,62.0403
7.712568512,96.39,3916,62.578
7.738829077,96.39,3967,62.9841
7.765089642,96.39,3909,62.522
7.791350208,96.39,3868,62.1932
7.817610773,96.39,3973,63.0317
7.843871338,96.39,3872,62.2254
7.870131904,96.39,3974,63.0397
7.896392469,96.39,3817,61.7819
7.922653034,96.39,3769,61.3922
7.9489136,96.39,3917,62.5859
7.975174165,96.39,3965,62.9682
8.00143473,96.39,3959,62.9206
8.027695296,96.39,3933,62.7136
8.053955861,96.39,3811,61.7333
8.080216426,96.39,3789,61.5549
8.106476992,96.39,3883,62.3137
8.132737557,96.39,3922,62.6259
8.158998123,96.39,3901,62.458
8.185258688,96.39,3860,62.1289
8.211519253,96.39,3806,61.6928
8.237779819,96.39,3828,61.8708
8.264040384,96.39,3842,61.9839
8.290300949,96.39,3819,61.7981
8.316561515,96.39,3756,61.2862
8.34282208,96.39,3783,61.5061
8.369082645,96.39,3781,61.4898
8.395343211,96.39,3739,61.1474
8.421603776,96.39,3701,60.8358
8.447864341,96.39,3749,61.2291
8.474124907,96.39,3804,61.6766
8.500385472,96.39,3831,61.8951
8.526646038,96.39,3902,62.466
8.552906603,96.39,3756,61.2862
8.579167168,96.39,3807,61.7009
8.605427734,96.39,3820,61.8061
8.631688299,96.39,3790,61.563
8.657948864,96.39,3827,61.8628
8.68420943,96.39,3939,62.7615
8.710469995,96.39,4003,63.2693
8.73673056,96.39,3963,62.9524
8.762991126,96.39,3783,61.5061
8.789251691,96.39,3620,60.1664
8.815512256,96.39,3808,61.709
8.841772822,96.39,3681,60.6712
8.868033387,96.39,3734,61.1065
8.894293952,96.39,3736,61.1228
8.920554518,96.39,3673,60.6053
8.946815083,96.39,3707,60.8851
8.973075649,96.39,3657,60.4731
8.999336214,96.39,3627,60.2246
9.025596779,96.39,3569,59.7411
9.051857345,96.39,3598,59.9833
9.07811791,96.39,3719,60.9836
9.104378475,96.39,3665,60.5392
9.130639041,96.39,3603,60.025
9.156899606,96.39,3668,60.564
9.183160171,96.39,3802,61.6604
9.209420737,96.39,3676,60.63
9.235681302,96.39,3619,60.1581
9.261941867,96.39,3597,59.975
9.288202433,96.39,3600,60
9.314462998,96.39,3575,59.7913
9.340723564,96.39,3654,60.4483
9.366984129,96.39,3720,60.9918
9.393244694,96.39,3677,60.6383
9.41950526,96.39,3586,59.8832
9.445765825,96.39,3609,60.075
9.47202639,96.39,3669,60.5723
9.498286956,96.39,3647,60.3904
9.524547521,96.39,3617,60.1415
9.550808086,96.39,3659,60.4897
9.577068652,96.39,3593,59.9416
9.603329217,96.39,3581,59.8415
9.629589782,96.39,3497,59.1354
9.655850348,96.39,3639,60.3241
9.682110913,96.39,3679,60.6548
9.708371478,96.39,3648,60.3987
9.734632044,96.39,3613,60.1082
9.760892609,96.39,3482,59.0085
9.787153175,96.39,3592,59.9333
9.81341374,96.39,3645,60.3738
9.839674305,96.39,3572,59.7662
9.865934871,96.39,3504,59.1946
9.892195436,96.39,3505,59.203
9.918456001,96.39,3569,59.7411
9.944716567,96.39,3587,59.8916
9.970977132,96.39,3540,59.4979
9.997237697,96.39,3557,59.6406
10.02349826,96.39,3679,60.6548
10.04975883,96.39,3646,60.3821
10.07601939,96.39,3574,59.7829
10.10227996,96.39,3619,60.1581
10.12854052,96.39,3646,60.3821
10.15480109,96.39,3714,60.9426
10.18106166,96.39,3683,60.6877
10.20732222,96.39,3602,60.0167
10.23358279,96.39,3601,60.0083
10.25984335,96.39,3704,60.8605
10.28610392,96.39,3692,60.7618
10.31236448,96.39,3839,61.9597
10.33862505,96.39,4029,63.4744
10.36488561,96.39,4133,64.2884
10.39114618,96.39,4659,68.2569
10.41740674,96.39,5743,75.7826
10.44366731,96.39,7785,88.2326
10.46992787,96.39,11470,107.0981
10.49618844,96.39,8914,94.414
10.522449,96.39,4829,69.491
10.54870957,96.39,3680,60.663
10.57497014,96.39,3631,60.2578
10.6012307,96.39,3509,59.2368
10.62749127,96.39,3446,58.7026
10.65375183,96.39,3523,59.3549
10.6800124,96.39,3499,59.1523
10.70627296,96.39,3559,59.6574
10.73253353,96.39,3487,59.0508
10.75879409,96.39,3530,59.4138
10.78505466,96.39,3461,58.8303
10.81131522,96.39,3498,59.1439
10.83757579,96.39,3400,58.3095
10.86383635,96.39,3537,59.4727
10.89009692,96.39,3619,60.1581
10.91635749,96.39,3740,61.1555
10.94261805,96.39,3615,60.1249
10.96887862,96.39,3643,60.3573
10.99513918,96.39,4052,63.6553
11.02139975,96.39,4853,69.6635
11.04766031,96.39,4630,68.0441
11.07392088,96.39,3778,61.4654
11.10018144,96.39,3424,58.515
11.12644201,96.39,3312,57.55
11.15270257,96.39,3369,58.0431
11.17896314,96.39,3280,57.2713
11.2052237,96.39,3325,57.6628
11.23148427,96.39,3239,56.9122
11.25774483,96.39,3346,57.8446
11.2840054,96.39,3355,57.9224
11.31026597,96.39,3334,57.7408
11.33652653,96.39,3261,57.1052
11.3627871,96.39,3297,57.4195
11.38904766,96.39,3281,57.28
11.41530823,96.39,3185,56.4358
11.44156879,96.39,3225,56.7891
11.46782936,96.39,3284,57.3062
11.49408992,96.39,3228,56.8155
11.52035049,96.39,3330,57.7062
11.54661105,96.39,3187,56.4535
11.57287162,96.39,3228,56.8155
11.59913218,96.39,3238,56.9034
11.62539275,96.39,3204,56.6039
11.65165332,96.39,3156,56.1783
11.67791388,96.39,3250,57.0088
11.70417445,96.39,3077,55.4707
11.73043501,96.39,3258,57.0789
11.75669558,96.39,3143,56.0625
11.78295614,96.39,3048,55.2087
11.80921671,96.39,3130,55.9464
11.83547727,96.39,3074,55.4437
11.86173784,96.39,3171,56.3116
11.8879984,96.39,3131,55.9553
11.91425897,96.39,3116,55.8211
11.94051953,96.39,3161,56.2228
11.9667801,96.39,3007,54.8361
11.99304066,96.39,3003,54.7996
12.01930123,96.39,3071,55.4166
12.0455618,96.39,3220,56.745
12.07182236,96.39,3046,55.1906
12.09808293,96.39,3059,55.3082
12.12434349,96.39,2968,54.4794
12.15060406,96.39,2950,54.3139
12.17686462,96.39,3003,54.7996
12.20312519,96.39,2945,54.2679
12.22938575,96.39,2956,54.3691
12.25564632,96.39,2983,54.6168
12.28190688,96.39,2912,53.963
12.30816745,96.39,2915,53.9907
12.33442801,96.39,2921,54.0463
12.36068858,96.39,2903,53.8795
12.38694915,96.39,2885,53.7122
12.41320971,96.39,2886,53.7215
12.43947028,96.39,2919,54.0278
12.46573084,96.39,2990,54.6809
12.49199141,96.39,2822,53.1225
12.51825197,96.39,2832,53.2165
12.54451254,96.39,2969,54.4885
12.5707731,96.39,2795,52.8678
12.59703367,96.39,2825,53.1507
12.62329423,96.39,2838,53.2729
12.6495548,96.39,2916,54
12.67581536,96.39,2777,52.6972
12.70207593,96.39,2742,52.3641
12.72833649,96.39,2732,52.2685
12.75459706,96.39,2796,52.8772
12.78085763,96.39,2886,53.7215
12.80711819,96.39,2785,52.7731
12.83337876,96.39,2806,52.9717
12.85963932,96.39,2779,52.7162
12.88589989,96.39,2803,52.9434
12.91216045,96.39,2822,53.1225
12.93842102,96.39,2694,51.9038
12.96468158,96.39,2734,52.2877
12.99094215,96.39,2716,52.1153
13.01720271,96.39,2732,52.2685
13.04346328,96.39,2736,52.3068
13.06972384,96.39,2636,51.342
13.09598441,96.39,2740,52.345
13.12224498,96.39,2735,52.2972
13.14850554,96.39,2655,51.5267
13.17476611,96.39,2687,51.8363
13.20102667,96.39,2622,51.2055
13.22728724,96.39,2650,51.4782
13.2535478,96.39,2692,51.8845
13.27980837,96.39,2676,51.7301
13.30606893,96.39,2532,50.319
13.3323295,96.39,2574,50.7346
13.35859006,96.39,2517,50.1697
13.38485063,96.39,2567,50.6656
13.41111119,96.39,2592,50.9117
13.43737176,96.39,2589,50.8822
13.46363232,96.39,2520,50.1996
13.48989289,96.39,2513,50.1298
13.51615346,96.39,2583,50.8232
13.54241402,96.39,2607,51.0588
13.56867459,96.39,2689,51.8556
13.59493515,96.39,2777,52.6972
13.62119572,96.39,2899,53.8424
13.64745628,96.39,2758,52.5167
13.67371685,96.39,2788,52.8015
13.69997741,96.39,2754,52.4786
13.72623798,96.39,3244,56.9561
13.75249854,96.39,3583,59.8582
13.77875911,96.39,4332,65.8179
13.80501967,96.39,5147,71.7426
13.83128024,96.39,5163,71.854
13.85754081,96.39,3832,61.9032
13.88380137,96.39,2816,53.066
13.91006194,96.39,2633,51.3128
13.9363225,96.39,2581,50.8035
13.96258307,96.39,2697,51.9326
13.98884363,96.39,2665,51.6236
14.0151042,96.39,2766,52.5928
14.04136476,96.39,2822,53.1225
14.06762533,96.39,2789,52.811
14.09388589,96.39,2970,54.4977
14.12014646,96.39,3350,57.8792
14.14640702,96.39,4076,63.8436
14.17266759,96.39,5368,73.2666
14.19892815,96.39,6470,80.4363
14.22518872,96.39,9563,97.7906
14.25144929,96.39,13378,115.6633
14.27770985,96.39,23677,153.8733
14.30397042,96.39,31117,176.4001
14.33023098,96.39,20039,141.5592
14.35649155,96.39,9264,96.2497
14.38275211,96.39,3437,58.6259
14.40901268,96.39,2840,53.2917
14.43527324,96.39,2598,50.9706
14.46153381,96.39,2550,50.4975
14.48779437,96.39,2599,50.9804
14.51405494,96.39,2480,49.7996
14.5403155,96.39,2414,49.1325
14.56657607,96.39,2521,50.2096
14.59283663,96.39,2345,48.4252
14.6190972,96.39,2373,48.7134
14.64535777,96.39,2335,48.3218
14.67161833,96.39,2326,48.2286
14.6978789,96.39,2331,48.2804
14.72413946,96.39,2337,48.3425
14.75040003,96.39,2355,48.5283
14.77666059,96.39,2408,49.0714
14.80292116,96.39,2389,48.8774
14.82918172,96.39,2383,48.816
14.85544229,96.39,2296,47.9166
14.88170285,96.39,2259,47.5289
14.90796342,96.39,2351,48.4871
14.93422398,96.39,2366,48.6415
14.96048455,96.39,2377,48.7545
14.98674512,96.39,2286,47.8121
15.01300568,96.39,2237,47.2969
15.03926625,96.39,2282,47.7703
15.06552681,96.39,2240,47.3286
15.09178738,96.39,2256,47.4974
15.11804794,96.39,2277,47.7179
15.14430851,96.39,2236,47.2864
15.17056907,96.39,2250,47.4342
15.19682964,96.39,2405,49.0408
15.2230902,96.39,2314,48.1041
15.24935077,96.39,2274,47.6865
15.27561133,96.39,2308,48.0416
15.3018719,96.39,2313,48.0937
15.32813246,96.39,2327,48.239
15.35439303,96.39,2317,48.1352
15.3806536,96.39,2231,47.2335
15.40691416,96.39,2223,47.1487
15.43317473,96.39,2292,47.8748
15.45943529,96.39,2300,47.9583
15.48569586,96.39,2248,47.4131
15.51195642,96.39,2295,47.9062
15.53821699,96.39,2277,47.7179
15.56447755,96.39,2357,48.5489
15.59073812,96.39,2191,46.8081
15.61699868,96.39,2251,47.4447
15.64325925,96.39,2364,48.621
15.66951981,96.39,2215,47.0638
15.69578038,96.39,2296,47.9166
15.72204095,96.39,2346,48.4355
15.74830151,96.39,2276,47.7074
15.77456208,96.39,2258,47.5184
15.80082264,96.39,2224,47.1593
15.82708321,96.39,2336,48.3322
15.85334377,96.39,2306,48.0208
15.87960434,96.39,2247,47.4025
15.9058649,96.39,2238,47.3075
15.93212547,96.39,2253,47.4658
15.95838603,96.39,2190,46.7974
15.9846466,96.39,2236,47.2864
16.01090716,96.39,2288,47.833
16.03716773,96.39,2217,47.085
16.06342829,96.39,2263,47.571
16.08968886,96.39,2269,47.634
16.11594943,96.39,2246,47.392
16.14220999,96.39,2264,47.5815
16.16847056,96.39,2261,47.55
16.19473112,96.39,2142,46.2817
16.22099169,96.39,2207,46.9787
16.24725225,96.39,2197,46.8722
16.27351282,96.39,2233,47.2546
16.29977338,96.39,2234,47.2652
16.32603395,96.39,2239,47.3181
16.35229451,96.39,2198,46.8828
16.37855508,96.39,2262,47.5605
16.40481564,96.39,2177,46.6583
16.43107621,96.39,2162,46.4973
16.45733678,96.39,2195,46.8508
16.48359734,96.39,2151,46.3789
16.50985791,96.39,2264,47.5815
16.53611847,96.39,2106,45.8912
16.56237904,96.39,2225,47.1699
16.5886396,96.39,2207,46.9787
16.61490017,96.39,2272,47.6655
16.64116073,96.39,2121,46.0543
16.6674213,96.39,2218,47.0956
16.69368186,96.39,2156,46.4327
16.71994243,96.39,2247,47.4025
16.74620299,96.39,2215,47.0638
16.77246356,96.39,2217,47.085
16.79872412,96.39,2191,46.8081
16.82498469,96.39,2298,47.9375
16.85124526,96.39,2306,48.0208
16.87750582,96.39,2319,48.156
16.90376639,96.39,2387,48.8569
16.93002695,96.39,2560,50.5964
16.95628752,96.39,2405,49.0408
16.98254808,96.39,2404,49.0306
17.00880865,96.39,2302,47.9792
17.03506921,96.39,2192,46.8188
17.06132978,96.39,2160,46.4758
17.08759034,96.39,2190,46.7974
17.11385091,96.39,2197,46.8722
17.14011147,96.39,2197,46.8722
17.16637204,96.39,2251,47.4447
17.19263261,96.39,2330,48.2701
17.21889317,96.39,2193,46.8295
17.24515374,96.39,2234,47.2652
17.2714143,96.39,2296,47.9166
17.29767487,96.39,2400,48.9898
17.32393543,96.39,2339,48.3632
17.350196,96.39,2360,48.5798
17.37645656,96.39,2579,50.7839
17.40271713,96.39,3035,55.0908
17.42897769,96.39,3081,55.5068
17.45523826,96.39,2861,53.4883
17.48149882,96.39,2571,50.705
17.50775939,96.39,2468,49.679
17.53401995,96.39,2262,47.5605
17.56028052,96.39,2230,47.2229
17.58654109,96.39,2309,48.0521
17.61280165,96.39,2226,47.1805
17.63906222,96.39,2335,48.3218
17.66532278,96.39,2149,46.3573
17.69158335,96.39,2305,48.0104
17.71784391,96.39,2292,47.8748
17.74410448,96.39,2219,47.1063
17.77036504,96.39,2121,46.0543
17.79662561,96.39,2246,47.392
17.82288617,96.39,2312,48.0833
17.84914674,96.39,2268,47.6235
17.8754073,96.39,2143,46.2925
17.90166787,96.39,2257,47.5079
17.92792843,96.39,2267,47.613
17.954189,96.39,2281,47.7598
17.98044957,96.39,2349,48.4665
18.00671013,96.39,2370,48.6826
18.0329707,96.39,2330,48.2701
18.05923126,96.39,2336,48.3322
18.08549183,96.39,2402,49.0102
18.11175239,96.39,2501,50.01
18.13801296,96.39,2533,50.3289
18.16427352,96.39,2455,49.548
18.19053409,96.39,2500,50
18.21679465,96.39,2505,50.05
18.24305522,96.39,2628,51.264
18.26931578,96.39,2765,52.5833
18.29557635,96.39,3135,55.9911
18.32183692,96.39,3009,54.8544
18.34809748,96.39,2935,54.1756
18.37435805,96.39,2911,53.9537
18.40061861,96.39,3031,55.0545
18.42687918,96.39,3611,60.0916
18.45313974,96.39,4255,65.2304
18.47940031,96.39,3988,63.1506
18.50566087,96.39,3246,56.9737
18.53192144,96.39,2823,53.1319
18.558182,96.39,2421,49.2037
18.58444257,96.39,2415,49.1426
18.61070313,96.39,2316,48.1248
18.6369637,96.39,2308,48.0416
18.66322426,96.39,2349,48.4665
18.68948483,96.39,2317,48.1352
18.7157454,96.39,2448,49.4773
18.74200596,96.39,2405,49.0408
18.76826653,96.39,2351,48.4871
18.79452709,96.39,2501,50.01
18.82078766,96.39,2362,48.6004
18.84704822,96.39,2338,48.3529
18.87330879,96.39,2431,49.3052
18.89956935,96.39,2499,49.99
18.92582992,96.39,2814,53.0471
18.95209048,96.39,3179,56.3826
18.97835105,96.39,3525,59.3717
19.00461161,96.39,4730,68.775
19.03087218,96.39,4007,63.3009
19.05713275,96.39,3578,59.8164
19.08339331,96.39,2939,54.2125
19.10965388,96.39,2470,49.6991
19.13591444,96.39,2381,48.7955
19.16217501,96.39,2580,50.7937
19.18843557,96.39,2426,49.2544
19.21469614,96.39,2417,49.163
19.2409567,96.39,2287,47.8226
19.26721727,96.39,2427,49.2646
19.29347783,96.39,2516,50.1597
19.3197384,96.39,2403,49.0204
19.34599896,96.39,2453,49.5278
19.37225953,96.39,2478,49.7795
19.39852009,96.39,2529,50.2892
19.42478066,96.39,2666,51.6333
19.45104123,96.39,2671,51.6817
19.47730179,96.39,2851,53.3948
19.50356236,96.39,2895,53.8052
19.52982292,96.39,2834,53.2353
19.55608349,96.39,2701,51.9711
19.58234405,96.39,2594,50.9313
19.60860462,96.39,2664,51.614
19.63486518,96.39,2602,51.0098
19.66112575,96.39,2607,51.0588
19.68738631,96.39,2746,52.4023
19.71364688,96.39,2805,52.9623
19.73990744,96.39,3105,55.7225
19.76616801,96.39,3692,60.7618
19.79242858,96.39,4641,68.1249
19.81868914,96.39,3723,61.0164
19.84494971,96.39,3468,58.8897
19.87121027,96.39,2947,54.2863
19.89747084,96.39,2499,49.99
19.9237314,96.39,2624,51.225
19.94999197,96.39,2512,50.1199
19.97625253,96.39,2578,50.774
20.0025131,96.39,2526,50.2593
20.02877366,96.39,2410,49.0918
20.05503423,96.39,2566,50.6557
20.08129479,96.39,2503,50.03
20.10755536,96.39,2569,50.6853
20.13381592,96.39,2583,50.8232
20.16007649,96.39,2659,51.5655
20.18633706,96.39,2648,51.4587
20.21259762,96.39,2680,51.7687
20.23885819,96.39,2613,51.1175
20.26511875,96.39,2739,52.3355
20.29137932,96.39,2752,52.4595
20.31763988,96.39,2813,53.0377
20.34390045,96.39,3223,56.7715
20.37016101,96.39,3345,57.836
20.39642158,96.39,3958,62.9126
20.42268214,96.39,4260,65.2687
20.44894271,96.39,3895,62.4099
20.47520327,96.39,3565,59.7076
20.50146384,96.39,3127,55.9196
20.52772441,96.39,2965,54.4518
20.55398497,96.39,3076,55.4617
20.58024554,96.39,3150,56.1249
20.6065061,96.39,3517,59.3043
20.63276667,96.39,3444,58.6856
20.65902723,96.39,3130,55.9464
20.6852878,96.39,2997,54.7449
20.71154836,96.39,2678,51.7494
20.73780893,96.39,2573,50.7247
20.76406949,96.39,2677,51.7397
20.79033006,96.39,2611,51.0979
20.81659062,96.39,2625,51.2348
20.84285119,96.39,2655,51.5267
20.86911175,96.39,2843,53.3198
20.89537232,96.39,2886,53.7215
20.92163289,96.39,3047,55.1996
20.94789345,96.39,3164,56.2494
20.97415402,96.39,4004,63.2772
21.00041458,96.39,6336,79.599
21.02667515,96.39,5732,75.71
21.05293571,96.39,4535,67.3424
21.07919628,96.39,4111,64.1171
21.10545684,96.39,2986,54.6443
21.13171741,96.39,2650,51.4782
21.15797797,96.39,2636,51.342
21.18423854,96.39,2624,51.225
21.2104991,96.39,2637,51.3517
21.23675967,96.39,2687,51.8363
21.26302024,96.39,2645,51.4296
21.2892808,96.39,2673,51.7011
21.31554137,96.39,2678,51.7494
21.34180193,96.39,2669,51.6624
21.3680625,96.39,2716,52.1153
21.39432306,96.39,2710,52.0577
21.42058363,96.39,2575,50.7445
21.44684419,96.39,2661,51.5849
21.47310476,96.39,2657,51.5461
21.49936532,96.39,2692,51.8845
21.52562589,96.39,2742,52.3641
21.55188645,96.39,2712,52.0769
21.57814702,96.39,2794,52.8583
21.60440758,96.39,2720,52.1536
21.63066815,96.39,2807,52.9811
21.65692872,96.39,2876,53.6284
21.68318928,96.39,2854,53.4228
21.70944985,96.39,2845,53.3385
21.73571041,96.39,3041,55.1453
21.76197098,96.39,2920,54.037
21.78823154,96.39,2853,53.4135
21.81449211,96.39,2772,52.6498
21.84075267,96.39,2737,52.3163
21.86701324,96.39,2732,52.2685
21.8932738,96.39,2638,51.3615
21.91953437,96.39,2714,52.0961
21.94579493,96.39,2771,52.6403
21.9720555,96.39,2646,51.4393
21.99831606,96.39,2691,51.8748
22.02457663,96.39,2685,51.817
22.0508372,96.39,2686,51.8266
22.07709776,96.39,2722,52.1728
22.10335833,96.39,2770,52.6308
22.12961889,96.39,2774,52.6688
22.15587946,96.39,2684,51.8073
22.18214002,96.39,2799,52.9056
22.20840059,96.39,2787,52.792
22.23466115,96.39,2786,52.7826
22.26092172,96.39,2703,51.9904
22.28718228,96.39,2660,51.5752
22.31344285,96.39,2812,53.0283
22.33970341,96.39,2758,52.5167
22.36596398,96.39,2740,52.345
22.39222455,96.39,2818,53.0848
22.41848511,96.39,2763,52.5642
22.44474568,96.39,2760,52.5357
22.47100624,96.39,2764,52.5738
22.49726681,96.39,2843,53.3198
22.52352737,96.39,2817,53.0754
22.54978794,96.39,2888,53.7401
22.5760485,96.39,2957,54.3783
22.60230907,96.39,2880,53.6656
22.62856963,96.39,2757,52.5071
22.6548302,96.39,2762,52.5547
22.68109076,96.39,2725,52.2015
22.70735133,96.39,2796,52.8772
22.73361189,96.39,2803,52.9434
22.75987246,96.39,2873,53.6004
22.78613303,96.39,2802,52.9339
22.81239359,96.39,2859,53.4696
22.83865416,96.39,2845,53.3385
22.86491472,96.39,2826,53.1601
22.89117529,96.39,2872,53.591
22.91743585,96.39,2872,53.591
22.94369642,96.39,2763,52.5642
22.96995698,96.39,2723,52.1824
22.99621755,96.39,2688,51.8459
23.02247811,96.39,2893,53.7866
23.04873868,96.39,2685,51.817
23.07499924,96.39,2839,53.2823
23.10125981,96.39,2717,52.1249
23.12752038,96.39,2727,52.2207
23.15378094,96.39,2635,51.3323
23.18004151,96.39,2923,54.0648
23.20630207,96.39,2669,51.6624
23.23256264,96.39,2738,52.3259
23.2588232,96.39,2835,53.2447
23.28508377,96.39,2694,51.9038
23.31134433,96.39,2668,51.6527
23.3376049,96.39,2747,52.4118
23.36386546,96.39,2814,53.0471
23.39012603,96.39,2806,52.9717
23.41638659,96.39,2902,53.8702
23.44264716,96.39,3190,56.4801
23.46890772,96.39,3639,60.3241
23.49516829,96.39,4645,68.1542
23.52142886,96.39,5381,73.3553
23.54768942,96.39,4351,65.9621
23.57394999,96.39,3862,62.145
23.60021055,96.39,3435,58.6089
23.62647112,96.39,2780,52.7257
23.65273168,96.39,2715,52.1057
23.67899225,96.39,2556,50.5569
23.70525281,96.39,2763,52.5642
23.73151338,96.39,2675,51.7204
23.75777394,96.39,2762,52.5547
23.78403451,96.39,2689,51.8556
23.81029507,96.39,2557,50.5668
23.83655564,96.39,2610,51.0882
23.86281621,96.39,2515,50.1498
23.88907677,96.39,2604,51.0294
23.91533734,96.39,2515,50.1498
23.9415979,96.39,2603,51.0196
23.96785847,96.39,2526,50.2593
23.99411903,96.39,2639,51.3712
24.0203796,96.39,2646,51.4393
24.04664016,96.39,2708,52.0384
24.07290073,96.39,2997,54.7449
24.09916129,96.39,3127,55.9196
24.12542186,96.39,2933,54.1572
24.15168242,96.39,3068,55.3895
24.17794299,96.39,3022,54.9727
24.20420355,96.39,3214,56.6922
24.23046412,96.39,3750,61.2372
24.25672469,96.39,4484,66.9627
24.28298525,96.39,3658,60.4814
24.30924582,96.39,3571,59.7578
24.33550638,96.39,3491,59.0847
24.36176695,96.39,2951,54.3231
24.38802751,96.39,2752,52.4595
24.41428808,96.39,2899,53.8424
24.44054864,96.39,3010,54.8635
24.46680921,96.39,3279,57.2626
24.49306977,96.39,4219,64.9538
24.51933034,96.39,6822,82.5954
24.5455909,96.39,10491,102.4256
24.57185147,96.39,14386,119.9417
24.59811204,96.39,8686,93.1987
24.6243726,96.39,7558,86.9368
24.65063317,96.39,5843,76.4395
24.67689373,96.39,2862,53.4977
24.7031543,96.39,2582,50.8134
24.72941486,96.39,2468,49.679
24.75567543,96.39,2399,48.9796
24.78193599,96.39,2346,48.4355
24.80819656,96.39,2390,48.8876
24.83445712,96.39,2348,48.4562
24.86071769,96.39,2309,48.0521
24.88697825,96.39,2336,48.3322
24.91323882,96.39,2303,47.9896
24.93949938,96.39,2404,49.0306
24.96575995,96.39,2330,48.2701
24.99202052,96.39,2476,49.7594
25.01828108,96.39,2444,49.4368
25.04454165,96.39,2352,48.4974
25.07080221,96.39,2385,48.8365
25.09706278,96.39,2345,48.4252
25.12332334,96.39,2296,47.9166
25.14958391,96.39,2263,47.571
25.17584447,96.39,2206,46.9681
25.20210504,96.39,2361,48.5901
25.2283656,96.39,2205,46.9574
25.25462617,96.39,2273,47.676
25.28088673,96.39,2317,48.1352
25.3071473,96.39,2244,47.3709
25.33340786,96.39,2336,48.3322
25.35966843,96.39,2501,50.01
25.385929,96.39,2839,53.2823
25.41218956,96.39,3052,55.2449
25.43845013,96.39,2827,53.1695
25.46471069,96.39,2670,51.672
25.49097126,96.39,2478,49.7795
25.51723182,96.39,2344,48.4149
25.54349239,96.39,2147,46.3357
25.56975295,96.39,2237,47.2969
25.59601352,96.39,2179,46.6798
25.62227408,96.39,2180,46.6905
25.64853465,96.39,2258,47.5184
25.67479521,96.39,2232,47.244
25.70105578,96.39,2303,47.9896
25.72731635,96.39,2228,47.2017
25.75357691,96.39,2190,46.7974
25.77983748,96.39,2193,46.8295
25.80609804,96.39,2205,46.9574
25.83235861,96.39,2353,48.5077
25.85861917,96.39,2458,49.5782
25.88487974,96.39,2372,48.7032
25.9111403,96.39,2251,47.4447
25.93740087,96.39,2195,46.8508
25.96366143,96.39,2169,46.5725
25.989922,96.39,2154,46.4112
26.01618256,96.39,2135,46.2061
26.04244313,96.39,2041,45.1774
26.06870369,96.39,2091,45.7275
26.09496426,96.39,2142,46.2817
26.12122483,96.39,2095,45.7712
26.14748539,96.39,2049,45.2659
26.17374596,96.39,2071,45.5082
26.20000652,96.39,2047,45.2438
26.22626709,96.39,2088,45.6946
26.25252765,96.39,2079,45.5961
26.27878822,96.39,2153,46.4004
26.30504878,96.39,2135,46.2061
26.33130935,96.39,2114,45.9783
26.35756991,96.39,2089,45.7056
26.38383048,96.39,2100,45.8258
26.41009104,96.39,2014,44.8776
26.43635161,96.39,1986,44.5646
26.46261218,96.39,2081,45.618
26.48887274,96.39,2086,45.6727
26.51513331,96.39,2051,45.288
26.54139387,96.39,1988,44.587
26.56765444,96.39,2083,45.6399
26.593915,96.39,2063,45.4203
26.62017557,96.39,2161,46.4866
26.64643613,96.39,2251,47.4447
26.6726967,96.39,2370,48.6826
26.69895726,96.39,2456,49.558
26.72521783,96.39,2183,46.7226
26.75147839,96.39,2265,47.592
26.77773896,96.39,2096,45.7821
26.80399952,96.39,2029,45.0444
26.83026009,96.39,2002,44.7437
26.85652066,96.39,2084,45.6508
26.88278122,96.39,1993,44.643
26.90904179,96.39,2070,45.4973
26.93530235,96.39,2218,47.0956
26.96156292,96.39,2182,46.7119
26.98782348,96.39,2157,46.4435
27.01408405,96.39,2228,47.2017
27.04034461,96.39,2284,47.7912
27.06660518,96.39,2206,46.9681
27.09286574,96.39,2228,47.2017
27.11912631,96.39,2130,46.1519
27.14538687,96.39,2070,45.4973
27.17164744,96.39,2096,45.7821
27.19790801,96.39,2099,45.8148
27.22416857,96.39,2041,45.1774
27.25042914,96.39,2069,45.4863
27.2766897,96.39,2143,46.2925
27.30295027,96.39,2190,46.7974
27.32921083,96.39,2576,50.7543
27.3554714,96.39,2556,50.5569
27.38173196,96.39,2156,46.4327
27.40799253,96.39,2271,47.655
27.43425309,96.39,2149,46.3573
27.46051366,96.39,1976,44.4522
27.48677422,96.39,2070,45.4973
27.51303479,96.39,2008,44.8107
27.53929535,96.39,2051,45.288
27.56555592,96.39,2155,46.422
27.59181649,96.39,2209,47
27.61807705,96.39,2249,47.4236
27.64433762,96.39,2618,51.1664
27.67059818,96.39,2932,54.1479
27.69685875,96.39,2992,54.6992
27.72311931,96.39,2907,53.9166
27.74937988,96.39,2534,50.3389
27.77564044,96.39,2455,49.548
27.80190101,96.39,2274,47.6865
27.82816157,96.39,2161,46.4866
27.85442214,96.39,2084,45.6508
27.8806827,96.39,1992,44.6318
27.90694327,96.39,2045,45.2217
27.93320384,96.39,2004,44.7661
27.9594644,96.39,1956,44.2267
27.98572497,96.39,1930,43.9318
28.01198553,96.39,1900,43.589
28.0382461,96.39,1928,43.909
28.06450666,96.39,1939,44.0341
28.09076723,96.39,1929,43.9204
28.11702779,96.39,1970,44.3847
28.14328836,96.39,2001,44.7325
28.16954892,96.39,1972,44.4072
28.19580949,96.39,2013,44.8665
28.22207005,96.39,1993,44.643
28.24833062,96.39,2105,45.8803
28.27459118,96.39,2212,47.0319
28.30085175,96.39,2101,45.8367
28.32711232,96.39,2016,44.8999
28.35337288,96.39,2013,44.8665
28.37963345,96.39,2075,45.5522
28.40589401,96.39,2024,44.9889
28.43215458,96.39,1946,44.1135
28.45841514,96.39,1909,43.6921
28.48467571,96.39,2074,45.5412
28.51093627,96.39,2066,45.4533
28.53719684,96.39,1942,44.0681
28.5634574,96.39,1951,44.1701
28.58971797,96.39,2088,45.6946
28.61597853,96.39,2037,45.1331
28.6422391,96.39,1914,43.7493
28.66849967,96.39,1918,43.795
28.69476023,96.39,2062,45.4093
28.7210208,96.39,1873,43.2782
28.74728136,96.39,2035,45.111
28.77354193,96.39,1944,44.0908
28.79980249,96.39,2001,44.7325
28.82606306,96.39,2101,45.8367
28.85232362,96.39,2021,44.9555
28.87858419,96.39,1931,43.9431
28.90484475,96.39,2210,47.0106
28.93110532,96.39,2399,48.9796
28.95736588,96.39,2796,52.8772
28.98362645,96.39,2306,48.0208
29.00988701,96.39,2209,47
29.03614758,96.39,2338,48.3529
29.06240815,96.39,2118,46.0217
29.08866871,96.39,2027,45.0222
29.11492928,96.39,2058,45.3652
29.14118984,96.39,2029,45.0444
29.16745041,96.39,2097,45.793
29.19371097,96.39,2063,45.4203
29.21997154,96.39,1999,44.7102
29.2462321,96.39,1824,42.7083
29.27249267,96.39,1983,44.5309
29.29875323,96.39,1942,44.0681
29.3250138,96.39,1963,44.3058
29.35127436,96.39,1933,43.9659
29.37753493,96.39,1927,43.8976
29.40379549,96.39,2040,45.1664
29.43005606,96.39,2052,45.299
29.45631663,96.39,1971,44.3959
29.48257719,96.39,1967,44.3509
29.50883776,96.39,2081,45.618
29.53509832,96.39,1907,43.6692
29.56135889,96.39,1952,44.1814
29.58761945,96.39,1991,44.6206
29.61388002,96.39,2031,45.0666
29.64014058,96.39,2041,45.1774
29.66640115,96.39,2058,45.3652
29.69266171,96.39,2005,44.7772
29.71892228,96.39,2048,45.2548
29.74518284,96.39,2023,44.9778
29.77144341,96.39,1952,44.1814
29.79770398,96.39,1920,43.8178
29.82396454,96.39,2048,45.2548
29.85022511,96.39,1961,44.2832
29.87648567,96.39,2025,45
29.90274624,96.39,1949,44.1475
29.9290068,96.39,1908,43.6807
29.95526737,96.39,1877,43.3244
29.98152793,96.39,1885,43.4166
30.0077885,96.39,1968,44.3621
30.03404906,96.39,1970,44.3847
30.06030963,96.39,1905,43.6463
30.08657019,96.39,1947,44.1248
30.11283076,96.39,1923,43.852
30.13909132,96.39,1941,44.0568
30.16535189,96.39,2005,44.7772
30.19161246,96.39,1987,44.5758
30.21787302,96.39,1900,43.589
30.24413359,96.39,1858,43.1045
30.27039415,96.39,1998,44.699
30.29665472,96.39,1905,43.6463
30.32291528,96.39,1903,43.6234
30.34917585,96.39,1952,44.1814
30.37543641,96.39,1987,44.5758
30.40169698,96.39,2157,46.4435
30.42795754,96.39,2059,45.3762
30.45421811,96.39,2181,46.7012
30.48047867,96.39,2412,49.1121
30.50673924,96.39,2459,49.5883
30.53299981,96.39,2425,49.2443
30.55926037,96.39,2301,47.9687
30.58552094,96.39,2391,48.8979
30.6117815,96.39,2595,50.9411
30.63804207,96.39,3104,55.7136
30.66430263,96.39,3725,61.0328
30.6905632,96.39,4330,65.8027
30.71682376,96.39,4574,67.6314
30.74308433,96.39,3886,62.3378
30.76934489,96.39,3282,57.2887
30.79560546,96.39,3402,58.3267
30.82186602,96.39,2805,52.9623
30.84812659,96.39,2341,48.3839
30.87438715,96.39,2239,47.3181
30.90064772,96.39,2143,46.2925
30.92690829,96.39,2161,46.4866
30.95316885,96.39,2195,46.8508
30.97942942,96.39,2179,46.6798
31.00568998,96.39,2328,48.2494
31.03195055,96.39,2441,49.4065
31.05821111,96.39,2455,49.548
31.08447168,96.39,2221,47.1275
31.11073224,96.39,2127,46.1194
31.13699281,96.39,2174,46.6262
31.16325337,96.39,2058,45.3652
31.18951394,96.39,2036,45.1221
31.2157745,96.39,2008,44.8107
31.24203507,96.39,1926,43.8862
31.26829564,96.39,1986,44.5646
31.2945562,96.39,2036,45.1221
31.32081677,96.39,2077,45.5741
31.34707733,96.39,2343,48.4045
31.3733379,96.39,2423,49.224
31.39959846,96.39,2471,49.7092
31.42585903,96.39,2354,48.518
31.45211959,96.39,2311,48.0729
31.47838016,96.39,2512,50.1199
31.50464072,96.39,2648,51.4587
31.53090129,96.39,2871,53.5817
31.55716185,96.39,2668,51.6527
31.58342242,96.39,2949,54.3047
31.60968298,96.39,3614,60.1166
31.63594355,96.39,4217,64.9384
31.66220412,96.39,5962,77.214
31.68846468,96.39,11585,107.6336
31.71472525,96.39,30564,174.8256
31.74098581,96.39,48035,219.1689
31.76724638,96.39,18823,137.1969
31.79350694,96.39,16586,128.7866
31.81976751,96.39,25326,159.1414
31.84602807,96.39,10837,104.1009
31.87228864,96.39,3746,61.2046
31.8985492,96.39,2906,53.9073
31.92480977,96.39,2694,51.9038
31.95107033,96.39,2537,50.3686
31.9773309,96.39,2460,49.5984
32.00359147,96.39,2136,46.2169
32.02985203,96.39,2223,47.1487
32.0561126,96.39,2152,46.3897
32.08237316,96.39,2069,45.4863
32.10863373,96.39,2105,45.8803
32.13489429,96.39,2089,45.7056
32.16115486,96.39,1977,44.4635
32.18741542,96.39,2108,45.913
32.21367599,96.39,2181,46.7012
32.23993655,96.39,2016,44.8999
32.26619712,96.39,1989,44.5982
32.29245768,96.39,2035,45.111
32.31871825,96.39,2026,45.0111
32.34497881,96.39,1998,44.699
32.37123938,96.39,2137,46.2277
32.39749995,96.39,2158,46.4543
32.42376051,96.39,2097,45.793
32.45002108,96.39,1916,43.7721
32.47628164,96.39,2066,45.4533
32.50254221,96.39,1976,44.4522
32.52880277,96.39,2018,44.9222
32.55506334,96.39,1978,44.4747
32.5813239,96.39,1937,44.0114
32.60758447,96.39,2010,44.833
32.63384503,96.39,2041,45.1774
32.6601056,96.39,2076,45.5631
32.68636616,96.39,2139,46.2493
32.71262673,96.39,2095,45.7712
32.7388873,96.39,1945,44.1022
32.76514786,96.39,2036,45.1221
32.79140843,96.39,1993,44.643
32.81766899,96.39,1892,43.4971
32.84392956,96.39,2049,45.2659
32.87019012,96.39,1991,44.6206
32.89645069,96.39,2079,45.5961
32.92271125,96.39,2094,45.7602
32.94897182,96.39,2234,47.2652
32.97523238,96.39,2342,48.3942
33.00149295,96.39,2472,49.7192
33.02775351,96.39,3013,54.8908
33.05401408,96.39,3470,58.9067
33.08027464,96.39,2998,54.754
33.10653521,96.39,3309,57.5239
33.13279578,96.39,3815,61.7657
33.15905634,96.39,3568,59.7327
33.18531691,96.39,2906,53.9073
33.21157747,96.39,2793,52.8488
33.23783804,96.39,2840,53.2917
33.2640986,96.39,2576,50.7543
33.29035917,96.39,2303,47.9896
33.31661973,96.39,2459,49.5883
33.3428803,96.39,2468,49.679
33.36914086,96.39,2774,52.6688
33.39540143,96.39,3782,61.498
33.42166199,96.39,4938,70.2709
33.44792256,96.39,6013,77.5435
33.47418312,96.39,5778,76.0132
33.50044369,96.39,5290,72.7324
33.52670426,96.39,5179,71.9653
33.55296482,96.39,4054,63.671
33.57922539,96.39,3362,57.9828
33.60548595,96.39,2748,52.4214
33.63174652,96.39,2347,48.4458
33.65800708,96.39,2005,44.7772
33.68426765,96.39,1976,44.4522
33.71052821,96.39,1886,43.4281
33.73678878,96.39,1915,43.7607
33.76304934,96.39,1959,44.2606
33.78930991,96.39,1968,44.3621
33.81557047,96.39,2022,44.9667
33.84183104,96.39,2116,46
33.86809161,96.39,2283,47.7807
33.89435217,96.39,2311,48.0729
33.92061274,96.39,2197,46.8722
33.9468733,96.39,2272,47.6655
33.97313387,96.39,2405,49.0408
33.99939443,96.39,2298,47.9375
34.025655,96.39,2113,45.9674
34.05191556,96.39,2158,46.4543
34.07817613,96.39,2107,45.9021
34.10443669,96.39,2043,45.1996
34.13069726,96.39,2074,45.5412
34.15695782,96.39,2021,44.9555
34.18321839,96.39,2094,45.7602
34.20947895,96.39,2048,45.2548
34.23573952,96.39,2291,47.8644
34.26200009,96.39,2427,49.2646
34.28826065,96.39,2611,51.0979
34.31452122,96.39,2658,51.5558
34.34078178,96.39,2943,54.2494
34.36704235,96.39,3404,58.3438
34.39330291,96.39,2780,52.7257
34.41956348,96.39,2573,50.7247
34.44582404,96.39,2736,52.3068
34.47208461,96.39,2606,51.049
34.49834517,96.39,2336,48.3322
34.52460574,96.39,2224,47.1593
34.5508663,96.39,2282,47.7703
34.57712687,96.39,2388,48.8672
34.60338744,96.39,2510,50.0999
34.629648,96.39,2645,51.4296
34.65590857,96.39,2769,52.6213
34.68216913,96.39,2944,54.2586
34.7084297,96.39,2907,53.9166
34.73469026,96.39,2769,52.6213
34.76095083,96.39,2710,52.0577
34.78721139,96.39,2564,50.636
34.81347196,96.39,2337,48.3425
34.83973252,96.39,2415,49.1426
34.86599309,96.39,2485,49.8498
34.89225365,96.39,2413,49.1223
34.91851422,96.39,2517,50.1697
34.94477478,96.39,2622,51.2055
34.97103535,96.39,2768,52.6118
34.99729592,96.39,3301,57.4543
35.02355648,96.39,3261,57.1052
35.04981705,96.39,2909,53.9351
35.07607761,96.39,2902,53.8702
35.10233818,96.39,2829,53.1883
35.12859874,96.39,2701,51.9711
35.15485931,96.39,2597,50.9608
35.18111987,96.39,2861,53.4883
35.20738044,96.39,3623,60.1914
35.233641,96.39,3959,62.9206
35.25990157,96.39,3859,62.1208
35.28616213,96.39,3027,55.0182
35.3124227,96.39,3096,55.6417
35.33868327,96.39,3145,56.0803
35.36494383,96.39,2572,50.7149
35.3912044,96.39,2275,47.697
35.41746496,96.39,2302,47.9792
35.44372553,96.39,2278,47.7284
35.46998609,96.39,2168,46.5618
35.49624666,96.39,2185,46.744
35.52250722,96.39,2295,47.9062
35.54876779,96.39,2458,49.5782
35.57502835,96.39,2590,50.892
35.60128892,96.39,2358,48.5592
35.62754948,96.39,2188,46.7761
35.65381005,96.39,2484,49.8397
35.68007061,96.39,2297,47.927
35.70633118,96.39,2304,48
35.73259175,96.39,2180,46.6905
35.75885231,96.39,2200,46.9042
35.78511288,96.39,2177,46.6583
35.81137344,96.39,2317,48.1352
35.83763401,96.39,2236,47.2864
35.86389457,96.39,2351,48.4871
35.89015514,96.39,2365,48.6313
35.9164157,96.39,2466,49.6588
35.94267627,96.39,2890,53.7587
35.96893683,96.39,3012,54.8817
35.9951974,96.39,2717,52.1249
36.02145796,96.39,2637,51.3517
36.04771853,96.39,2488,49.8799
36.0739791,96.39,2394,48.9285
36.10023966,96.39,2101,45.8367
36.12650023,96.39,2086,45.6727
36.15276079,96.39,2027,45.0222
36.17902136,96.39,1987,44.5758
36.20528192,96.39,1987,44.5758
36.23154249,96.39,2052,45.299
36.25780305,96.39,2068,45.4753
36.28406362,96.39,2100,45.8258
36.31032418,96.39,2278,47.7284
36.33658475,96.39,2635,51.3323
36.36284531,96.39,3178,56.3738
36.38910588,96.39,3394,58.258
36.41536644,96.39,2865,53.5257
36.44162701,96.39,2532,50.319
36.46788758,96.39,2537,50.3686
36.49414814,96.39,2587,50.8626
36.52040871,96.39,2109,45.9239
36.54666927,96.39,1980,44.4972
36.57292984,96.39,1842,42.9185
36.5991904,96.39,1865,43.1856
36.62545097,96.39,1942,44.0681
36.65171153,96.39,1945,44.1022
36.6779721,96.39,1965,44.3283
36.70423266,96.39,2072,45.5192
36.73049323,96.39,1980,44.4972
36.75675379,96.39,1867,43.2088
36.78301436,96.39,1967,44.3509
36.80927492,96.39,1947,44.1248
36.83553549,96.39,1890,43.4741
36.86179606,96.39,1810,42.5441
36.88805662,96.39,1798,42.4028
36.91431719,96.39,1779,42.1782
36.94057775,96.39,1771,42.0833
36.96683832,96.39,1790,42.3084
36.99309888,96.39,1899,43.5775
37.01935945,96.39,1812,42.5676
37.04562001,96.39,1726,41.5452
37.07188058,96.39,1799,42.4146
37.09814114,96.39,1815,42.6028
37.12440171,96.39,1821,42.6732
37.15066227,96.39,1787,42.2729
37.17692284,96.39,1734,41.6413
37.20318341,96.39,1723,41.509
37.22944397,96.39,1695,41.1704
37.25570454,96.39,1733,41.6293
37.2819651,96.39,1733,41.6293
37.30822567,96.39,1744,41.7612
37.33448623,96.39,1754,41.8808
37.3607468,96.39,1830,42.7785
37.38700736,96.39,1859,43.1161
37.41326793,96.39,1943,44.0795
37.43952849,96.39,1836,42.8486
37.46578906,96.39,1744,41.7612
37.49204962,96.39,1865,43.1856
37.51831019,96.39,1852,43.0349
37.54457075,96.39,1766,42.0238
37.57083132,96.39,1659,40.7308
37.59709189,96.39,1688,41.0853
37.62335245,96.39,1748,41.8091
37.64961302,96.39,1705,41.2916
37.67587358,96.39,1769,42.0595
37.70213415,96.39,1756,41.9047
37.72839471,96.39,1853,43.0465
37.75465528,96.39,1893,43.5086
37.78091584,96.39,1963,44.3058
37.80717641,96.39,2220,47.1169
37.83343697,96.39,2355,48.5283
37.85969754,96.39,2236,47.2864
37.8859581,96.39,2116,46
37.91221867,96.39,2306,48.0208
37.93847924,96.39,2233,47.2546
37.9647398,96.39,1949,44.1475
37.99100037,96.39,1808,42.5206
38.01726093,96.39,1867,43.2088
38.0435215,96.39,1793,42.3438
38.06978206,96.39,1660,40.7431
38.09604263,96.39,1765,42.0119
38.12230319,96.39,1870,43.2435
38.14856376,96.39,2021,44.9555
38.17482432,96.39,2218,47.0956
38.20108489,96.39,2434,49.3356
38.22734545,96.39,2106,45.8912
38.25360602,96.39,2119,46.0326
38.27986658,96.39,2193,46.8295
38.30612715,96.39,2338,48.3529
38.33238772,96.39,2342,48.3942
38.35864828,96.39,1980,44.4972
38.38490885,96.39,1874,43.2897
38.41116941,96.39,1945,44.1022
38.43742998,96.39,1999,44.7102
38.46369054,96.39,1792,42.332
38.48995111,96.39,1810,42.5441
38.51621167,96.39,1772,42.0951
38.54247224,96.39,1760,41.9524
38.5687328,96.39,1723,41.509
38.59499337,96.39,1659,40.7308
38.62125393,96.39,1605,40.0625
38.6475145,96.39,1792,42.332
38.67377507,96.39,1713,41.3884
38.70003563,96.39,1744,41.7612
38.7262962,96.39,1605,40.0625
38.75255676,96.39,1666,40.8167
38.77881733,96.39,1576,39.6989
38.80507789,96.39,1646,40.5709
38.83133846,96.39,1579,39.7366
38.85759902,96.39,1637,40.4599
38.88385959,96.39,1659,40.7308
38.91012015,96.39,1641,40.5093
38.93638072,96.39,1658,40.7185
38.96264128,96.39,1671,40.8779
38.98890185,96.39,1756,41.9047
39.01516241,96.39,1749,41.821
39.04142298,96.39,1755,41.8927
39.06768355,96.39,1674,40.9145
39.09394411,96.39,1715,41.4126
39.12020468,96.39,1746,41.7852
39.14646524,96.39,1712,41.3763
39.17272581,96.39,1774,42.1189
39.19898637,96.39,1961,44.2832
39.22524694,96.39,2109,45.9239
39.2515075,96.39,2082,45.6289
39.27776807,96.39,1860,43.1277
39.30402863,96.39,1978,44.4747
39.3302892,96.39,1918,43.795
39.35654976,96.39,1774,42.1189
39.38281033,96.39,1656,40.694
39.4090709,96.39,1615,40.1871
39.43533146,96.39,1578,39.724
39.46159203,96.39,1522,39.0128
39.48785259,96.39,1544,39.2938
39.51411316,96.39,1602,40.025
39.54037372,96.39,1630,40.3733
39.56663429,96.39,1609,40.1123
39.59289485,96.39,1607,40.0874
39.61915542,96.39,1651,40.6325
39.64541598,96.39,1577,39.7115
39.67167655,96.39,1631,40.3856
39.69793711,96.39,1748,41.8091
39.72419768,96.39,1676,40.939
39.75045824,96.39,1847,42.9767
39.77671881,96.39,2073,45.5302
39.80297938,96.39,2085,45.6618
39.82923994,96.39,1861,43.1393
39.85550051,96.39,1764,42
39.88176107,96.39,1894,43.5201
39.90802164,96.39,1785,42.2493
39.9342822,96.39,1689,41.0974
39.96054277,96.39,1771,42.0833
39.98680333,96.39,1796,42.3792
40.0130639,96.39,1615,40.1871
40.03932446,96.39,1583,39.7869
40.06558503,96.39,1616,40.1995
40.09184559,96.39,1721,41.4849
40.11810616,96.39,1722,41.497
40.14436673,96.39,1627,40.3361
40.17062729,96.39,1795,42.3674
40.19688786,96.39,1960,44.2719
40.22314842,96.39,1728,41.5692
40.24940899,96.39,1624,40.2989
40.27566955,96.39,1603,40.0375
40.30193012,96.39,1742,41.7373
40.32819068,96.39,1632,40.398
40.35445125,96.39,1451,38.092
40.38071181,96.39,1500,38.7298
40.40697238,96.39,1422,37.7094
40.43323294,96.39,1432,37.8418
40.45949351,96.39,1441,37.9605
40.48575407,96.39,1422,37.7094
40.51201464,96.39,1516,38.9358
40.53827521,96.39,1443,37.9868
40.56453577,96.39,1444,38
40.59079634,96.39,1576,39.6989
40.6170569,96.39,1612,40.1497
40.64331747,96.39,1486,38.5487
40.66957803,96.39,1531,39.128
40.6958386,96.39,1475,38.4057
40.72209916,96.39,1455,38.1445
40.74835973,96.39,1518,38.9615
40.77462029,96.39,1443,37.9868
40.80088086,96.39,1428,37.7889
40.82714142,96.39,1414,37.6032
40.85340199,96.39,1391,37.2961
40.87966255,96.39,1403,37.4566
40.90592312,96.39,1357,36.8375
40.93218369,96.39,1324,36.3868
40.95844425,96.39,1371,37.027
40.98470482,96.39,1416,37.6298
41.01096538,96.39,1541,39.2556
41.03722595,96.39,1454,38.1314
41.06348651,96.39,1459,38.1969
41.08974708,96.39,1579,39.7366
41.11600764,96.39,1651,40.6325
41.14226821,96.39,1415,37.6165
41.16852877,96.39,1391,37.2961
41.19478934,96.39,1358,36.8511
41.2210499,96.39,1498,38.704
41.24731047,96.39,1402,37.4433
41.27357104,96.39,1470,38.3406
41.2998316,96.39,1513,38.8973
41.32609217,96.39,1640,40.4969
41.35235273,96.39,1568,39.598
41.3786133,96.39,1531,39.128
41.40487386,96.39,1535,39.1791
41.43113443,96.39,1505,38.7943
41.45739499,96.39,1530,39.1152
41.48365556,96.39,1521,39
41.50991612,96.39,1488,38.5746
41.53617669,96.39,1457,38.1707
41.56243725,96.39,1466,38.2884
41.58869782,96.39,1388,37.2559
41.61495838,96.39,1362,36.9053
41.64121895,96.39,1365,36.9459
41.66747952,96.39,1400,37.4166
41.69374008,96.39,1351,36.756
41.72000065,96.39,1396,37.3631
41.74626121,96.39,1307,36.1525
41.77252178,96.39,1287,35.8748
41.79878234,96.39,1277,35.7351
41.82504291,96.39,1315,36.2629
41.85130347,96.39,1317,36.2905
41.87756404,96.39,1354,36.7967
41.9038246,96.39,1372,37.0405
41.93008517,96.39,1343,36.647
41.95634573,96.39,1317,36.2905
41.9826063,96.39,1375,37.081
42.00886687,96.39,1272,35.6651
42.03512743,96.39,1348,36.7151
42.061388,96.39,1391,37.2961
42.08764856,96.39,1516,38.9358
42.11390913,96.39,1665,40.8044
42.14016969,96.39,2026,45.0111
42.16643026,96.39,2128,46.1303
42.19269082,96.39,1691,41.1218
42.21895139,96.39,1587,39.8372
42.24521195,96.39,1767,42.0357
42.27147252,96.39,1984,44.5421
42.29773308,96.39,1785,42.2493
42.32399365,96.39,1477,38.4318
42.35025421,96.39,1382,37.1753
42.37651478,96.39,1414,37.6032
42.40277535,96.39,1494,38.6523
42.42903591,96.39,1419,37.6696
42.45529648,96.39,1389,37.2693
42.48155704,96.39,1366,36.9594
42.50781761,96.39,1329,36.4555
42.53407817,96.39,1493,38.6394
42.56033874,96.39,1643,40.5339
42.5865993,96.39,1528,39.0896
42.61285987,96.39,1577,39.7115
42.63912043,96.39,1681,41
42.665381,96.39,1821,42.6732
42.69164156,96.39,2042,45.1885
42.71790213,96.39,2777,52.6972
42.7441627,96.39,5080,71.2741
42.77042326,96.39,5514,74.2563
42.79668383,96.39,2853,53.4135
42.82294439,96.39,2129,46.1411
42.84920496,96.39,2803,52.9434
42.87546552,96.39,3596,59.9667
42.90172609,96.39,2292,47.8748
42.92798665,96.39,1568,39.598
42.95424722,96.39,1421,37.6962
42.98050778,96.39,1381,37.1618
43.00676835,96.39,1413,37.5899
43.03302891,96.39,1414,37.6032
43.05928948,96.39,1376,37.0945
43.08555004,96.39,1296,36
43.11181061,96.39,1312,36.2215
43.13807118,96.39,1308,36.1663
43.16433174,96.39,1286,35.8608
43.19059231,96.39,1265,35.5668
43.21685287,96.39,1306,36.1386
43.24311344,96.39,1353,36.7831
43.269374,96.39,1411,37.5633
43.29563457,96.39,1384,37.2022
43.32189513,96.39,1331,36.4829
43.3481557,96.39,1378,37.1214
43.37441626,96.39,1365,36.9459
43.40067683,96.39,1393,37.3229
43.42693739,96.39,1334,36.524
43.45319796,96.39,1369,37
43.47945853,96.39,1363,36.9188
43.50571909,96.39,1288,35.8887
43.53197966,96.39,1282,35.805
43.55824022,96.39,1379,37.1349
43.58450079,96.39,1386,37.229
43.61076135,96.39,1442,37.9737
43.63702192,96.39,1318,36.3043
43.66328248,96.39,1375,37.081
43.68954305,96.39,1380,37.1484
43.71580361,96.39,1372,37.0405
43.74206418,96.39,1233,35.1141
43.76832474,96.39,1316,36.2767
43.79458531,96.39,1341,36.6197
43.82084587,96.39,1352,36.7696
43.84710644,96.39,1294,35.9722
43.87336701,96.39,1283,35.819
43.89962757,96.39,1345,36.6742
43.92588814,96.39,1352,36.7696
43.9521487,96.39,1379,37.1349
43.97840927,96.39,1335,36.5377
44.00466983,96.39,1350,36.7423
44.0309304,96.39,1328,36.4417
44.05719096,96.39,1354,36.7967
44.08345153,96.39,1370,37.0135
44.10971209,96.39,1357,36.8375
44.13597266,96.39,1371,37.027
44.16223322,96.39,1450,38.0789
44.18849379,96.39,1532,39.1408
44.21475435,96.39,2032,45.0777
44.24101492,96.39,2422,49.2138
44.26727549,96.39,2149,46.3573
44.29353605,96.39,1562,39.5221
44.31979662,96.39,1595,39.9375
44.34605718,96.39,1871,43.2551
44.37231775,96.39,1888,43.4511
44.39857831,96.39,1585,39.8121
44.42483888,96.39,1425,37.7492
44.45109944,96.39,1342,36.6333
44.47736001,96.39,1382,37.1753
44.50362057,96.39,1324,36.3868
44.52988114,96.39,1380,37.1484
44.5561417,96.39,1381,37.1618
44.58240227,96.39,1315,36.2629
44.60866284,96.39,1271,35.6511
44.6349234,96.39,1326,36.4143
44.66118397,96.39,1372,37.0405
44.68744453,96.39,1324,36.3868
44.7137051,96.39,1437,37.9078
44.73996566,96.39,1530,39.1152
44.76622623,96.39,1535,39.1791
44.79248679,96.39,1582,39.7744
44.81874736,96.39,1533,39.1535
44.84500792,96.39,1539,39.2301
44.87126849,96.39,1531,39.128
44.89752905,96.39,1491,38.6135
44.92378962,96.39,1498,38.704
44.95005018,96.39,1431,37.8286
44.97631075,96.39,1448,38.0526
45.00257132,96.39,1365,36.9459
45.02883188,96.39,1409,37.5366
45.05509245,96.39,1481,38.4838
45.08135301,96.39,1615,40.1871
45.10761358,96.39,1557,39.4588
45.13387414,96.39,1630,40.3733
45.16013471,96.39,1680,40.9878
45.18639527,96.39,1555,39.4335
45.21265584,96.39,1561,39.5095
45.2389164,96.39,1621,40.2616
45.26517697,96.39,1594,39.9249
45.29143753,96.39,1516,38.9358
45.3176981,96.39,1457,38.1707
45.34395867,96.39,1534,39.1663
45.37021923,96.39,1488,38.5746
45.3964798,96.39,1510,38.8587
45.42274036,96.39,1478,38.4448
45.44900093,96.39,1428,37.7889
45.47526149,96.39,1499,38.7169
45.50152206,96.39,1424,37.7359
45.52778262,96.39,1466,38.2884
45.55404319,96.39,1511,38.8716
45.58030375,96.39,1576,39.6989
45.60656432,96.39,1860,43.1277
45.63282488,96.39,2466,49.6588
45.65908545,96.39,2214,47.0532
45.68534601,96.39,1625,40.3113
45.71160658,96.39,1661,40.7554
45.73786715,96.39,1853,43.0465
45.76412771,96.39,2179,46.6798
45.79038828,96.39,1771,42.0833
45.81664884,96.39,1494,38.6523
45.84290941,96.39,1487,38.5616
45.86916997,96.39,1508,38.833
45.89543054,96.39,1467,38.3014
45.9216911,96.39,1456,38.1576
45.94795167,96.39,1410,37.55
45.97421223,96.39,1378,37.1214
46.0004728,96.39,1331,36.4829
46.02673336,96.39,1454,38.1314
46.05299393,96.39,1425,37.7492
46.0792545,96.39,1555,39.4335
46.10551506,96.39,1606,40.0749
46.13177563,96.39,1842,42.9185
46.15803619,96.39,2192,46.8188
46.18429676,96.39,2054,45.3211
46.21055732,96.39,1915,43.7607
46.23681789,96.39,2282,47.7703
46.26307845,96.39,2720,52.1536
46.28933902,96.39,3483,59.0169
46.31559958,96.39,4099,64.0234
46.34186015,96.39,3817,61.7819
46.36812071,96.39,2681,51.7784
46.39438128,96.39,2716,52.1153
46.42064184,96.39,3516,59.2959
46.44690241,96.39,4667,68.3154
46.47316298,96.39,3495,59.1185
46.49942354,96.39,2041,45.1774
46.52568411,96.39,1999,44.7102
46.55194467,96.39,2254,47.4763
46.57820524,96.39,2519,50.1896
46.6044658,96.39,1981,44.5084
46.63072637,96.39,1706,41.3038
46.65698693,96.39,1622,40.2741
46.6832475,96.39,1731,41.6053
46.70950806,96.39,2392,48.9081
46.73576863,96.39,2275,47.697
46.76202919,96.39,1629,40.3609
46.78828976,96.39,1580,39.7492
46.81455033,96.39,1647,40.5832
46.84081089,96.39,1851,43.0232
46.86707146,96.39,1655,40.6817
46.89333202,96.39,1391,37.2961
46.91959259,96.39,1400,37.4166
46.94585315,96.39,1327,36.428
46.97211372,96.39,1361,36.8917
46.99837428,96.39,1425,37.7492
47.02463485,96.39,1433,37.855
47.05089541,96.39,1306,36.1386
47.07715598,96.39,1342,36.6333
47.10341654,96.39,1276,35.7211
47.12967711,96.39,1364,36.9324
47.15593767,96.39,1387,37.2424
47.18219824,96.39,1393,37.3229
47.20845881,96.39,1347,36.7015
47.23471937,96.39,1411,37.5633
47.26097994,96.39,1421,37.6962
47.2872405,96.39,1285,35.8469
47.31350107,96.39,1354,36.7967
47.33976163,96.39,1332,36.4966
47.3660222,96.39,1309,36.1801
47.39228276,96.39,1346,36.6879
47.41854333,96.39,1321,36.3456
47.44480389,96.39,1314,36.2491
47.47106446,96.39,1321,36.3456
47.49732502,96.39,1263,35.5387
47.52358559,96.39,1314,36.2491
47.54984616,96.39,1331,36.4829
47.57610672,96.39,1384,37.2022
47.60236729,96.39,1385,37.2156
47.62862785,96.39,1313,36.2353
47.65488842,96.39,1353,36.7831
47.68114898,96.39,1280,35.7771
47.70740955,96.39,1271,35.6511
47.73367011,96.39,1285,35.8469
47.75993068,96.39,1320,36.3318
47.78619124,96.39,1271,35.6511
47.81245181,96.39,1271,35.6511
47.83871237,96.39,1277,35.7351
47.86497294,96.39,1355,36.8103
47.8912335,96.39,1269,35.623
47.91749407,96.39,1216,34.8712
47.94375464,96.39,1261,35.5106
47.9700152,96.39,1329,36.4555
47.99627577,96.39,1233,35.1141
48.02253633,96.39,1277,35.7351
48.0487969,96.39,1291,35.9305
48.07505746,96.39,1388,37.2559
48.10131803,96.39,1308,36.1663
48.12757859,96.39,1375,37.081
48.15383916,96.39,1318,36.3043
48.18009972,96.39,1262,35.5246
48.20636029,96.39,1296,36
48.23262085,96.39,1275,35.7071
48.25888142,96.39,1279,35.7631
48.28514198,96.39,1269,35.623
48.31140255,96.39,1319,36.318
48.33766312,96.39,1231,35.0856
48.36392368,96.39,1243,35.2562
48.39018425,96.39,1293,35.9583
48.41644481,96.39,1370,37.0135
48.44270538,96.39,1397,37.3765
48.46896594,96.39,1341,36.6197
48.49522651,96.39,1354,36.7967
48.52148707,96.39,1299,36.0416
48.54774764,96.39,1458,38.1838
48.5740082,96.39,1553,39.4081
48.60026877,96.39,1549,39.3573
48.62652933,96.39,1457,38.1707
48.6527899,96.39,1358,36.8511
48.67905047,96.39,1412,37.5766
48.70531103,96.39,1423,37.7227
48.7315716,96.39,1389,37.2693
48.75783216,96.39,1382,37.1753
48.78409273,96.39,1350,36.7423
48.81035329,96.39,1374,37.0675
48.83661386,96.39,1332,36.4966
48.86287442,96.39,1245,35.2846
48.88913499,96.39,1306,36.1386
48.91539555,96.39,1213,34.8281
48.94165612,96.39,1280,35.7771
48.96791668,96.39,1193,34.5398
48.99417725,96.39,1199,34.6266
49.02043781,96.39,1280,35.7771
49.04669838,96.39,1352,36.7696
49.07295895,96.39,1279,35.7631
49.09921951,96.39,1273,35.6791
49.12548008,96.39,1299,36.0416
49.15174064,96.39,1341,36.6197
49.17800121,96.39,1273,35.6791
49.20426177,96.39,1214,34.8425
49.23052234,96.39,1169,34.1906
49.2567829,96.39,1196,34.5832
49.28304347,96.39,1270,35.6371
49.30930403,96.39,1245,35.2846
49.3355646,96.39,1181,34.3657
49.36182516,96.39,1225,35
49.38808573,96.39,1225,35
49.4143463,96.39,1363,36.9188
49.44060686,96.39,1354,36.7967
49.46686743,96.39,1223,34.9714
49.49312799,96.39,1224,34.9857
49.51938856,96.39,1225,35
49.54564912,96.39,1222,34.9571
49.57190969,96.39,1293,35.9583
49.59817025,96.39,1367,36.973
49.62443082,96.39,1430,37.8153
49.65069138,96.39,1516,38.9358
49.67695195,96.39,1530,39.1152
49.70321251,96.39,1484,38.5227
49.72947308,96.39,1455,38.1445
49.75573364,96.39,1365,36.9459
49.78199421,96.39,1357,36.8375
49.80825478,96.39,1356,36.8239
49.83451534,96.39,1269,35.623
49.86077591,96.39,1259,35.4824
49.88703647,96.39,1256,35.4401
49.91329704,96.39,1188,34.4674
49.9395576,96.39,1090,33.0151
49.96581817,96.39,1086,32.9545
49.99207873,96.39,1077,32.8177
50.0183393,96.39,1111,33.3317
50.04459986,96.39,1082,32.8938
50.07086043,96.39,1156,34
50.09712099,96.39,1171,34.2199
50.12338156,96.39,1085,32.9393
50.14964213,96.39,1102,33.1964
50.17590269,96.39,1198,34.6121
50.20216326,96.39,1102,33.1964
50.22842382,96.39,1157,34.0147
50.25468439,96.39,1137,33.7194
50.28094495,96.39,1266,35.5809
50.30720552,96.39,1344,36.6606
50.33346608,96.39,1505,38.7943
50.35972665,96.39,1546,39.3192
50.38598721,96.39,1421,37.6962
50.41224778,96.39,1165,34.1321
50.43850834,96.39,1180,34.3511
50.46476891,96.39,1185,34.4238
50.49102947,96.39,1282,35.805
50.51729004,96.39,1209,34.7707
50.54355061,96.39,1142,33.7935
50.56981117,96.39,1122,33.4963
50.59607174,96.39,1062,32.5883
50.6223323,96.39,1078,32.8329
50.64859287,96.39,1060,32.5576
50.67485343,96.39,1021,31.9531
50.701114,96.39,1104,33.2265
50.72737456,96.39,1121,33.4813
50.75363513,96.39,1088,32.9848
50.77989569,96.39,1066,32.6497
50.80615626,96.39,1079,32.8481
50.83241682,96.39,1033,32.1403
50.85867739,96.39,1059,32.5423
50.88493796,96.39,1106,33.2566
50.91119852,96.39,1082,32.8938
50.93745909,96.39,1131,33.6303
50.96371965,96.39,1166,34.1467
50.98998022,96.39,1231,35.0856
51.01624078,96.39,1341,36.6197
51.04250135,96.39,1519,38.9744
51.06876191,96.39,1437,37.9078
51.09502248,96.39,1204,34.6987
51.12128304,96.39,1135,33.6898
51.14754361,96.39,1255,35.426
51.17380417,96.39,1376,37.0945
51.20006474,96.39,1293,35.9583
51.2263253,96.39,1142,33.7935
51.25258587,96.39,1076,32.8024
51.27884644,96.39,1088,32.9848
51.305107,96.39,1061,32.573
51.33136757,96.39,1058,32.5269
51.35762813,96.39,1088,32.9848
51.3838887,96.39,1108,33.2866
51.41014926,96.39,1088,32.9848
51.43640983,96.39,1122,33.4963
51.46267039,96.39,1123,33.5112
51.48893096,96.39,1088,32.9848
51.51519152,96.39,1095,33.0908
51.54145209,96.39,1057,32.5115
51.56771265,96.39,1020,31.9374
51.59397322,96.39,1051,32.4191
51.62023378,96.39,995,31.5436
51.64649435,96.39,1039,32.2335
51.67275492,96.39,1015,31.8591
51.69901548,96.39,1075,32.7872
51.72527605,96.39,1062,32.5883
51.75153661,96.39,1032,32.1248
51.77779718,96.39,1015,31.8591
51.80405774,96.39,1063,32.6037
51.83031831,96.39,1136,33.7046
51.85657887,96.39,1084,32.9242
51.88283944,96.39,1065,32.6343
51.9091,96.39,1077,32.8177
51.93536057,96.39,1077,32.8177
51.96162113,96.39,1044,32.311
51.9878817,96.39,1029,32.078
52.01414227,96.39,1056,32.4962
52.04040283,96.39,1103,33.2114
52.0666634,96.39,1002,31.6544
52.09292396,96.39,1055,32.4808
52.11918453,96.39,1082,32.8938
52.14544509,96.39,1094,33.0757
52.17170566,96.39,1115,33.3916
52.19796622,96.39,1133,33.6601
52.22422679,96.39,1056,32.4962
52.25048735,96.39,1116,33.4066
52.27674792,96.39,1073,32.7567
52.30300848,96.39,1195,34.5688
52.32926905,96.39,1362,36.9053
52.35552961,96.39,1466,38.2884
52.38179018,96.39,1372,37.0405
52.40805075,96.39,1230,35.0714
52.43431131,96.39,1321,36.3456
52.46057188,96.39,1399,37.4032
52.48683244,96.39,1425,37.7492
52.51309301,96.39,1458,38.1838
52.53935357,96.39,1317,36.2905
52.56561414,96.39,1529,39.1024
52.5918747,96.39,1616,40.1995
52.61813527,96.39,1272,35.6651
52.64439583,96.39,1122,33.4963
52.6706564,96.39,1115,33.3916
52.69691696,96.39,1181,34.3657
52.72317753,96.39,1324,36.3868
52.7494381,96.39,1222,34.9571
52.77569866,96.39,1012,31.8119
52.80195923,96.39,1032,32.1248
52.82821979,96.39,1094,33.0757
52.85448036,96.39,1123,33.5112
52.88074092,96.39,1238,35.1852
52.90700149,96.39,1228,35.0428
52.93326205,96.39,1308,36.1663
52.95952262,96.39,1226,35.0143
52.98578318,96.39,1165,34.1321
53.01204375,96.39,1210,34.7851
53.03830431,96.39,1083,32.909
53.06456488,96.39,1151,33.9264
53.09082544,96.39,1217,34.8855
53.11708601,96.39,1076,32.8024
53.14334658,96.39,1187,34.4529
53.16960714,96.39,1098,33.1361
53.19586771,96.39,1187,34.4529
53.22212827,96.39,1093,33.0606
53.24838884,96.39,1110,33.3167
53.2746494,96.39,1076,32.8024
53.30090997,96.39,1068,32.6803
53.32717053,96.39,1016,31.8748
53.3534311,96.39,1035,32.1714
53.37969166,96.39,1010,31.7805
53.40595223,96.39,999,31.607
53.43221279,96.39,1004,31.686
53.45847336,96.39,997,31.5753
53.48473393,96.39,960,30.9839
53.51099449,96.39,1004,31.686
53.53725506,96.39,986,31.4006
53.56351562,96.39,1015,31.8591
53.58977619,96.39,979,31.289
53.61603675,96.39,993,31.5119
53.64229732,96.39,981,31.3209
53.66855788,96.39,983,31.3528
53.69481845,96.39,987,31.4166
53.72107901,96.39,928,30.4631
53.74733958,96.39,998,31.5911
53.77360014,96.39,1036,32.187
53.79986071,96.39,1062,32.5883
53.82612127,96.39,1206,34.7275
53.85238184,96.39,1256,35.4401
53.87864241,96.39,1317,36.2905
53.90490297,96.39,1235,35.1426
53.93116354,96.39,1093,33.0606
53.9574241,96.39,1165,34.1321
53.98368467,96.39,1119,33.4515
54.00994523,96.39,1164,34.1174
54.0362058,96.39,1133,33.6601
54.06246636,96.39,1238,35.1852
54.08872693,96.39,1383,37.1887
54.11498749,96.39,1564,39.5474
54.14124806,96.39,1337,36.565
54.16750862,96.39,1187,34.4529
54.19376919,96.39,1186,34.4384
54.22002976,96.39,1272,35.6651
54.24629032,96.39,1145,33.8378
54.27255089,96.39,1184,34.4093
54.29881145,96.39,1172,34.2345
54.32507202,96.39,1181,34.3657
54.35133258,96.39,1152,33.9411
54.37759315,96.39,1041,32.2645
54.40385371,96.39,1036,32.187
54.43011428,96.39,1004,31.686
54.45637484,96.39,995,31.5436
54.48263541,96.39,1047,32.3574
54.50889597,96.39,986,31.4006
54.53515654,96.39,1004,31.686
54.5614171,96.39,1032,32.1248
54.58767767,96.39,1057,32.5115
54.61393824,96.39,1066,32.6497
54.6401988,96.39,1024,32
54.66645937,96.39,1034,32.1559
54.69271993,96.39,1040,32.249
54.7189805,96.39,1051,32.4191
54.74524106,96.39,998,31.5911
54.77150163,96.39,1135,33.6898
54.79776219,96.39,1169,34.1906
54.82402276,96.39,1087,32.9697
54.85028332,96.39,1090,33.0151
54.87654389,96.39,979,31.289
54.90280445,96.39,1157,34.0147
54.92906502,96.39,1176,34.2929
54.95532559,96.39,1259,35.4824
54.98158615,96.39,1374,37.0675
55.00784672,96.39,1274,35.6931
55.03410728,96.39,1134,33.6749
55.06036785,96.39,1173,34.2491
55.08662841,96.39,1167,34.1614
55.11288898,96.39,1420,37.6829
55.13914954,96.39,1424,37.7359
55.16541011,96.39,1218,34.8999
55.19167067,96.39,1058,32.5269
55.21793124,96.39,1004,31.686
55.2441918,96.39,1074,32.7719
55.27045237,96.39,1097,33.121
55.29671293,96.39,1049,32.3883
55.3229735,96.39,970,31.1448
55.34923407,96.39,943,30.7083
55.37549463,96.39,962,31.0161
55.4017552,96.39,1026,32.0312
55.42801576,96.39,1081,32.8786
55.45427633,96.39,1039,32.2335
55.48053689,96.39,1025,32.0156
55.50679746,96.39,964,31.0483
55.53305802,96.39,907,30.1164
55.55931859,96.39,1021,31.9531
55.58557915,96.39,959,30.9677
55.61183972,96.39,933,30.545
55.63810028,96.39,924,30.3974
55.66436085,96.39,944,30.7246
55.69062141,96.39,961,31
55.71688198,96.39,930,30.4959
55.74314255,96.39,949,30.8058
55.76940311,96.39,977,31.257
55.79566368,96.39,940,30.6594
55.82192424,96.39,1006,31.7175
55.84818481,96.39,947,30.7734
55.87444537,96.39,947,30.7734
55.90070594,96.39,918,30.2985
55.9269665,96.39,971,31.1609
55.95322707,96.39,907,30.1164
55.97948763,96.39,958,30.9516
56.0057482,96.39,949,30.8058
56.03200876,96.39,1008,31.749
56.05826933,96.39,1045,32.3265
56.0845299,96.39,937,30.6105
56.11079046,96.39,1027,32.0468
56.13705103,96.39,965,31.0644
56.16331159,96.39,1004,31.686
56.18957216,96.39,961,31
56.21583272,96.39,966,31.0805
56.24209329,96.39,900,30
56.26835385,96.39,904,30.0666
56.29461442,96.39,948,30.7896
56.32087498,96.39,880,29.6648
56.34713555,96.39,874,29.5635
56.37339611,96.39,885,29.7489
56.39965668,96.39,862,29.3598
56.42591724,96.39,938,30.6268
56.45217781,96.39,921,30.348
56.47843838,96.39,875,29.5804
56.50469894,96.39,870,29.4958
56.53095951,96.39,931,30.5123
56.55722007,96.39,947,30.7734
56.58348064,96.39,974,31.209
56.6097412,96.39,916,30.2655
56.63600177,96.39,878,29.6311
56.66226233,96.39,905,30.0832
56.6885229,96.39,974,31.209
56.71478346,96.39,946,30.7571
56.74104403,96.39,885,29.7489
56.76730459,96.39,908,30.133
56.79356516,96.39,876,29.5973
56.81982573,96.39,861,29.3428
56.84608629,96.39,908,30.133
56.87234686,96.39,893,29.8831
56.89860742,96.39,869,29.4788
56.92486799,96.39,915,30.249
56.95112855,96.39,895,29.9166
56.97738912,96.39,870,29.4958
57.00364968,96.39,888,29.7993
57.02991025,96.39,883,29.7153
57.05617081,96.39,924,30.3974
57.08243138,96.39,841,29
57.10869194,96.39,897,29.95
57.13495251,96.39,946,30.7571
57.16121307,96.39,886,29.7658
57.18747364,96.39,890,29.8329
57.21373421,96.39,858,29.2916
57.23999477,96.39,921,30.348
57.26625534,96.39,901,30.0167
57.2925159,96.39,895,29.9166
57.31877647,96.39,967,31.0966
57.34503703,96.39,1025,32.0156
57.3712976,96.39,958,30.9516
57.39755816,96.39,999,31.607
57.42381873,96.39,974,31.209
57.45007929,96.39,1086,32.9545
57.47633986,96.39,1212,34.8138
57.50260042,96.39,1301,36.0694
57.52886099,96.39,1391,37.2961
57.55512156,96.39,1070,32.7109
57.58138212,96.39,994,31.5278
57.60764269,96.39,1091,33.0303
57.63390325,96.39,1142,33.7935
57.66016382,96.39,1359,36.8646
57.68642438,96.39,1408,37.5233
57.71268495,96.39,1419,37.6696
57.73894551,96.39,1344,36.6606
57.76520608,96.39,1304,36.1109
57.79146664,96.39,1146,33.8526
57.81772721,96.39,1130,33.6155
57.84398777,96.39,1156,34
57.87024834,96.39,1241,35.2278
57.8965089,96.39,1351,36.756
57.92276947,96.39,1201,34.6554
57.94903004,96.39,1066,32.6497
57.9752906,96.39,946,30.7571
58.00155117,96.39,967,31.0966
58.02781173,96.39,1042,32.28
58.0540723,96.39,1060,32.5576
58.08033286,96.39,1000,31.6228
58.10659343,96.39,939,30.6431
58.13285399,96.39,952,30.8545
58.15911456,96.39,950,30.8221
58.18537512,96.39,901,30.0167
58.21163569,96.39,920,30.3315
58.23789625,96.39,920,30.3315
58.26415682,96.39,954,30.8869
58.29041739,96.39,918,30.2985
58.31667795,96.39,908,30.133
58.34293852,96.39,928,30.4631
58.36919908,96.39,909,30.1496
58.39545965,96.39,940,30.6594
58.42172021,96.39,930,30.4959
58.44798078,96.39,951,30.8383
58.47424134,96.39,966,31.0805
58.50050191,96.39,947,30.7734
58.52676247,96.39,919,30.315
58.55302304,96.39,904,30.0666
58.5792836,96.39,921,30.348
58.60554417,96.39,896,29.9333
58.63180473,96.39,915,30.249
58.6580653,96.39,879,29.6479
58.68432587,96.39,880,29.6648
58.71058643,96.39,937,30.6105
58.736847,96.39,920,30.3315
58.76310756,96.39,881,29.6816
58.78936813,96.39,869,29.4788
58.81562869,96.39,870,29.4958
58.84188926,96.39,901,30.0167
58.86814982,96.39,890,29.8329
58.89441039,96.39,881,29.6816
58.92067095,96.39,882,29.6985
58.94693152,96.39,924,30.3974
58.97319208,96.39,950,30.8221
58.99945265,96.39,907,30.1164
59.02571321,96.39,901,30.0167
59.05197378,96.39,901,30.0167
59.07823435,96.39,872,29.5296
59.10449491,96.39,900,30
59.13075548,96.39,890,29.8329
59.15701604,96.39,941,30.6757
59.18327661,96.39,902,30.0333
59.20953717,96.39,922,30.3645
59.23579774,96.39,958,30.9516
59.2620583,96.39,949,30.8058
59.28831887,96.39,1034,32.1559
59.31457943,96.39,1011,31.7962
59.34084,96.39,1275,35.7071
59.36710056,96.39,1588,39.8497
59.39336113,96.39,1242,35.242
59.4196217,96.39,988,31.4325
59.44588226,96.39,989,31.4484
59.47214283,96.39,1031,32.1092
59.49840339,96.39,1091,33.0303
59.52466396,96.39,1254,35.4119
59.55092452,96.39,1186,34.4384
59.57718509,96.39,1040,32.249
59.60344565,96.39,1070,32.7109
59.62970622,96.39,1003,31.6702
59.65596678,96.39,933,30.545
59.68222735,96.39,1033,32.1403
59.70848791,96.39,912,30.1993
59.73474848,96.39,970,31.1448
59.76100904,96.39,1000,31.6228
59.78726961,96.39,1013,31.8277
59.81353018,96.39,1027,32.0468
59.83979074,96.39,1005,31.7017
59.86605131,96.39,968,31.1127
59.89231187,96.39,968,31.1127
59.91857244,96.39,979,31.289
59.944833,96.39,1067,32.665
59.97109357,96.39,1121,33.4813
59.99735413,96.39,1184,34.4093
60.0236147,96.39,1041,32.2645
60.04987526,96.39,946,30.7571
60.07613583,96.39,970,31.1448
60.10239639,96.39,1050,32.4037
60.12865696,96.39,1102,33.1964
60.15491753,96.39,1113,33.3617
60.18117809,96.39,1134,33.6749
60.20743866,96.39,1012,31.8119
60.23369922,96.39,1045,32.3265
60.25995979,96.39,1093,33.0606
60.28622035,96.39,1034,32.1559
60.31248092,96.39,1143,33.8083
60.33874148,96.39,1024,32
60.36500205,96.39,1076,32.8024
60.39126261,96.39,1078,32.8329
60.41752318,96.39,1109,33.3017
60.44378374,96.39,1053,32.45
60.47004431,96.39,1146,33.8526
60.49630487,96.39,1158,34.0294
60.52256544,96.39,1122,33.4963
60.54882601,96.39,1144,33.8231
60.57508657,96.39,1196,34.5832
60.60134714,96.39,1308,36.1663
60.6276077,96.39,1192,34.5254
60.65386827,96.39,1181,34.3657
60.68012883,96.39,1238,35.1852
60.7063894,96.39,1190,34.4964
60.73264996,96.39,1260,35.4965
60.75891053,96.39,1194,34.5543
60.78517109,96.39,1245,35.2846
60.81143166,96.39,1205,34.7131
60.83769222,96.39,1246,35.2987
60.86395279,96.39,1331,36.4829
60.89021336,96.39,1179,34.3366
60.91647392,96.39,1275,35.7071
60.94273449,96.39,1282,35.805
60.96899505,96.39,1332,36.4966
60.99525562,96.39,1373,37.054
61.02151618,96.39,1351,36.756
61.04777675,96.39,1385,37.2156
61.07403731,96.39,1400,37.4166
61.10029788,96.39,1317,36.2905
61.12655844,96.39,1388,37.2559
61.15281901,96.39,1391,37.2961
61.17907957,96.39,1386,37.229
61.20534014,96.39,1373,37.054
61.2316007,96.39,1423,37.7227
61.25786127,96.39,1327,36.428
61.28412184,96.39,1360,36.8782
61.3103824,96.39,1312,36.2215
61.33664297,96.39,1276,35.7211
61.36290353,96.39,1354,36.7967
61.3891641,96.39,1286,35.8608
61.41542466,96.39,1350,36.7423
61.44168523,96.39,1392,37.3095
61.46794579,96.39,1370,37.0135
61.49420636,96.39,1252,35.3836
61.52046692,96.39,1378,37.1214
61.54672749,96.39,1240,35.2136
61.57298805,96.39,1280,35.7771
61.59924862,96.39,1395,37.3497
61.62550919,96.39,1359,36.8646
61.65176975,96.39,1330,36.4692
61.67803032,96.39,1306,36.1386
61.70429088,96.39,1280,35.7771
61.73055145,96.39,1309,36.1801
61.75681201,96.39,1348,36.7151
61.78307258,96.39,1280,35.7771
61.80933314,96.39,1343,36.647
61.83559371,96.39,1272,35.6651
61.86185427,96.39,1273,35.6791
61.88811484,96.39,1269,35.623
61.9143754,96.39,1292,35.9444
61.94063597,96.39,1296,36
61.96689653,96.39,1295,35.9861
61.9931571,96.39,1265,35.5668
62.01941767,96.39,1221,34.9428
62.04567823,96.39,1334,36.524
62.0719388,96.39,1328,36.4417
62.09819936,96.39,1298,36.0278
62.12445993,96.39,1255,35.426
62.15072049,96.39,1253,35.3977
62.17698106,96.39,1207,34.7419
62.20324162,96.39,1252,35.3836
62.22950219,96.39,1358,36.8511
62.25576275,96.39,1307,36.1525
62.28202332,96.39,1225,35
62.30828388,96.39,1332,36.4966
62.33454445,96.39,1359,36.8646
62.36080502,96.39,1405,37.4833
62.38706558,96.39,1265,35.5668
62.41332615,96.39,1283,35.819
62.43958671,96.39,1219,34.9142
62.46584728,96.39,1201,34.6554
62.49210784,96.39,1274,35.6931
62.51836841,96.39,1301,36.0694
62.54462897,96.39,1256,35.4401
62.57088954,96.39,1139,33.7491
62.5971501,96.39,1139,33.7491
62.62341067,96.39,1139,33.7491
62.64967123,96.39,1120,33.4664
62.6759318,96.39,1145,33.8378
62.70219236,96.39,1131,33.6303
62.72845293,96.39,1024,32
62.7547135,96.39,1122,33.4963
62.78097406,96.39,1112,33.3467
62.80723463,96.39,1012,31.8119
62.83349519,96.39,1039,32.2335
62.85975576,96.39,1027,32.0468
62.88601632,96.39,1089,33
62.91227689,96.39,1015,31.8591
62.93853745,96.39,951,30.8383
62.96479802,96.39,999,31.607
62.99105858,96.39,999,31.607
63.01731915,96.39,960,30.9839
63.04357971,96.39,1032,32.1248
63.06984028,96.39,956,30.9192
63.09610084,96.39,987,31.4166
63.12236141,96.39,932,30.5287
63.14862198,96.39,943,30.7083
63.17488254,96.39,968,31.1127
63.20114311,96.39,967,31.0966
63.22740367,96.39,968,31.1127
63.25366424,96.39,987,31.4166
63.2799248,96.39,940,30.6594
63.30618537,96.39,1017,31.8904
63.33244593,96.39,1028,32.0624
63.3587065,96.39,1059,32.5423
63.38496706,96.39,1059,32.5423
63.41122763,96.39,1043,32.2955
63.43748819,96.39,986,31.4006
63.46374876,96.39,919,30.315
63.49000933,96.39,943,30.7083
63.51626989,96.39,985,31.3847
63.54253046,96.39,996,31.5595
63.56879102,96.39,1024,32
63.59505159,96.39,979,31.289
63.62131215,96.39,945,30.7409
63.64757272,96.39,867,29.4449
63.67383328,96.39,890,29.8329
63.70009385,96.39,929,30.4795
63.72635441,96.39,894,29.8998
63.75261498,96.39,876,29.5973
63.77887554,96.39,906,30.0998
63.80513611,96.39,804,28.3549
63.83139667,96.39,886,29.7658
63.85765724,96.39,987,31.4166
63.88391781,96.39,956,30.9192
63.91017837,96.39,1009,31.7648
63.93643894,96.39,1061,32.573
63.9626995,96.39,1046,32.3419
63.98896007,96.39,902,30.0333
64.01522063,96.39,915,30.249
64.0414812,96.39,979,31.289
64.06774176,96.39,998,31.5911
64.09400233,96.39,1004,31.686
64.12026289,96.39,1033,32.1403
64.14652346,96.39,948,30.7896
64.17278402,96.39,934,30.5614
64.19904459,96.39,938,30.6268
64.22530516,96.39,831,28.8271
64.25156572,96.39,961,31
64.27782629,96.39,937,30.6105
64.30408685,96.39,880,29.6648
64.33034742,96.39,899,29.9833
64.35660798,96.39,807,28.4077
64.38286855,96.39,825,28.7228
64.40912911,96.39,827,28.7576
64.43538968,96.39,882,29.6985
64.46165024,96.39,852,29.189
64.48791081,96.39,795,28.1957
64.51417137,96.39,824,28.7054
64.54043194,96.39,789,28.0891
64.5666925,96.39,826,28.7402
64.59295307,96.39,876,29.5973
64.61921364,96.39,871,29.5127
64.6454742,96.39,868,29.4618
64.67173477,96.39,866,29.4279
64.69799533,96.39,865,29.4109
64.7242559,96.39,923,30.3809
64.75051646,96.39,943,30.7083
64.77677703,96.39,897,29.95
64.80303759,96.39,873,29.5466
64.82929816,96.39,865,29.4109
64.85555872,96.39,915,30.249
64.88181929,96.39,936,30.5941
64.90807985,96.39,938,30.6268
64.93434042,96.39,1002,31.6544
64.96060099,96.39,1038,32.218
64.98686155,96.39,1061,32.573
