[Measurement conditions]
Sample identification,AlAxial23Mar22_Act12Feb23_B1_1000M_NaOH_LS0133_Num156
Comment - 1,"Configuration=Stage for Flat Samples/Holders, Owner=nmw10, Creation date=9/21/2022 10:06:30 AM"
Comment - 2,"Goniometer=Theta/Theta; Minimum step size 2Theta:0.0001; Minimum step size Omega:0.0001"
Comment - 3,"Sample stage=Stage for flat samples/holders"
Comment - 4,"Diffractometer system=EMPYREAN"
Comment - 5,"Measurement program=X:\XRD\Cement\Zerobackground scan.xrdmp, Created identifier={98A3B11C-88F9-4AA6-982C-73314A311EF5}, Created by=Titus Reed, Id=tmr79, Creation date=10/26/2021 3:01:47 PM"
Anode material,Cu
K-Alpha1 wavelength,1.5405980
K-Alpha2 wavelength,1.5444260
Ratio K-Alpha2/K-Alpha1,0.500
Divergence slit,Fixed,0.25
Monochromator used,NO
Generator voltage, 45
Tube current, 40
File date and time,15/Mar/2023 19:58
Unit cell,
h k l, 0 0 0
Scan axis,Gonio
Scan range,4.994599997,64.999991833
Scan step size,0.0262606
No. of points, 2285
Scan type,CONTINUOUS
Time per step,96.390
[Scan points]
Angle, TimePerStep, Intensity, ESD
5.007730280, 96.390, 3645.0, 60.3738
5.033990845, 96.390, 3580.0, 59.8331
5.060251411, 96.390, 3571.0, 59.7578
5.086511976, 96.390, 3691.0, 60.7536
5.112772541, 96.390, 3725.0, 61.0328
5.139033107, 96.390, 3561.0, 59.6741
5.165293672, 96.390, 3525.0, 59.3717
5.191554237, 96.390, 3635.0, 60.2910
5.217814803, 96.390, 3499.0, 59.1523
5.244075368, 96.390, 3552.0, 59.5987
5.270335934, 96.390, 3599.0, 59.9917
5.296596499, 96.390, 3422.0, 58.4979
5.322857064, 96.390, 3481.0, 59.0000
5.349117630, 96.390, 3416.0, 58.4466
5.375378195, 96.390, 3387.0, 58.1979
5.401638760, 96.390, 3427.0, 58.5406
5.427899326, 96.390, 3482.0, 59.0085
5.454159891, 96.390, 3471.0, 58.9152
5.480420456, 96.390, 3310.0, 57.5326
5.506681022, 96.390, 3233.0, 56.8595
5.532941587, 96.390, 3248.0, 56.9912
5.559202152, 96.390, 3359.0, 57.9569
5.585462718, 96.390, 3329.0, 57.6975
5.611723283, 96.390, 3338.0, 57.7754
5.637983849, 96.390, 3322.0, 57.6368
5.664244414, 96.390, 3293.0, 57.3847
5.690504979, 96.390, 3216.0, 56.7098
5.716765545, 96.390, 3289.0, 57.3498
5.743026110, 96.390, 3206.0, 56.6216
5.769286675, 96.390, 3222.0, 56.7627
5.795547241, 96.390, 3212.0, 56.6745
5.821807806, 96.390, 3240.0, 56.9210
5.848068371, 96.390, 3189.0, 56.4712
5.874328937, 96.390, 3170.0, 56.3028
5.900589502, 96.390, 3217.0, 56.7186
5.926850067, 96.390, 3142.0, 56.0535
5.953110633, 96.390, 3147.0, 56.0981
5.979371198, 96.390, 3087.0, 55.5608
6.005631763, 96.390, 3119.0, 55.8480
6.031892329, 96.390, 3113.0, 55.7943
6.058152894, 96.390, 3187.0, 56.4535
6.084413460, 96.390, 3196.0, 56.5332
6.110674025, 96.390, 3229.0, 56.8243
6.136934590, 96.390, 3090.0, 55.5878
6.163195156, 96.390, 3057.0, 55.2901
6.189455721, 96.390, 3116.0, 55.8211
6.215716286, 96.390, 3208.0, 56.6392
6.241976852, 96.390, 3261.0, 57.1052
6.268237417, 96.390, 3084.0, 55.5338
6.294497982, 96.390, 3122.0, 55.8749
6.320758548, 96.390, 3115.0, 55.8122
6.347019113, 96.390, 3018.0, 54.9363
6.373279678, 96.390, 3165.0, 56.2583
6.399540244, 96.390, 3225.0, 56.7891
6.425800809, 96.390, 3023.0, 54.9818
6.452061375, 96.390, 3191.0, 56.4889
6.478321940, 96.390, 3058.0, 55.2992
6.504582505, 96.390, 3089.0, 55.5788
6.530843071, 96.390, 3005.0, 54.8179
6.557103636, 96.390, 3007.0, 54.8361
6.583364201, 96.390, 3015.0, 54.9090
6.609624767, 96.390, 3166.0, 56.2672
6.635885332, 96.390, 3042.0, 55.1543
6.662145897, 96.390, 3117.0, 55.8301
6.688406463, 96.390, 3202.0, 56.5862
6.714667028, 96.390, 3156.0, 56.1783
6.740927593, 96.390, 3173.0, 56.3294
6.767188159, 96.390, 3203.0, 56.5951
6.793448724, 96.390, 3165.0, 56.2583
6.819709289, 96.390, 3138.0, 56.0179
6.845969855, 96.390, 3164.0, 56.2494
6.872230420, 96.390, 3129.0, 55.9375
6.898490986, 96.390, 3241.0, 56.9298
6.924751551, 96.390, 3277.0, 57.2451
6.951012116, 96.390, 3322.0, 57.6368
6.977272682, 96.390, 3362.0, 57.9828
7.003533247, 96.390, 3316.0, 57.5847
7.029793812, 96.390, 3529.0, 59.4054
7.056054378, 96.390, 3727.0, 61.0492
7.082314943, 96.390, 3869.0, 62.2013
7.108575508, 96.390, 4167.0, 64.5523
7.134836074, 96.390, 4521.0, 67.2384
7.161096639, 96.390, 5095.0, 71.3793
7.187357204, 96.390, 5600.0, 74.8331
7.213617770, 96.390, 5141.0, 71.7008
7.239878335, 96.390, 3750.0, 61.2372
7.266138900, 96.390, 3226.0, 56.7979
7.292399466, 96.390, 3041.0, 55.1453
7.318660031, 96.390, 3088.0, 55.5698
7.344920597, 96.390, 2975.0, 54.5436
7.371181162, 96.390, 3064.0, 55.3534
7.397441727, 96.390, 2888.0, 53.7401
7.423702293, 96.390, 2886.0, 53.7215
7.449962858, 96.390, 2920.0, 54.0370
7.476223423, 96.390, 2992.0, 54.6992
7.502483989, 96.390, 3013.0, 54.8908
7.528744554, 96.390, 2838.0, 53.2729
7.555005119, 96.390, 2967.0, 54.4702
7.581265685, 96.390, 2865.0, 53.5257
7.607526250, 96.390, 2872.0, 53.5910
7.633786815, 96.390, 2849.0, 53.3760
7.660047381, 96.390, 2963.0, 54.4334
7.686307946, 96.390, 2837.0, 53.2635
7.712568512, 96.390, 2886.0, 53.7215
7.738829077, 96.390, 2835.0, 53.2447
7.765089642, 96.390, 2841.0, 53.3010
7.791350208, 96.390, 2787.0, 52.7920
7.817610773, 96.390, 2911.0, 53.9537
7.843871338, 96.390, 2844.0, 53.3292
7.870131904, 96.390, 2915.0, 53.9907
7.896392469, 96.390, 2852.0, 53.4041
7.922653034, 96.390, 2946.0, 54.2771
7.948913600, 96.390, 2848.0, 53.3667
7.975174165, 96.390, 2912.0, 53.9630
8.001434730, 96.390, 2954.0, 54.3507
8.027695296, 96.390, 2932.0, 54.1479
8.053955861, 96.390, 2904.0, 53.8888
8.080216426, 96.390, 3037.0, 55.1090
8.106476992, 96.390, 3118.0, 55.8391
8.132737557, 96.390, 3193.0, 56.5066
8.158998123, 96.390, 3256.0, 57.0614
8.185258688, 96.390, 3069.0, 55.3986
8.211519253, 96.390, 2954.0, 54.3507
8.237779819, 96.390, 2790.0, 52.8205
8.264040384, 96.390, 2864.0, 53.5164
8.290300949, 96.390, 2865.0, 53.5257
8.316561515, 96.390, 2785.0, 52.7731
8.342822080, 96.390, 2761.0, 52.5452
8.369082645, 96.390, 2807.0, 52.9811
8.395343211, 96.390, 2802.0, 52.9339
8.421603776, 96.390, 2888.0, 53.7401
8.447864341, 96.390, 2819.0, 53.0943
8.474124907, 96.390, 2740.0, 52.3450
8.500385472, 96.390, 2852.0, 53.4041
8.526646038, 96.390, 2867.0, 53.5444
8.552906603, 96.390, 2816.0, 53.0660
8.579167168, 96.390, 2937.0, 54.1941
8.605427734, 96.390, 2840.0, 53.2917
8.631688299, 96.390, 2902.0, 53.8702
8.657948864, 96.390, 2797.0, 52.8867
8.684209430, 96.390, 2828.0, 53.1789
8.710469995, 96.390, 2850.0, 53.3854
8.736730560, 96.390, 2768.0, 52.6118
8.762991126, 96.390, 2832.0, 53.2165
8.789251691, 96.390, 2787.0, 52.7920
8.815512256, 96.390, 2816.0, 53.0660
8.841772822, 96.390, 2843.0, 53.3198
8.868033387, 96.390, 2855.0, 53.4322
8.894293952, 96.390, 2830.0, 53.1977
8.920554518, 96.390, 2868.0, 53.5537
8.946815083, 96.390, 2948.0, 54.2955
8.973075649, 96.390, 2892.0, 53.7773
8.999336214, 96.390, 2899.0, 53.8424
9.025596779, 96.390, 2868.0, 53.5537
9.051857345, 96.390, 2942.0, 54.2402
9.078117910, 96.390, 2934.0, 54.1664
9.104378475, 96.390, 2957.0, 54.3783
9.130639041, 96.390, 2862.0, 53.4977
9.156899606, 96.390, 2907.0, 53.9166
9.183160171, 96.390, 2929.0, 54.1202
9.209420737, 96.390, 2902.0, 53.8702
9.235681302, 96.390, 2899.0, 53.8424
9.261941867, 96.390, 2888.0, 53.7401
9.288202433, 96.390, 3029.0, 55.0364
9.314462998, 96.390, 2942.0, 54.2402
9.340723564, 96.390, 2864.0, 53.5164
9.366984129, 96.390, 2977.0, 54.5619
9.393244694, 96.390, 3033.0, 55.0727
9.419505260, 96.390, 3018.0, 54.9363
9.445765825, 96.390, 2997.0, 54.7449
9.472026390, 96.390, 3123.0, 55.8838
9.498286956, 96.390, 3036.0, 55.0999
9.524547521, 96.390, 3058.0, 55.2992
9.550808086, 96.390, 3063.0, 55.3444
9.577068652, 96.390, 3101.0, 55.6866
9.603329217, 96.390, 2965.0, 54.4518
9.629589782, 96.390, 2965.0, 54.4518
9.655850348, 96.390, 3126.0, 55.9106
9.682110913, 96.390, 3096.0, 55.6417
9.708371478, 96.390, 3101.0, 55.6866
9.734632044, 96.390, 3129.0, 55.9375
9.760892609, 96.390, 3082.0, 55.5158
9.787153175, 96.390, 3106.0, 55.7315
9.813413740, 96.390, 3197.0, 56.5420
9.839674305, 96.390, 3133.0, 55.9732
9.865934871, 96.390, 3159.0, 56.2050
9.892195436, 96.390, 3193.0, 56.5066
9.918456001, 96.390, 3308.0, 57.5152
9.944716567, 96.390, 3254.0, 57.0438
9.970977132, 96.390, 3333.0, 57.7321
9.997237697, 96.390, 3401.0, 58.3181
10.023498263, 96.390, 3472.0, 58.9237
10.049758828, 96.390, 3559.0, 59.6574
10.076019393, 96.390, 3798.0, 61.6279
10.102279959, 96.390, 4039.0, 63.5531
10.128540524, 96.390, 4230.0, 65.0385
10.154801090, 96.390, 4656.0, 68.2349
10.181061655, 96.390, 4872.0, 69.7997
10.207322220, 96.390, 4373.0, 66.1287
10.233582786, 96.390, 3759.0, 61.3107
10.259843351, 96.390, 3451.0, 58.7452
10.286103916, 96.390, 3422.0, 58.4979
10.312364482, 96.390, 3353.0, 57.9051
10.338625047, 96.390, 3471.0, 58.9152
10.364885612, 96.390, 3330.0, 57.7062
10.391146178, 96.390, 3248.0, 56.9912
10.417406743, 96.390, 3391.0, 58.2323
10.443667308, 96.390, 3430.0, 58.5662
10.469927874, 96.390, 3339.0, 57.7841
10.496188439, 96.390, 3403.0, 58.3352
10.522449004, 96.390, 3309.0, 57.5239
10.548709570, 96.390, 3311.0, 57.5413
10.574970135, 96.390, 3433.0, 58.5918
10.601230701, 96.390, 3358.0, 57.9483
10.627491266, 96.390, 3333.0, 57.7321
10.653751831, 96.390, 3466.0, 58.8727
10.680012397, 96.390, 3331.0, 57.7148
10.706272962, 96.390, 3344.0, 57.8273
10.732533527, 96.390, 3335.0, 57.7495
10.758794093, 96.390, 3367.0, 58.0259
10.785054658, 96.390, 3490.0, 59.0762
10.811315223, 96.390, 3372.0, 58.0689
10.837575789, 96.390, 3371.0, 58.0603
10.863836354, 96.390, 3437.0, 58.6259
10.890096919, 96.390, 3402.0, 58.3267
10.916357485, 96.390, 3422.0, 58.4979
10.942618050, 96.390, 3419.0, 58.4722
10.968878616, 96.390, 3483.0, 59.0169
10.995139181, 96.390, 3358.0, 57.9483
11.021399746, 96.390, 3470.0, 58.9067
11.047660312, 96.390, 3428.0, 58.5491
11.073920877, 96.390, 3371.0, 58.0603
11.100181442, 96.390, 3361.0, 57.9741
11.126442008, 96.390, 3330.0, 57.7062
11.152702573, 96.390, 3452.0, 58.7537
11.178963138, 96.390, 3514.0, 59.2790
11.205223704, 96.390, 3386.0, 58.1893
11.231484269, 96.390, 3346.0, 57.8446
11.257744834, 96.390, 3356.0, 57.9310
11.284005400, 96.390, 3454.0, 58.7707
11.310265965, 96.390, 3398.0, 58.2924
11.336526530, 96.390, 3380.0, 58.1378
11.362787096, 96.390, 3495.0, 59.1185
11.389047661, 96.390, 3428.0, 58.5491
11.415308227, 96.390, 3341.0, 57.8014
11.441568792, 96.390, 3362.0, 57.9828
11.467829357, 96.390, 3375.0, 58.0948
11.494089923, 96.390, 3419.0, 58.4722
11.520350488, 96.390, 3467.0, 58.8812
11.546611053, 96.390, 3331.0, 57.7148
11.572871619, 96.390, 3424.0, 58.5150
11.599132184, 96.390, 3399.0, 58.3009
11.625392749, 96.390, 3249.0, 57.0000
11.651653315, 96.390, 3403.0, 58.3352
11.677913880, 96.390, 3291.0, 57.3672
11.704174445, 96.390, 3282.0, 57.2887
11.730435011, 96.390, 3366.0, 58.0172
11.756695576, 96.390, 3271.0, 57.1927
11.782956141, 96.390, 3291.0, 57.3672
11.809216707, 96.390, 3283.0, 57.2975
11.835477272, 96.390, 3220.0, 56.7450
11.861737838, 96.390, 3222.0, 56.7627
11.887998403, 96.390, 3242.0, 56.9386
11.914258968, 96.390, 3166.0, 56.2672
11.940519534, 96.390, 3121.0, 55.8659
11.966780099, 96.390, 3147.0, 56.0981
11.993040664, 96.390, 3177.0, 56.3649
12.019301230, 96.390, 3184.0, 56.4269
12.045561795, 96.390, 3096.0, 55.6417
12.071822360, 96.390, 3135.0, 55.9911
12.098082926, 96.390, 3070.0, 55.4076
12.124343491, 96.390, 3082.0, 55.5158
12.150604056, 96.390, 3097.0, 55.6507
12.176864622, 96.390, 3135.0, 55.9911
12.203125187, 96.390, 3085.0, 55.5428
12.229385753, 96.390, 3116.0, 55.8211
12.255646318, 96.390, 3081.0, 55.5068
12.281906883, 96.390, 3133.0, 55.9732
12.308167449, 96.390, 3170.0, 56.3028
12.334428014, 96.390, 3134.0, 55.9821
12.360688579, 96.390, 3175.0, 56.3471
12.386949145, 96.390, 3262.0, 57.1139
12.413209710, 96.390, 3413.0, 58.4209
12.439470275, 96.390, 3709.0, 60.9016
12.465730841, 96.390, 3745.0, 61.1964
12.491991406, 96.390, 3526.0, 59.3801
12.518251971, 96.390, 3307.0, 57.5065
12.544512537, 96.390, 2943.0, 54.2494
12.570773102, 96.390, 2847.0, 53.3573
12.597033667, 96.390, 2755.0, 52.4881
12.623294233, 96.390, 2839.0, 53.2823
12.649554798, 96.390, 2826.0, 53.1601
12.675815364, 96.390, 2817.0, 53.0754
12.702075929, 96.390, 2765.0, 52.5833
12.728336494, 96.390, 2755.0, 52.4881
12.754597060, 96.390, 2754.0, 52.4786
12.780857625, 96.390, 2729.0, 52.2398
12.807118190, 96.390, 2672.0, 51.6914
12.833378756, 96.390, 2633.0, 51.3128
12.859639321, 96.390, 2671.0, 51.6817
12.885899886, 96.390, 2696.0, 51.9230
12.912160452, 96.390, 2544.0, 50.4381
12.938421017, 96.390, 2592.0, 50.9117
12.964681582, 96.390, 2599.0, 50.9804
12.990942148, 96.390, 2598.0, 50.9706
13.017202713, 96.390, 2578.0, 50.7740
13.043463279, 96.390, 2534.0, 50.3389
13.069723844, 96.390, 2365.0, 48.6313
13.095984409, 96.390, 2394.0, 48.9285
13.122244975, 96.390, 2500.0, 50.0000
13.148505540, 96.390, 2512.0, 50.1199
13.174766105, 96.390, 2506.0, 50.0600
13.201026671, 96.390, 2481.0, 49.8096
13.227287236, 96.390, 2419.0, 49.1833
13.253547801, 96.390, 2491.0, 49.9099
13.279808367, 96.390, 2377.0, 48.7545
13.306068932, 96.390, 2523.0, 50.2295
13.332329497, 96.390, 2423.0, 49.2240
13.358590063, 96.390, 2473.0, 49.7293
13.384850628, 96.390, 2501.0, 50.0100
13.411111193, 96.390, 2516.0, 50.1597
13.437371759, 96.390, 2556.0, 50.5569
13.463632324, 96.390, 2585.0, 50.8429
13.489892890, 96.390, 2611.0, 51.0979
13.516153455, 96.390, 2519.0, 50.1896
13.542414020, 96.390, 2473.0, 49.7293
13.568674586, 96.390, 2365.0, 48.6313
13.594935151, 96.390, 2282.0, 47.7703
13.621195716, 96.390, 2242.0, 47.3498
13.647456282, 96.390, 2312.0, 48.0833
13.673716847, 96.390, 2376.0, 48.7442
13.699977412, 96.390, 2312.0, 48.0833
13.726237978, 96.390, 2287.0, 47.8226
13.752498543, 96.390, 2276.0, 47.7074
13.778759108, 96.390, 2273.0, 47.6760
13.805019674, 96.390, 2157.0, 46.4435
13.831280239, 96.390, 2369.0, 48.6724
13.857540805, 96.390, 2266.0, 47.6025
13.883801370, 96.390, 2291.0, 47.8644
13.910061935, 96.390, 2282.0, 47.7703
13.936322501, 96.390, 2248.0, 47.4131
13.962583066, 96.390, 2219.0, 47.1063
13.988843631, 96.390, 2094.0, 45.7602
14.015104197, 96.390, 2200.0, 46.9042
14.041364762, 96.390, 2168.0, 46.5618
14.067625327, 96.390, 2117.0, 46.0109
14.093885893, 96.390, 2187.0, 46.7654
14.120146458, 96.390, 2169.0, 46.5725
14.146407023, 96.390, 2197.0, 46.8722
14.172667589, 96.390, 2230.0, 47.2229
14.198928154, 96.390, 2413.0, 49.1223
14.225188719, 96.390, 2451.0, 49.5076
14.251449285, 96.390, 2569.0, 50.6853
14.277709850, 96.390, 2600.0, 50.9902
14.303970416, 96.390, 2466.0, 49.6588
14.330230981, 96.390, 2198.0, 46.8828
14.356491546, 96.390, 2186.0, 46.7547
14.382752112, 96.390, 2227.0, 47.1911
14.409012677, 96.390, 2298.0, 47.9375
14.435273242, 96.390, 2389.0, 48.8774
14.461533808, 96.390, 2418.0, 49.1732
14.487794373, 96.390, 2673.0, 51.7011
14.514054938, 96.390, 2924.0, 54.0740
14.540315504, 96.390, 3073.0, 55.4346
14.566576069, 96.390, 2752.0, 52.4595
14.592836634, 96.390, 2422.0, 49.2138
14.619097200, 96.390, 2198.0, 46.8828
14.645357765, 96.390, 2097.0, 45.7930
14.671618331, 96.390, 1995.0, 44.6654
14.697878896, 96.390, 1994.0, 44.6542
14.724139461, 96.390, 1957.0, 44.2380
14.750400027, 96.390, 1997.0, 44.6878
14.776660592, 96.390, 1972.0, 44.4072
14.802921157, 96.390, 1930.0, 43.9318
14.829181723, 96.390, 1953.0, 44.1928
14.855442288, 96.390, 1951.0, 44.1701
14.881702853, 96.390, 1961.0, 44.2832
14.907963419, 96.390, 1945.0, 44.1022
14.934223984, 96.390, 2000.0, 44.7214
14.960484549, 96.390, 1859.0, 43.1161
14.986745115, 96.390, 1934.0, 43.9773
15.013005680, 96.390, 1933.0, 43.9659
15.039266245, 96.390, 2011.0, 44.8442
15.065526811, 96.390, 2048.0, 45.2548
15.091787376, 96.390, 2089.0, 45.7056
15.118047942, 96.390, 2140.0, 46.2601
15.144308507, 96.390, 2345.0, 48.4252
15.170569072, 96.390, 2485.0, 49.8498
15.196829638, 96.390, 2577.0, 50.7642
15.223090203, 96.390, 2624.0, 51.2250
15.249350768, 96.390, 2790.0, 52.8205
15.275611334, 96.390, 2637.0, 51.3517
15.301871899, 96.390, 2577.0, 50.7642
15.328132464, 96.390, 2318.0, 48.1456
15.354393030, 96.390, 2132.0, 46.1736
15.380653595, 96.390, 1954.0, 44.2041
15.406914160, 96.390, 1951.0, 44.1701
15.433174726, 96.390, 1859.0, 43.1161
15.459435291, 96.390, 1918.0, 43.7950
15.485695857, 96.390, 1848.0, 42.9884
15.511956422, 96.390, 1883.0, 43.3935
15.538216987, 96.390, 1886.0, 43.4281
15.564477553, 96.390, 1872.0, 43.2666
15.590738118, 96.390, 1805.0, 42.4853
15.616998683, 96.390, 1844.0, 42.9418
15.643259249, 96.390, 1963.0, 44.3058
15.669519814, 96.390, 1889.0, 43.4626
15.695780379, 96.390, 1922.0, 43.8406
15.722040945, 96.390, 2107.0, 45.9021
15.748301510, 96.390, 2002.0, 44.7437
15.774562075, 96.390, 1873.0, 43.2782
15.800822641, 96.390, 1803.0, 42.4617
15.827083206, 96.390, 1851.0, 43.0232
15.853343771, 96.390, 1901.0, 43.6005
15.879604337, 96.390, 1811.0, 42.5558
15.905864902, 96.390, 1798.0, 42.4028
15.932125468, 96.390, 1861.0, 43.1393
15.958386033, 96.390, 1909.0, 43.6921
15.984646598, 96.390, 1829.0, 42.7668
16.010907164, 96.390, 1928.0, 43.9090
16.037167729, 96.390, 2100.0, 45.8258
16.063428294, 96.390, 2303.0, 47.9896
16.089688860, 96.390, 2358.0, 48.5592
16.115949425, 96.390, 2579.0, 50.7839
16.142209990, 96.390, 2401.0, 49.0000
16.168470556, 96.390, 2288.0, 47.8330
16.194731121, 96.390, 2042.0, 45.1885
16.220991686, 96.390, 2049.0, 45.2659
16.247252252, 96.390, 2180.0, 46.6905
16.273512817, 96.390, 2223.0, 47.1487
16.299773382, 96.390, 2501.0, 50.0100
16.326033948, 96.390, 2458.0, 49.5782
16.352294513, 96.390, 2469.0, 49.6890
16.378555079, 96.390, 2218.0, 47.0956
16.404815644, 96.390, 1997.0, 44.6878
16.431076209, 96.390, 1856.0, 43.0813
16.457336775, 96.390, 1787.0, 42.2729
16.483597340, 96.390, 1760.0, 41.9524
16.509857905, 96.390, 1780.0, 42.1900
16.536118471, 96.390, 1707.0, 41.3159
16.562379036, 96.390, 1804.0, 42.4735
16.588639601, 96.390, 1784.0, 42.2374
16.614900167, 96.390, 1762.0, 41.9762
16.641160732, 96.390, 1709.0, 41.3401
16.667421297, 96.390, 1732.0, 41.6173
16.693681863, 96.390, 1729.0, 41.5812
16.719942428, 96.390, 1807.0, 42.5088
16.746202994, 96.390, 1674.0, 40.9145
16.772463559, 96.390, 1695.0, 41.1704
16.798724124, 96.390, 1747.0, 41.7971
16.824984690, 96.390, 1816.0, 42.6146
16.851245255, 96.390, 1705.0, 41.2916
16.877505820, 96.390, 1742.0, 41.7373
16.903766386, 96.390, 1723.0, 41.5090
16.930026951, 96.390, 1781.0, 42.2019
16.956287516, 96.390, 1677.0, 40.9512
16.982548082, 96.390, 1741.0, 41.7253
17.008808647, 96.390, 1692.0, 41.1339
17.035069212, 96.390, 1682.0, 41.0122
17.061329778, 96.390, 1634.0, 40.4228
17.087590343, 96.390, 1672.0, 40.8901
17.113850908, 96.390, 1593.0, 39.9124
17.140111474, 96.390, 1758.0, 41.9285
17.166372039, 96.390, 1744.0, 41.7612
17.192632605, 96.390, 1768.0, 42.0476
17.218893170, 96.390, 1749.0, 41.8210
17.245153735, 96.390, 1746.0, 41.7852
17.271414301, 96.390, 1703.0, 41.2674
17.297674866, 96.390, 1692.0, 41.1339
17.323935431, 96.390, 1741.0, 41.7253
17.350195997, 96.390, 1778.0, 42.1663
17.376456562, 96.390, 1734.0, 41.6413
17.402717127, 96.390, 1673.0, 40.9023
17.428977693, 96.390, 1781.0, 42.2019
17.455238258, 96.390, 1678.0, 40.9634
17.481498823, 96.390, 1626.0, 40.3237
17.507759389, 96.390, 1763.0, 41.9881
17.534019954, 96.390, 1745.0, 41.7732
17.560280520, 96.390, 1746.0, 41.7852
17.586541085, 96.390, 1725.0, 41.5331
17.612801650, 96.390, 1697.0, 41.1947
17.639062216, 96.390, 1725.0, 41.5331
17.665322781, 96.390, 1754.0, 41.8808
17.691583346, 96.390, 1703.0, 41.2674
17.717843912, 96.390, 1707.0, 41.3159
17.744104477, 96.390, 1653.0, 40.6571
17.770365042, 96.390, 1723.0, 41.5090
17.796625608, 96.390, 1783.0, 42.2256
17.822886173, 96.390, 1808.0, 42.5206
17.849146738, 96.390, 1769.0, 42.0595
17.875407304, 96.390, 1760.0, 41.9524
17.901667869, 96.390, 1746.0, 41.7852
17.927928434, 96.390, 1769.0, 42.0595
17.954189000, 96.390, 1755.0, 41.8927
17.980449565, 96.390, 1781.0, 42.2019
18.006710131, 96.390, 1752.0, 41.8569
18.032970696, 96.390, 1895.0, 43.5316
18.059231261, 96.390, 1810.0, 42.5441
18.085491827, 96.390, 1890.0, 43.4741
18.111752392, 96.390, 1902.0, 43.6119
18.138012957, 96.390, 1997.0, 44.6878
18.164273523, 96.390, 2054.0, 45.3211
18.190534088, 96.390, 2073.0, 45.5302
18.216794653, 96.390, 2165.0, 46.5296
18.243055219, 96.390, 2369.0, 48.6724
18.269315784, 96.390, 2677.0, 51.7397
18.295576349, 96.390, 2803.0, 52.9434
18.321836915, 96.390, 2781.0, 52.7352
18.348097480, 96.390, 2996.0, 54.7357
18.374358046, 96.390, 3046.0, 55.1906
18.400618611, 96.390, 3334.0, 57.7408
18.426879176, 96.390, 3509.0, 59.2368
18.453139742, 96.390, 3884.0, 62.3217
18.479400307, 96.390, 4088.0, 63.9375
18.505660872, 96.390, 4149.0, 64.4127
18.531921438, 96.390, 4232.0, 65.0538
18.558182003, 96.390, 4372.0, 66.1211
18.584442568, 96.390, 4258.0, 65.2534
18.610703134, 96.390, 4492.0, 67.0224
18.636963699, 96.390, 4573.0, 67.6240
18.663224264, 96.390, 4796.0, 69.2532
18.689484830, 96.390, 5073.0, 71.2250
18.715745395, 96.390, 5621.0, 74.9733
18.742005960, 96.390, 6076.0, 77.9487
18.768266526, 96.390, 6583.0, 81.1357
18.794527091, 96.390, 6527.0, 80.7899
18.820787657, 96.390, 5705.0, 75.5315
18.847048222, 96.390, 4843.0, 69.5917
18.873308787, 96.390, 4026.0, 63.4508
18.899569353, 96.390, 3424.0, 58.5150
18.925829918, 96.390, 3156.0, 56.1783
18.952090483, 96.390, 3075.0, 55.4527
18.978351049, 96.390, 2820.0, 53.1037
19.004611614, 96.390, 2695.0, 51.9134
19.030872179, 96.390, 2418.0, 49.1732
19.057132745, 96.390, 2235.0, 47.2758
19.083393310, 96.390, 2210.0, 47.0106
19.109653875, 96.390, 2105.0, 45.8803
19.135914441, 96.390, 2008.0, 44.8107
19.162175006, 96.390, 2097.0, 45.7930
19.188435572, 96.390, 1921.0, 43.8292
19.214696137, 96.390, 1872.0, 43.2666
19.240956702, 96.390, 1962.0, 44.2945
19.267217268, 96.390, 1872.0, 43.2666
19.293477833, 96.390, 1953.0, 44.1928
19.319738398, 96.390, 1999.0, 44.7102
19.345998964, 96.390, 2045.0, 45.2217
19.372259529, 96.390, 2159.0, 46.4650
19.398520094, 96.390, 2181.0, 46.7012
19.424780660, 96.390, 2115.0, 45.9891
19.451041225, 96.390, 2175.0, 46.6369
19.477301790, 96.390, 2082.0, 45.6289
19.503562356, 96.390, 1987.0, 44.5758
19.529822921, 96.390, 1921.0, 43.8292
19.556083486, 96.390, 1898.0, 43.5660
19.582344052, 96.390, 1824.0, 42.7083
19.608604617, 96.390, 1898.0, 43.5660
19.634865183, 96.390, 1979.0, 44.4860
19.661125748, 96.390, 1922.0, 43.8406
19.687386313, 96.390, 1952.0, 44.1814
19.713646879, 96.390, 2036.0, 45.1221
19.739907444, 96.390, 1958.0, 44.2493
19.766168009, 96.390, 1974.0, 44.4297
19.792428575, 96.390, 2100.0, 45.8258
19.818689140, 96.390, 1995.0, 44.6654
19.844949705, 96.390, 2062.0, 45.4093
19.871210271, 96.390, 2202.0, 46.9255
19.897470836, 96.390, 2382.0, 48.8057
19.923731401, 96.390, 2553.0, 50.5272
19.949991967, 96.390, 2930.0, 54.1295
19.976252532, 96.390, 2928.0, 54.1110
20.002513098, 96.390, 2751.0, 52.4500
20.028773663, 96.390, 2566.0, 50.6557
20.055034228, 96.390, 2471.0, 49.7092
20.081294794, 96.390, 2357.0, 48.5489
20.107555359, 96.390, 2536.0, 50.3587
20.133815924, 96.390, 2656.0, 51.5364
20.160076490, 96.390, 3109.0, 55.7584
20.186337055, 96.390, 3402.0, 58.3267
20.212597620, 96.390, 4054.0, 63.6710
20.238858186, 96.390, 4850.0, 69.6419
20.265118751, 96.390, 5445.0, 73.7902
20.291379316, 96.390, 5736.0, 75.7364
20.317639882, 96.390, 5810.0, 76.2234
20.343900447, 96.390, 5431.0, 73.6953
20.370161012, 96.390, 5120.0, 71.5542
20.396421578, 96.390, 4926.0, 70.1855
20.422682143, 96.390, 4709.0, 68.6222
20.448942709, 96.390, 4428.0, 66.5432
20.475203274, 96.390, 4026.0, 63.4508
20.501463839, 96.390, 3619.0, 60.1581
20.527724405, 96.390, 3294.0, 57.3934
20.553984970, 96.390, 3113.0, 55.7943
20.580245535, 96.390, 3063.0, 55.3444
20.606506101, 96.390, 3325.0, 57.6628
20.632766666, 96.390, 3530.0, 59.4138
20.659027231, 96.390, 3925.0, 62.6498
20.685287797, 96.390, 4648.0, 68.1762
20.711548362, 96.390, 4982.0, 70.5833
20.737808927, 96.390, 4288.0, 65.4828
20.764069493, 96.390, 3655.0, 60.4566
20.790330058, 96.390, 2892.0, 53.7773
20.816590623, 96.390, 2368.0, 48.6621
20.842851189, 96.390, 2170.0, 46.5833
20.869111754, 96.390, 2213.0, 47.0425
20.895372320, 96.390, 2140.0, 46.2601
20.921632885, 96.390, 2099.0, 45.8148
20.947893450, 96.390, 2106.0, 45.8912
20.974154016, 96.390, 2007.0, 44.7996
21.000414581, 96.390, 1970.0, 44.3847
21.026675146, 96.390, 2032.0, 45.0777
21.052935712, 96.390, 1917.0, 43.7836
21.079196277, 96.390, 1976.0, 44.4522
21.105456842, 96.390, 1988.0, 44.5870
21.131717408, 96.390, 1925.0, 43.8748
21.157977973, 96.390, 1953.0, 44.1928
21.184238538, 96.390, 2020.0, 44.9444
21.210499104, 96.390, 2064.0, 45.4313
21.236759669, 96.390, 2105.0, 45.8803
21.263020235, 96.390, 2091.0, 45.7275
21.289280800, 96.390, 2397.0, 48.9592
21.315541365, 96.390, 2407.0, 49.0612
21.341801931, 96.390, 2320.0, 48.1664
21.368062496, 96.390, 2175.0, 46.6369
21.394323061, 96.390, 2062.0, 45.4093
21.420583627, 96.390, 2114.0, 45.9783
21.446844192, 96.390, 2096.0, 45.7821
21.473104757, 96.390, 1983.0, 44.5309
21.499365323, 96.390, 2044.0, 45.2106
21.525625888, 96.390, 2213.0, 47.0425
21.551886453, 96.390, 2317.0, 48.1352
21.578147019, 96.390, 2563.0, 50.6261
21.604407584, 96.390, 2794.0, 52.8583
21.630668149, 96.390, 3170.0, 56.3028
21.656928715, 96.390, 3170.0, 56.3028
21.683189280, 96.390, 3101.0, 55.6866
21.709449846, 96.390, 2724.0, 52.1920
21.735710411, 96.390, 2526.0, 50.2593
21.761970976, 96.390, 2241.0, 47.3392
21.788231542, 96.390, 2044.0, 45.2106
21.814492107, 96.390, 2071.0, 45.5082
21.840752672, 96.390, 1991.0, 44.6206
21.867013238, 96.390, 1895.0, 43.5316
21.893273803, 96.390, 1983.0, 44.5309
21.919534368, 96.390, 1978.0, 44.4747
21.945794934, 96.390, 1886.0, 43.4281
21.972055499, 96.390, 1908.0, 43.6807
21.998316064, 96.390, 2023.0, 44.9778
22.024576630, 96.390, 1941.0, 44.0568
22.050837195, 96.390, 1982.0, 44.5197
22.077097761, 96.390, 2016.0, 44.8999
22.103358326, 96.390, 1943.0, 44.0795
22.129618891, 96.390, 2026.0, 45.0111
22.155879457, 96.390, 1959.0, 44.2606
22.182140022, 96.390, 2000.0, 44.7214
22.208400587, 96.390, 2050.0, 45.2769
22.234661153, 96.390, 2022.0, 44.9667
22.260921718, 96.390, 1937.0, 44.0114
22.287182283, 96.390, 1967.0, 44.3509
22.313442849, 96.390, 2010.0, 44.8330
22.339703414, 96.390, 2037.0, 45.1331
22.365963979, 96.390, 2119.0, 46.0326
22.392224545, 96.390, 2097.0, 45.7930
22.418485110, 96.390, 2085.0, 45.6618
22.444745675, 96.390, 2081.0, 45.6180
22.471006241, 96.390, 2119.0, 46.0326
22.497266806, 96.390, 2168.0, 46.5618
22.523527372, 96.390, 2185.0, 46.7440
22.549787937, 96.390, 2240.0, 47.3286
22.576048502, 96.390, 2195.0, 46.8508
22.602309068, 96.390, 2306.0, 48.0208
22.628569633, 96.390, 2293.0, 47.8853
22.654830198, 96.390, 2238.0, 47.3075
22.681090764, 96.390, 2205.0, 46.9574
22.707351329, 96.390, 2242.0, 47.3498
22.733611894, 96.390, 2373.0, 48.7134
22.759872460, 96.390, 2438.0, 49.3761
22.786133025, 96.390, 2550.0, 50.4975
22.812393590, 96.390, 2690.0, 51.8652
22.838654156, 96.390, 2638.0, 51.3615
22.864914721, 96.390, 2751.0, 52.4500
22.891175287, 96.390, 2812.0, 53.0283
22.917435852, 96.390, 2632.0, 51.3030
22.943696417, 96.390, 2671.0, 51.6817
22.969956983, 96.390, 2643.0, 51.4101
22.996217548, 96.390, 2581.0, 50.8035
23.022478113, 96.390, 2553.0, 50.5272
23.048738679, 96.390, 2535.0, 50.3488
23.074999244, 96.390, 2551.0, 50.5074
23.101259809, 96.390, 2551.0, 50.5074
23.127520375, 96.390, 2788.0, 52.8015
23.153780940, 96.390, 2860.0, 53.4790
23.180041505, 96.390, 2963.0, 54.4334
23.206302071, 96.390, 3052.0, 55.2449
23.232562636, 96.390, 2839.0, 53.2823
23.258823201, 96.390, 2705.0, 52.0096
23.285083767, 96.390, 2587.0, 50.8626
23.311344332, 96.390, 2642.0, 51.4004
23.337604898, 96.390, 2677.0, 51.7397
23.363865463, 96.390, 2763.0, 52.5642
23.390126028, 96.390, 2684.0, 51.8073
23.416386594, 96.390, 2696.0, 51.9230
23.442647159, 96.390, 2629.0, 51.2738
23.468907724, 96.390, 2492.0, 49.9199
23.495168290, 96.390, 2423.0, 49.2240
23.521428855, 96.390, 2452.0, 49.5177
23.547689420, 96.390, 2483.0, 49.8297
23.573949986, 96.390, 2452.0, 49.5177
23.600210551, 96.390, 2457.0, 49.5681
23.626471116, 96.390, 2335.0, 48.3218
23.652731682, 96.390, 2332.0, 48.2908
23.678992247, 96.390, 2224.0, 47.1593
23.705252813, 96.390, 2211.0, 47.0213
23.731513378, 96.390, 2130.0, 46.1519
23.757773943, 96.390, 2187.0, 46.7654
23.784034509, 96.390, 2214.0, 47.0532
23.810295074, 96.390, 2219.0, 47.1063
23.836555639, 96.390, 2288.0, 47.8330
23.862816205, 96.390, 2427.0, 49.2646
23.889076770, 96.390, 2465.0, 49.6488
23.915337335, 96.390, 2627.0, 51.2543
23.941597901, 96.390, 2881.0, 53.6749
23.967858466, 96.390, 3166.0, 56.2672
23.994119031, 96.390, 3359.0, 57.9569
24.020379597, 96.390, 3201.0, 56.5774
24.046640162, 96.390, 3010.0, 54.8635
24.072900727, 96.390, 2761.0, 52.5452
24.099161293, 96.390, 2434.0, 49.3356
24.125421858, 96.390, 2264.0, 47.5815
24.151682424, 96.390, 2284.0, 47.7912
24.177942989, 96.390, 2230.0, 47.2229
24.204203554, 96.390, 2205.0, 46.9574
24.230464120, 96.390, 2075.0, 45.5522
24.256724685, 96.390, 2051.0, 45.2880
24.282985250, 96.390, 1956.0, 44.2267
24.309245816, 96.390, 1944.0, 44.0908
24.335506381, 96.390, 1878.0, 43.3359
24.361766946, 96.390, 1912.0, 43.7264
24.388027512, 96.390, 1893.0, 43.5086
24.414288077, 96.390, 1852.0, 43.0349
24.440548642, 96.390, 1842.0, 42.9185
24.466809208, 96.390, 1801.0, 42.4382
24.493069773, 96.390, 1790.0, 42.3084
24.519330338, 96.390, 1725.0, 41.5331
24.545590904, 96.390, 1919.0, 43.8064
24.571851469, 96.390, 1734.0, 41.6413
24.598112035, 96.390, 1796.0, 42.3792
24.624372600, 96.390, 1750.0, 41.8330
24.650633165, 96.390, 1744.0, 41.7612
24.676893731, 96.390, 1748.0, 41.8091
24.703154296, 96.390, 1799.0, 42.4146
24.729414861, 96.390, 1659.0, 40.7308
24.755675427, 96.390, 1753.0, 41.8688
24.781935992, 96.390, 1752.0, 41.8569
24.808196557, 96.390, 1747.0, 41.7971
24.834457123, 96.390, 1794.0, 42.3556
24.860717688, 96.390, 1686.0, 41.0609
24.886978253, 96.390, 1694.0, 41.1582
24.913238819, 96.390, 1651.0, 40.6325
24.939499384, 96.390, 1514.0, 38.9102
24.965759950, 96.390, 1623.0, 40.2865
24.992020515, 96.390, 1587.0, 39.8372
25.018281080, 96.390, 1628.0, 40.3485
25.044541646, 96.390, 1608.0, 40.0999
25.070802211, 96.390, 1565.0, 39.5601
25.097062776, 96.390, 1585.0, 39.8121
25.123323342, 96.390, 1474.0, 38.3927
25.149583907, 96.390, 1529.0, 39.1024
25.175844472, 96.390, 1552.0, 39.3954
25.202105038, 96.390, 1525.0, 39.0512
25.228365603, 96.390, 1520.0, 38.9872
25.254626168, 96.390, 1558.0, 39.4715
25.280886734, 96.390, 1505.0, 38.7943
25.307147299, 96.390, 1610.0, 40.1248
25.333407864, 96.390, 1626.0, 40.3237
25.359668430, 96.390, 1663.0, 40.7799
25.385928995, 96.390, 1790.0, 42.3084
25.412189561, 96.390, 1953.0, 44.1928
25.438450126, 96.390, 2002.0, 44.7437
25.464710691, 96.390, 1926.0, 43.8862
25.490971257, 96.390, 1799.0, 42.4146
25.517231822, 96.390, 1734.0, 41.6413
25.543492387, 96.390, 1673.0, 40.9023
25.569752953, 96.390, 1524.0, 39.0384
25.596013518, 96.390, 1479.0, 38.4578
25.622274083, 96.390, 1385.0, 37.2156
25.648534649, 96.390, 1408.0, 37.5233
25.674795214, 96.390, 1469.0, 38.3275
25.701055779, 96.390, 1483.0, 38.5097
25.727316345, 96.390, 1379.0, 37.1349
25.753576910, 96.390, 1443.0, 37.9868
25.779837476, 96.390, 1500.0, 38.7298
25.806098041, 96.390, 1506.0, 38.8072
25.832358606, 96.390, 1550.0, 39.3700
25.858619172, 96.390, 1544.0, 39.2938
25.884879737, 96.390, 1454.0, 38.1314
25.911140302, 96.390, 1513.0, 38.8973
25.937400868, 96.390, 1524.0, 39.0384
25.963661433, 96.390, 1498.0, 38.7040
25.989921998, 96.390, 1577.0, 39.7115
26.016182564, 96.390, 1612.0, 40.1497
26.042443129, 96.390, 1575.0, 39.6863
26.068703694, 96.390, 1708.0, 41.3280
26.094964260, 96.390, 1788.0, 42.2847
26.121224825, 96.390, 1851.0, 43.0232
26.147485390, 96.390, 1768.0, 42.0476
26.173745956, 96.390, 1600.0, 40.0000
26.200006521, 96.390, 1674.0, 40.9145
26.226267087, 96.390, 1589.0, 39.8623
26.252527652, 96.390, 1467.0, 38.3014
26.278788217, 96.390, 1458.0, 38.1838
26.305048783, 96.390, 1378.0, 37.1214
26.331309348, 96.390, 1461.0, 38.2230
26.357569913, 96.390, 1464.0, 38.2623
26.383830479, 96.390, 1502.0, 38.7556
26.410091044, 96.390, 1495.0, 38.6652
26.436351609, 96.390, 1547.0, 39.3319
26.462612175, 96.390, 1507.0, 38.8201
26.488872740, 96.390, 1456.0, 38.1576
26.515133305, 96.390, 1534.0, 39.1663
26.541393871, 96.390, 1555.0, 39.4335
26.567654436, 96.390, 1540.0, 39.2428
26.593915002, 96.390, 1527.0, 39.0768
26.620175567, 96.390, 1556.0, 39.4462
26.646436132, 96.390, 1578.0, 39.7240
26.672696698, 96.390, 1614.0, 40.1746
26.698957263, 96.390, 1799.0, 42.4146
26.725217828, 96.390, 1870.0, 43.2435
26.751478394, 96.390, 2107.0, 45.9021
26.777738959, 96.390, 2238.0, 47.3075
26.803999524, 96.390, 2299.0, 47.9479
26.830260090, 96.390, 2292.0, 47.8748
26.856520655, 96.390, 2087.0, 45.6837
26.882781220, 96.390, 2080.0, 45.6070
26.909041786, 96.390, 1969.0, 44.3734
26.935302351, 96.390, 1998.0, 44.6990
26.961562916, 96.390, 2109.0, 45.9239
26.987823482, 96.390, 2230.0, 47.2229
27.014084047, 96.390, 2500.0, 50.0000
27.040344613, 96.390, 2848.0, 53.3667
27.066605178, 96.390, 3042.0, 55.1543
27.092865743, 96.390, 3380.0, 58.1378
27.119126309, 96.390, 3773.0, 61.4248
27.145386874, 96.390, 3929.0, 62.6817
27.171647439, 96.390, 3888.0, 62.3538
27.197908005, 96.390, 3846.0, 62.0161
27.224168570, 96.390, 3404.0, 58.3438
27.250429135, 96.390, 2785.0, 52.7731
27.276689701, 96.390, 2432.0, 49.3153
27.302950266, 96.390, 2173.0, 46.6154
27.329210831, 96.390, 1950.0, 44.1588
27.355471397, 96.390, 1801.0, 42.4382
27.381731962, 96.390, 1774.0, 42.1189
27.407992528, 96.390, 1723.0, 41.5090
27.434253093, 96.390, 1803.0, 42.4617
27.460513658, 96.390, 1728.0, 41.5692
27.486774224, 96.390, 1650.0, 40.6202
27.513034789, 96.390, 1737.0, 41.6773
27.539295354, 96.390, 1702.0, 41.2553
27.565555920, 96.390, 1634.0, 40.4228
27.591816485, 96.390, 1753.0, 41.8688
27.618077050, 96.390, 1881.0, 43.3705
27.644337616, 96.390, 1901.0, 43.6005
27.670598181, 96.390, 1979.0, 44.4860
27.696858746, 96.390, 2117.0, 46.0109
27.723119312, 96.390, 2168.0, 46.5618
27.749379877, 96.390, 2249.0, 47.4236
27.775640442, 96.390, 2363.0, 48.6107
27.801901008, 96.390, 2440.0, 49.3964
27.828161573, 96.390, 2442.0, 49.4166
27.854422139, 96.390, 2385.0, 48.8365
27.880682704, 96.390, 2291.0, 47.8644
27.906943269, 96.390, 2175.0, 46.6369
27.933203835, 96.390, 2095.0, 45.7712
27.959464400, 96.390, 1937.0, 44.0114
27.985724965, 96.390, 1855.0, 43.0697
28.011985531, 96.390, 1827.0, 42.7434
28.038246096, 96.390, 1836.0, 42.8486
28.064506661, 96.390, 1793.0, 42.3438
28.090767227, 96.390, 1669.0, 40.8534
28.117027792, 96.390, 1618.0, 40.2244
28.143288357, 96.390, 1617.0, 40.2119
28.169548923, 96.390, 1623.0, 40.2865
28.195809488, 96.390, 1596.0, 39.9500
28.222070054, 96.390, 1574.0, 39.6737
28.248330619, 96.390, 1554.0, 39.4208
28.274591184, 96.390, 1545.0, 39.3065
28.300851750, 96.390, 1556.0, 39.4462
28.327112315, 96.390, 1578.0, 39.7240
28.353372880, 96.390, 1546.0, 39.3192
28.379633446, 96.390, 1586.0, 39.8246
28.405894011, 96.390, 1647.0, 40.5832
28.432154576, 96.390, 1593.0, 39.9124
28.458415142, 96.390, 1583.0, 39.7869
28.484675707, 96.390, 1552.0, 39.3954
28.510936272, 96.390, 1514.0, 38.9102
28.537196838, 96.390, 1533.0, 39.1535
28.563457403, 96.390, 1465.0, 38.2753
28.589717968, 96.390, 1452.0, 38.1051
28.615978534, 96.390, 1586.0, 39.8246
28.642239099, 96.390, 1552.0, 39.3954
28.668499665, 96.390, 1586.0, 39.8246
28.694760230, 96.390, 1564.0, 39.5474
28.721020795, 96.390, 1589.0, 39.8623
28.747281361, 96.390, 1582.0, 39.7744
28.773541926, 96.390, 1672.0, 40.8901
28.799802491, 96.390, 1613.0, 40.1622
28.826063057, 96.390, 1618.0, 40.2244
28.852323622, 96.390, 1622.0, 40.2741
28.878584187, 96.390, 1473.0, 38.3797
28.904844753, 96.390, 1479.0, 38.4578
28.931105318, 96.390, 1552.0, 39.3954
28.957365883, 96.390, 1506.0, 38.8072
28.983626449, 96.390, 1530.0, 39.1152
29.009887014, 96.390, 1574.0, 39.6737
29.036147579, 96.390, 1682.0, 41.0122
29.062408145, 96.390, 1696.0, 41.1825
29.088668710, 96.390, 1897.0, 43.5546
29.114929276, 96.390, 1947.0, 44.1248
29.141189841, 96.390, 2057.0, 45.3542
29.167450406, 96.390, 2076.0, 45.5631
29.193710972, 96.390, 2115.0, 45.9891
29.219971537, 96.390, 2175.0, 46.6369
29.246232102, 96.390, 2158.0, 46.4543
29.272492668, 96.390, 2288.0, 47.8330
29.298753233, 96.390, 2469.0, 49.6890
29.325013798, 96.390, 2485.0, 49.8498
29.351274364, 96.390, 2297.0, 47.9270
29.377534929, 96.390, 2260.0, 47.5395
29.403795494, 96.390, 2205.0, 46.9574
29.430056060, 96.390, 2129.0, 46.1411
29.456316625, 96.390, 2127.0, 46.1194
29.482577191, 96.390, 2160.0, 46.4758
29.508837756, 96.390, 2158.0, 46.4543
29.535098321, 96.390, 2030.0, 45.0555
29.561358887, 96.390, 1887.0, 43.4396
29.587619452, 96.390, 1802.0, 42.4500
29.613880017, 96.390, 1795.0, 42.3674
29.640140583, 96.390, 1714.0, 41.4005
29.666401148, 96.390, 1733.0, 41.6293
29.692661713, 96.390, 1716.0, 41.4246
29.718922279, 96.390, 1805.0, 42.4853
29.745182844, 96.390, 1670.0, 40.8656
29.771443409, 96.390, 1724.0, 41.5211
29.797703975, 96.390, 1780.0, 42.1900
29.823964540, 96.390, 1755.0, 41.8927
29.850225105, 96.390, 1847.0, 42.9767
29.876485671, 96.390, 2179.0, 46.6798
29.902746236, 96.390, 2483.0, 49.8297
29.929006802, 96.390, 2711.0, 52.0673
29.955267367, 96.390, 2809.0, 53.0000
29.981527932, 96.390, 2580.0, 50.7937
30.007788498, 96.390, 2404.0, 49.0306
30.034049063, 96.390, 2168.0, 46.5618
30.060309628, 96.390, 1922.0, 43.8406
30.086570194, 96.390, 1666.0, 40.8167
30.112830759, 96.390, 1508.0, 38.8330
30.139091324, 96.390, 1522.0, 39.0128
30.165351890, 96.390, 1500.0, 38.7298
30.191612455, 96.390, 1537.0, 39.2046
30.217873020, 96.390, 1431.0, 37.8286
30.244133586, 96.390, 1379.0, 37.1349
30.270394151, 96.390, 1405.0, 37.4833
30.296654717, 96.390, 1436.0, 37.8946
30.322915282, 96.390, 1433.0, 37.8550
30.349175847, 96.390, 1431.0, 37.8286
30.375436413, 96.390, 1488.0, 38.5746
30.401696978, 96.390, 1499.0, 38.7169
30.427957543, 96.390, 1479.0, 38.4578
30.454218109, 96.390, 1568.0, 39.5980
30.480478674, 96.390, 1518.0, 38.9615
30.506739239, 96.390, 1506.0, 38.8072
30.532999805, 96.390, 1520.0, 38.9872
30.559260370, 96.390, 1623.0, 40.2865
30.585520935, 96.390, 1713.0, 41.3884
30.611781501, 96.390, 1683.0, 41.0244
30.638042066, 96.390, 1763.0, 41.9881
30.664302631, 96.390, 1814.0, 42.5911
30.690563197, 96.390, 1852.0, 43.0349
30.716823762, 96.390, 1825.0, 42.7200
30.743084328, 96.390, 1776.0, 42.1426
30.769344893, 96.390, 1877.0, 43.3244
30.795605458, 96.390, 1968.0, 44.3621
30.821866024, 96.390, 2038.0, 45.1442
30.848126589, 96.390, 2009.0, 44.8219
30.874387154, 96.390, 1937.0, 44.0114
30.900647720, 96.390, 1870.0, 43.2435
30.926908285, 96.390, 1774.0, 42.1189
30.953168850, 96.390, 1638.0, 40.4722
30.979429416, 96.390, 1534.0, 39.1663
31.005689981, 96.390, 1608.0, 40.0999
31.031950546, 96.390, 1533.0, 39.1535
31.058211112, 96.390, 1520.0, 38.9872
31.084471677, 96.390, 1626.0, 40.3237
31.110732243, 96.390, 1612.0, 40.1497
31.136992808, 96.390, 1739.0, 41.7013
31.163253373, 96.390, 2069.0, 45.4863
31.189513939, 96.390, 2256.0, 47.4974
31.215774504, 96.390, 2439.0, 49.3862
31.242035069, 96.390, 2494.0, 49.9400
31.268295635, 96.390, 2558.0, 50.5767
31.294556200, 96.390, 2517.0, 50.1697
31.320816765, 96.390, 2499.0, 49.9900
31.347077331, 96.390, 2393.0, 48.9183
31.373337896, 96.390, 2247.0, 47.4025
31.399598461, 96.390, 2204.0, 46.9468
31.425859027, 96.390, 2008.0, 44.8107
31.452119592, 96.390, 1873.0, 43.2782
31.478380157, 96.390, 1887.0, 43.4396
31.504640723, 96.390, 1793.0, 42.3438
31.530901288, 96.390, 1680.0, 40.9878
31.557161854, 96.390, 1667.0, 40.8289
31.583422419, 96.390, 1662.0, 40.7676
31.609682984, 96.390, 1585.0, 39.8121
31.635943550, 96.390, 1625.0, 40.3113
31.662204115, 96.390, 1518.0, 38.9615
31.688464680, 96.390, 1499.0, 38.7169
31.714725246, 96.390, 1462.0, 38.2361
31.740985811, 96.390, 1514.0, 38.9102
31.767246376, 96.390, 1464.0, 38.2623
31.793506942, 96.390, 1479.0, 38.4578
31.819767507, 96.390, 1541.0, 39.2556
31.846028072, 96.390, 1477.0, 38.4318
31.872288638, 96.390, 1559.0, 39.4842
31.898549203, 96.390, 1686.0, 41.0609
31.924809769, 96.390, 1817.0, 42.6263
31.951070334, 96.390, 1973.0, 44.4185
31.977330899, 96.390, 2331.0, 48.2804
32.003591465, 96.390, 2706.0, 52.0192
32.029852030, 96.390, 3163.0, 56.2406
32.056112595, 96.390, 3712.0, 60.9262
32.082373161, 96.390, 3572.0, 59.7662
32.108633726, 96.390, 3182.0, 56.4092
32.134894291, 96.390, 2790.0, 52.8205
32.161154857, 96.390, 2559.0, 50.5866
32.187415422, 96.390, 2387.0, 48.8569
32.213675987, 96.390, 2067.0, 45.4643
32.239936553, 96.390, 2053.0, 45.3100
32.266197118, 96.390, 2121.0, 46.0543
32.292457683, 96.390, 2023.0, 44.9778
32.318718249, 96.390, 1895.0, 43.5316
32.344978814, 96.390, 1859.0, 43.1161
32.371239380, 96.390, 1619.0, 40.2368
32.397499945, 96.390, 1667.0, 40.8289
32.423760510, 96.390, 1467.0, 38.3014
32.450021076, 96.390, 1501.0, 38.7427
32.476281641, 96.390, 1485.0, 38.5357
32.502542206, 96.390, 1538.0, 39.2173
32.528802772, 96.390, 1650.0, 40.6202
32.555063337, 96.390, 1650.0, 40.6202
32.581323902, 96.390, 1625.0, 40.3113
32.607584468, 96.390, 1574.0, 39.6737
32.633845033, 96.390, 1595.0, 39.9375
32.660105598, 96.390, 1627.0, 40.3361
32.686366164, 96.390, 1687.0, 41.0731
32.712626729, 96.390, 1595.0, 39.9375
32.738887295, 96.390, 1569.0, 39.6106
32.765147860, 96.390, 1486.0, 38.5487
32.791408425, 96.390, 1483.0, 38.5097
32.817668991, 96.390, 1337.0, 36.5650
32.843929556, 96.390, 1380.0, 37.1484
32.870190121, 96.390, 1547.0, 39.3319
32.896450687, 96.390, 1447.0, 38.0395
32.922711252, 96.390, 1479.0, 38.4578
32.948971817, 96.390, 1576.0, 39.6989
32.975232383, 96.390, 1598.0, 39.9750
33.001492948, 96.390, 1566.0, 39.5727
33.027753513, 96.390, 1584.0, 39.7995
33.054014079, 96.390, 1595.0, 39.9375
33.080274644, 96.390, 1643.0, 40.5339
33.106535209, 96.390, 1685.0, 41.0488
33.132795775, 96.390, 1658.0, 40.7185
33.159056340, 96.390, 1657.0, 40.7063
33.185316906, 96.390, 1704.0, 41.2795
33.211577471, 96.390, 1618.0, 40.2244
33.237838036, 96.390, 1626.0, 40.3237
33.264098602, 96.390, 1645.0, 40.5586
33.290359167, 96.390, 1614.0, 40.1746
33.316619732, 96.390, 1524.0, 39.0384
33.342880298, 96.390, 1586.0, 39.8246
33.369140863, 96.390, 1612.0, 40.1497
33.395401428, 96.390, 1643.0, 40.5339
33.421661994, 96.390, 1690.0, 41.1096
33.447922559, 96.390, 1662.0, 40.7676
33.474183124, 96.390, 1533.0, 39.1535
33.500443690, 96.390, 1570.0, 39.6232
33.526704255, 96.390, 1606.0, 40.0749
33.552964820, 96.390, 1557.0, 39.4588
33.579225386, 96.390, 1585.0, 39.8121
33.605485951, 96.390, 1586.0, 39.8246
33.631746517, 96.390, 1610.0, 40.1248
33.658007082, 96.390, 1631.0, 40.3856
33.684267647, 96.390, 1601.0, 40.0125
33.710528213, 96.390, 1583.0, 39.7869
33.736788778, 96.390, 1599.0, 39.9875
33.763049343, 96.390, 1639.0, 40.4846
33.789309909, 96.390, 1589.0, 39.8623
33.815570474, 96.390, 1621.0, 40.2616
33.841831039, 96.390, 1748.0, 41.8091
33.868091605, 96.390, 1760.0, 41.9524
33.894352170, 96.390, 1992.0, 44.6318
33.920612735, 96.390, 2225.0, 47.1699
33.946873301, 96.390, 2407.0, 49.0612
33.973133866, 96.390, 2319.0, 48.1560
33.999394432, 96.390, 2330.0, 48.2701
34.025654997, 96.390, 2194.0, 46.8402
34.051915562, 96.390, 2280.0, 47.7493
34.078176128, 96.390, 2141.0, 46.2709
34.104436693, 96.390, 2240.0, 47.3286
34.130697258, 96.390, 2362.0, 48.6004
34.156957824, 96.390, 2475.0, 49.7494
34.183218389, 96.390, 2685.0, 51.8170
34.209478954, 96.390, 2717.0, 52.1249
34.235739520, 96.390, 2676.0, 51.7301
34.262000085, 96.390, 2539.0, 50.3885
34.288260650, 96.390, 2357.0, 48.5489
34.314521216, 96.390, 2338.0, 48.3529
34.340781781, 96.390, 2260.0, 47.5395
34.367042346, 96.390, 2283.0, 47.7807
34.393302912, 96.390, 2303.0, 47.9896
34.419563477, 96.390, 2536.0, 50.3587
34.445824043, 96.390, 2643.0, 51.4101
34.472084608, 96.390, 2726.0, 52.2111
34.498345173, 96.390, 3018.0, 54.9363
34.524605739, 96.390, 3061.0, 55.3263
34.550866304, 96.390, 3029.0, 55.0364
34.577126869, 96.390, 3240.0, 56.9210
34.603387435, 96.390, 3183.0, 56.4181
34.629648000, 96.390, 3085.0, 55.5428
34.655908565, 96.390, 2692.0, 51.8845
34.682169131, 96.390, 2656.0, 51.5364
34.708429696, 96.390, 2543.0, 50.4282
34.734690261, 96.390, 2515.0, 50.1498
34.760950827, 96.390, 2454.0, 49.5379
34.787211392, 96.390, 2419.0, 49.1833
34.813471958, 96.390, 2389.0, 48.8774
34.839732523, 96.390, 2473.0, 49.7293
34.865993088, 96.390, 2461.0, 49.6085
34.892253654, 96.390, 2569.0, 50.6853
34.918514219, 96.390, 2734.0, 52.2877
34.944774784, 96.390, 2641.0, 51.3907
34.971035350, 96.390, 2627.0, 51.2543
34.997295915, 96.390, 2573.0, 50.7247
35.023556480, 96.390, 2515.0, 50.1498
35.049817046, 96.390, 2295.0, 47.9062
35.076077611, 96.390, 2242.0, 47.3498
35.102338176, 96.390, 2049.0, 45.2659
35.128598742, 96.390, 2124.0, 46.0869
35.154859307, 96.390, 2127.0, 46.1194
35.181119872, 96.390, 2151.0, 46.3789
35.207380438, 96.390, 2140.0, 46.2601
35.233641003, 96.390, 2048.0, 45.2548
35.259901569, 96.390, 2050.0, 45.2769
35.286162134, 96.390, 1916.0, 43.7721
35.312422699, 96.390, 1861.0, 43.1393
35.338683265, 96.390, 1867.0, 43.2088
35.364943830, 96.390, 1737.0, 41.6773
35.391204395, 96.390, 1763.0, 41.9881
35.417464961, 96.390, 1671.0, 40.8779
35.443725526, 96.390, 1708.0, 41.3280
35.469986091, 96.390, 1634.0, 40.4228
35.496246657, 96.390, 1697.0, 41.1947
35.522507222, 96.390, 1599.0, 39.9875
35.548767787, 96.390, 1586.0, 39.8246
35.575028353, 96.390, 1614.0, 40.1746
35.601288918, 96.390, 1640.0, 40.4969
35.627549484, 96.390, 1679.0, 40.9756
35.653810049, 96.390, 1659.0, 40.7308
35.680070614, 96.390, 1720.0, 41.4729
35.706331180, 96.390, 1809.0, 42.5323
35.732591745, 96.390, 1800.0, 42.4264
35.758852310, 96.390, 1708.0, 41.3280
35.785112876, 96.390, 1788.0, 42.2847
35.811373441, 96.390, 1681.0, 41.0000
35.837634006, 96.390, 1782.0, 42.2137
35.863894572, 96.390, 1900.0, 43.5890
35.890155137, 96.390, 1887.0, 43.4396
35.916415702, 96.390, 2106.0, 45.8912
35.942676268, 96.390, 2186.0, 46.7547
35.968936833, 96.390, 2006.0, 44.7884
35.995197398, 96.390, 2072.0, 45.5192
36.021457964, 96.390, 1983.0, 44.5309
36.047718529, 96.390, 1967.0, 44.3509
36.073979095, 96.390, 2064.0, 45.4313
36.100239660, 96.390, 1966.0, 44.3396
36.126500225, 96.390, 2089.0, 45.7056
36.152760791, 96.390, 2224.0, 47.1593
36.179021356, 96.390, 2392.0, 48.9081
36.205281921, 96.390, 2426.0, 49.2544
36.231542487, 96.390, 2242.0, 47.3498
36.257803052, 96.390, 2087.0, 45.6837
36.284063617, 96.390, 2001.0, 44.7325
36.310324183, 96.390, 1828.0, 42.7551
36.336584748, 96.390, 1638.0, 40.4722
36.362845313, 96.390, 1574.0, 39.6737
36.389105879, 96.390, 1494.0, 38.6523
36.415366444, 96.390, 1462.0, 38.2361
36.441627010, 96.390, 1464.0, 38.2623
36.467887575, 96.390, 1434.0, 37.8682
36.494148140, 96.390, 1443.0, 37.9868
36.520408706, 96.390, 1464.0, 38.2623
36.546669271, 96.390, 1515.0, 38.9230
36.572929836, 96.390, 1416.0, 37.6298
36.599190402, 96.390, 1387.0, 37.2424
36.625450967, 96.390, 1410.0, 37.5500
36.651711532, 96.390, 1334.0, 36.5240
36.677972098, 96.390, 1317.0, 36.2905
36.704232663, 96.390, 1275.0, 35.7071
36.730493228, 96.390, 1272.0, 35.6651
36.756753794, 96.390, 1249.0, 35.3412
36.783014359, 96.390, 1219.0, 34.9142
36.809274924, 96.390, 1209.0, 34.7707
36.835535490, 96.390, 1191.0, 34.5109
36.861796055, 96.390, 1217.0, 34.8855
36.888056621, 96.390, 1136.0, 33.7046
36.914317186, 96.390, 1226.0, 35.0143
36.940577751, 96.390, 1173.0, 34.2491
36.966838317, 96.390, 1203.0, 34.6843
36.993098882, 96.390, 1194.0, 34.5543
37.019359447, 96.390, 1170.0, 34.2053
37.045620013, 96.390, 1234.0, 35.1283
37.071880578, 96.390, 1260.0, 35.4965
37.098141143, 96.390, 1247.0, 35.3129
37.124401709, 96.390, 1274.0, 35.6931
37.150662274, 96.390, 1338.0, 36.5787
37.176922839, 96.390, 1313.0, 36.2353
37.203183405, 96.390, 1380.0, 37.1484
37.229443970, 96.390, 1437.0, 37.9078
37.255704535, 96.390, 1386.0, 37.2290
37.281965101, 96.390, 1406.0, 37.4967
37.308225666, 96.390, 1394.0, 37.3363
37.334486232, 96.390, 1324.0, 36.3868
37.360746797, 96.390, 1471.0, 38.3536
37.387007362, 96.390, 1395.0, 37.3497
37.413267928, 96.390, 1432.0, 37.8418
37.439528493, 96.390, 1532.0, 39.1408
37.465789058, 96.390, 1547.0, 39.3319
37.492049624, 96.390, 1567.0, 39.5854
37.518310189, 96.390, 1659.0, 40.7308
37.544570754, 96.390, 1682.0, 41.0122
37.570831320, 96.390, 1720.0, 41.4729
37.597091885, 96.390, 1629.0, 40.3609
37.623352450, 96.390, 1519.0, 38.9744
37.649613016, 96.390, 1681.0, 41.0000
37.675873581, 96.390, 1589.0, 39.8623
37.702134147, 96.390, 1683.0, 41.0244
37.728394712, 96.390, 1739.0, 41.7013
37.754655277, 96.390, 1813.0, 42.5793
37.780915843, 96.390, 1807.0, 42.5088
37.807176408, 96.390, 1743.0, 41.7493
37.833436973, 96.390, 1848.0, 42.9884
37.859697539, 96.390, 1782.0, 42.2137
37.885958104, 96.390, 1762.0, 41.9762
37.912218669, 96.390, 1727.0, 41.5572
37.938479235, 96.390, 1755.0, 41.8927
37.964739800, 96.390, 1686.0, 41.0609
37.991000365, 96.390, 1783.0, 42.2256
38.017260931, 96.390, 1724.0, 41.5211
38.043521496, 96.390, 1668.0, 40.8412
38.069782061, 96.390, 1670.0, 40.8656
38.096042627, 96.390, 1740.0, 41.7133
38.122303192, 96.390, 1617.0, 40.2119
38.148563758, 96.390, 1625.0, 40.3113
38.174824323, 96.390, 1710.0, 41.3521
38.201084888, 96.390, 1643.0, 40.5339
38.227345454, 96.390, 1571.0, 39.6358
38.253606019, 96.390, 1535.0, 39.1791
38.279866584, 96.390, 1497.0, 38.6911
38.306127150, 96.390, 1435.0, 37.8814
38.332387715, 96.390, 1406.0, 37.4967
38.358648280, 96.390, 1367.0, 36.9730
38.384908846, 96.390, 1393.0, 37.3229
38.411169411, 96.390, 1286.0, 35.8608
38.437429976, 96.390, 1376.0, 37.0945
38.463690542, 96.390, 1336.0, 36.5513
38.489951107, 96.390, 1394.0, 37.3363
38.516211673, 96.390, 1463.0, 38.2492
38.542472238, 96.390, 1367.0, 36.9730
38.568732803, 96.390, 1399.0, 37.4032
38.594993369, 96.390, 1393.0, 37.3229
38.621253934, 96.390, 1386.0, 37.2290
38.647514499, 96.390, 1410.0, 37.5500
38.673775065, 96.390, 1396.0, 37.3631
38.700035630, 96.390, 1490.0, 38.6005
38.726296195, 96.390, 1530.0, 39.1152
38.752556761, 96.390, 1562.0, 39.5221
38.778817326, 96.390, 1534.0, 39.1663
38.805077891, 96.390, 1446.0, 38.0263
38.831338457, 96.390, 1556.0, 39.4462
38.857599022, 96.390, 1463.0, 38.2492
38.883859587, 96.390, 1463.0, 38.2492
38.910120153, 96.390, 1382.0, 37.1753
38.936380718, 96.390, 1337.0, 36.5650
38.962641284, 96.390, 1324.0, 36.3868
38.988901849, 96.390, 1335.0, 36.5377
39.015162414, 96.390, 1404.0, 37.4700
39.041422980, 96.390, 1295.0, 35.9861
39.067683545, 96.390, 1339.0, 36.5923
39.093944110, 96.390, 1276.0, 35.7211
39.120204676, 96.390, 1339.0, 36.5923
39.146465241, 96.390, 1380.0, 37.1484
39.172725806, 96.390, 1423.0, 37.7227
39.198986372, 96.390, 1431.0, 37.8286
39.225246937, 96.390, 1480.0, 38.4708
39.251507502, 96.390, 1432.0, 37.8418
39.277768068, 96.390, 1473.0, 38.3797
39.304028633, 96.390, 1421.0, 37.6962
39.330289199, 96.390, 1550.0, 39.3700
39.356549764, 96.390, 1589.0, 39.8623
39.382810329, 96.390, 1634.0, 40.4228
39.409070895, 96.390, 1687.0, 41.0731
39.435331460, 96.390, 1721.0, 41.4849
39.461592025, 96.390, 1680.0, 40.9878
39.487852591, 96.390, 1606.0, 40.0749
39.514113156, 96.390, 1553.0, 39.4081
39.540373721, 96.390, 1555.0, 39.4335
39.566634287, 96.390, 1462.0, 38.2361
39.592894852, 96.390, 1533.0, 39.1535
39.619155417, 96.390, 1417.0, 37.6431
39.645415983, 96.390, 1369.0, 37.0000
39.671676548, 96.390, 1362.0, 36.9053
39.697937113, 96.390, 1375.0, 37.0810
39.724197679, 96.390, 1381.0, 37.1618
39.750458244, 96.390, 1459.0, 38.1969
39.776718810, 96.390, 1437.0, 37.9078
39.802979375, 96.390, 1450.0, 38.0789
39.829239940, 96.390, 1480.0, 38.4708
39.855500506, 96.390, 1459.0, 38.1969
39.881761071, 96.390, 1467.0, 38.3014
39.908021636, 96.390, 1491.0, 38.6135
39.934282202, 96.390, 1471.0, 38.3536
39.960542767, 96.390, 1478.0, 38.4448
39.986803332, 96.390, 1574.0, 39.6737
40.013063898, 96.390, 1528.0, 39.0896
40.039324463, 96.390, 1497.0, 38.6911
40.065585028, 96.390, 1607.0, 40.0874
40.091845594, 96.390, 1526.0, 39.0640
40.118106159, 96.390, 1640.0, 40.4969
40.144366725, 96.390, 1677.0, 40.9512
40.170627290, 96.390, 1718.0, 41.4488
40.196887855, 96.390, 1711.0, 41.3642
40.223148421, 96.390, 1760.0, 41.9524
40.249408986, 96.390, 1737.0, 41.6773
40.275669551, 96.390, 1890.0, 43.4741
40.301930117, 96.390, 1952.0, 44.1814
40.328190682, 96.390, 1992.0, 44.6318
40.354451247, 96.390, 2134.0, 46.1952
40.380711813, 96.390, 2421.0, 49.2037
40.406972378, 96.390, 2519.0, 50.1896
40.433232943, 96.390, 2775.0, 52.6783
40.459493509, 96.390, 2985.0, 54.6352
40.485754074, 96.390, 3210.0, 56.6569
40.512014639, 96.390, 3342.0, 57.8100
40.538275205, 96.390, 3573.0, 59.7746
40.564535770, 96.390, 3672.0, 60.5970
40.590796336, 96.390, 3763.0, 61.3433
40.617056901, 96.390, 3644.0, 60.3656
40.643317466, 96.390, 3375.0, 58.0948
40.669578032, 96.390, 3130.0, 55.9464
40.695838597, 96.390, 3037.0, 55.1090
40.722099162, 96.390, 2591.0, 50.9019
40.748359728, 96.390, 2362.0, 48.6004
40.774620293, 96.390, 2028.0, 45.0333
40.800880858, 96.390, 1883.0, 43.3935
40.827141424, 96.390, 1662.0, 40.7676
40.853401989, 96.390, 1544.0, 39.2938
40.879662554, 96.390, 1452.0, 38.1051
40.905923120, 96.390, 1437.0, 37.9078
40.932183685, 96.390, 1333.0, 36.5103
40.958444251, 96.390, 1346.0, 36.6879
40.984704816, 96.390, 1256.0, 35.4401
41.010965381, 96.390, 1308.0, 36.1663
41.037225947, 96.390, 1265.0, 35.5668
41.063486512, 96.390, 1279.0, 35.7631
41.089747077, 96.390, 1271.0, 35.6511
41.116007643, 96.390, 1185.0, 34.4238
41.142268208, 96.390, 1218.0, 34.8999
41.168528773, 96.390, 1165.0, 34.1321
41.194789339, 96.390, 1136.0, 33.7046
41.221049904, 96.390, 1192.0, 34.5254
41.247310469, 96.390, 1184.0, 34.4093
41.273571035, 96.390, 1335.0, 36.5377
41.299831600, 96.390, 1298.0, 36.0278
41.326092165, 96.390, 1356.0, 36.8239
41.352352731, 96.390, 1481.0, 38.4838
41.378613296, 96.390, 1560.0, 39.4968
41.404873862, 96.390, 1432.0, 37.8418
41.431134427, 96.390, 1397.0, 37.3765
41.457394992, 96.390, 1362.0, 36.9053
41.483655558, 96.390, 1391.0, 37.2961
41.509916123, 96.390, 1321.0, 36.3456
41.536176688, 96.390, 1361.0, 36.8917
41.562437254, 96.390, 1337.0, 36.5650
41.588697819, 96.390, 1251.0, 35.3695
41.614958384, 96.390, 1230.0, 35.0714
41.641218950, 96.390, 1226.0, 35.0143
41.667479515, 96.390, 1189.0, 34.4819
41.693740080, 96.390, 1188.0, 34.4674
41.720000646, 96.390, 1277.0, 35.7351
41.746261211, 96.390, 1289.0, 35.9026
41.772521776, 96.390, 1165.0, 34.1321
41.798782342, 96.390, 1232.0, 35.0999
41.825042907, 96.390, 1196.0, 34.5832
41.851303473, 96.390, 1166.0, 34.1467
41.877564038, 96.390, 1113.0, 33.3617
41.903824603, 96.390, 1189.0, 34.4819
41.930085169, 96.390, 1159.0, 34.0441
41.956345734, 96.390, 1148.0, 33.8821
41.982606299, 96.390, 1127.0, 33.5708
42.008866865, 96.390, 1161.0, 34.0735
42.035127430, 96.390, 1175.0, 34.2783
42.061387995, 96.390, 1324.0, 36.3868
42.087648561, 96.390, 1470.0, 38.3406
42.113909126, 96.390, 1604.0, 40.0500
42.140169691, 96.390, 1679.0, 40.9756
42.166430257, 96.390, 1566.0, 39.5727
42.192690822, 96.390, 1439.0, 37.9342
42.218951388, 96.390, 1586.0, 39.8246
42.245211953, 96.390, 1408.0, 37.5233
42.271472518, 96.390, 1352.0, 36.7696
42.297733084, 96.390, 1240.0, 35.2136
42.323993649, 96.390, 1235.0, 35.1426
42.350254214, 96.390, 1116.0, 33.4066
42.376514780, 96.390, 1096.0, 33.1059
42.402775345, 96.390, 1075.0, 32.7872
42.429035910, 96.390, 1070.0, 32.7109
42.455296476, 96.390, 1048.0, 32.3728
42.481557041, 96.390, 1042.0, 32.2800
42.507817606, 96.390, 1101.0, 33.1813
42.534078172, 96.390, 1092.0, 33.0454
42.560338737, 96.390, 1050.0, 32.4037
42.586599302, 96.390, 1036.0, 32.1870
42.612859868, 96.390, 1009.0, 31.7648
42.639120433, 96.390, 1048.0, 32.3728
42.665380999, 96.390, 1025.0, 32.0156
42.691641564, 96.390, 1106.0, 33.2566
42.717902129, 96.390, 1123.0, 33.5112
42.744162695, 96.390, 1084.0, 32.9242
42.770423260, 96.390, 1120.0, 33.4664
42.796683825, 96.390, 1077.0, 32.8177
42.822944391, 96.390, 1090.0, 33.0151
42.849204956, 96.390, 1049.0, 32.3883
42.875465521, 96.390, 1000.0, 31.6228
42.901726087, 96.390, 1003.0, 31.6702
42.927986652, 96.390, 980.0, 31.3050
42.954247217, 96.390, 981.0, 31.3209
42.980507783, 96.390, 1003.0, 31.6702
43.006768348, 96.390, 968.0, 31.1127
43.033028914, 96.390, 945.0, 30.7409
43.059289479, 96.390, 946.0, 30.7571
43.085550044, 96.390, 987.0, 31.4166
43.111810610, 96.390, 1016.0, 31.8748
43.138071175, 96.390, 986.0, 31.4006
43.164331740, 96.390, 1045.0, 32.3265
43.190592306, 96.390, 971.0, 31.1609
43.216852871, 96.390, 930.0, 30.4959
43.243113436, 96.390, 934.0, 30.5614
43.269374002, 96.390, 973.0, 31.1929
43.295634567, 96.390, 974.0, 31.2090
43.321895132, 96.390, 966.0, 31.0805
43.348155698, 96.390, 906.0, 30.0998
43.374416263, 96.390, 951.0, 30.8383
43.400676828, 96.390, 928.0, 30.4631
43.426937394, 96.390, 952.0, 30.8545
43.453197959, 96.390, 956.0, 30.9192
43.479458525, 96.390, 1068.0, 32.6803
43.505719090, 96.390, 1027.0, 32.0468
43.531979655, 96.390, 1086.0, 32.9545
43.558240221, 96.390, 1030.0, 32.0936
43.584500786, 96.390, 1019.0, 31.9218
43.610761351, 96.390, 1045.0, 32.3265
43.637021917, 96.390, 1048.0, 32.3728
43.663282482, 96.390, 1089.0, 33.0000
43.689543047, 96.390, 1063.0, 32.6037
43.715803613, 96.390, 1200.0, 34.6410
43.742064178, 96.390, 1286.0, 35.8608
43.768324743, 96.390, 1241.0, 35.2278
43.794585309, 96.390, 1234.0, 35.1283
43.820845874, 96.390, 1164.0, 34.1174
43.847106440, 96.390, 1185.0, 34.4238
43.873367005, 96.390, 1146.0, 33.8526
43.899627570, 96.390, 1153.0, 33.9559
43.925888136, 96.390, 1064.0, 32.6190
43.952148701, 96.390, 1036.0, 32.1870
43.978409266, 96.390, 1049.0, 32.3883
44.004669832, 96.390, 1020.0, 31.9374
44.030930397, 96.390, 1017.0, 31.8904
44.057190962, 96.390, 989.0, 31.4484
44.083451528, 96.390, 1051.0, 32.4191
44.109712093, 96.390, 1159.0, 34.0441
44.135972658, 96.390, 1130.0, 33.6155
44.162233224, 96.390, 1154.0, 33.9706
44.188493789, 96.390, 1148.0, 33.8821
44.214754354, 96.390, 1127.0, 33.5708
44.241014920, 96.390, 1174.0, 34.2637
44.267275485, 96.390, 1166.0, 34.1467
44.293536051, 96.390, 1186.0, 34.4384
44.319796616, 96.390, 1222.0, 34.9571
44.346057181, 96.390, 1215.0, 34.8569
44.372317747, 96.390, 1234.0, 35.1283
44.398578312, 96.390, 1229.0, 35.0571
44.424838877, 96.390, 1151.0, 33.9264
44.451099443, 96.390, 1111.0, 33.3317
44.477360008, 96.390, 1057.0, 32.5115
44.503620573, 96.390, 1087.0, 32.9697
44.529881139, 96.390, 1117.0, 33.4215
44.556141704, 96.390, 1024.0, 32.0000
44.582402269, 96.390, 994.0, 31.5278
44.608662835, 96.390, 1058.0, 32.5269
44.634923400, 96.390, 1039.0, 32.2335
44.661183966, 96.390, 1081.0, 32.8786
44.687444531, 96.390, 997.0, 31.5753
44.713705096, 96.390, 1003.0, 31.6702
44.739965662, 96.390, 1080.0, 32.8634
44.766226227, 96.390, 1082.0, 32.8938
44.792486792, 96.390, 1110.0, 33.3167
44.818747358, 96.390, 1096.0, 33.1059
44.845007923, 96.390, 1099.0, 33.1512
44.871268488, 96.390, 1076.0, 32.8024
44.897529054, 96.390, 1071.0, 32.7261
44.923789619, 96.390, 1038.0, 32.2180
44.950050184, 96.390, 1034.0, 32.1559
44.976310750, 96.390, 1000.0, 31.6228
45.002571315, 96.390, 1009.0, 31.7648
45.028831880, 96.390, 1047.0, 32.3574
45.055092446, 96.390, 1130.0, 33.6155
45.081353011, 96.390, 1127.0, 33.5708
45.107613577, 96.390, 1259.0, 35.4824
45.133874142, 96.390, 1217.0, 34.8855
45.160134707, 96.390, 1170.0, 34.2053
45.186395273, 96.390, 1165.0, 34.1321
45.212655838, 96.390, 1202.0, 34.6699
45.238916403, 96.390, 1260.0, 35.4965
45.265176969, 96.390, 1200.0, 34.6410
45.291437534, 96.390, 1158.0, 34.0294
45.317698099, 96.390, 1193.0, 34.5398
45.343958665, 96.390, 1196.0, 34.5832
45.370219230, 96.390, 1269.0, 35.6230
45.396479795, 96.390, 1184.0, 34.4093
45.422740361, 96.390, 1220.0, 34.9285
45.449000926, 96.390, 1271.0, 35.6511
45.475261492, 96.390, 1238.0, 35.1852
45.501522057, 96.390, 1229.0, 35.0571
45.527782622, 96.390, 1195.0, 34.5688
45.554043188, 96.390, 1260.0, 35.4965
45.580303753, 96.390, 1186.0, 34.4384
45.606564318, 96.390, 1227.0, 35.0286
45.632824884, 96.390, 1143.0, 33.8083
45.659085449, 96.390, 1166.0, 34.1467
45.685346014, 96.390, 1164.0, 34.1174
45.711606580, 96.390, 1108.0, 33.2866
45.737867145, 96.390, 1102.0, 33.1964
45.764127710, 96.390, 1137.0, 33.7194
45.790388276, 96.390, 1110.0, 33.3167
45.816648841, 96.390, 1090.0, 33.0151
45.842909406, 96.390, 1167.0, 34.1614
45.869169972, 96.390, 1089.0, 33.0000
45.895430537, 96.390, 1153.0, 33.9559
45.921691103, 96.390, 1158.0, 34.0294
45.947951668, 96.390, 1151.0, 33.9264
45.974212233, 96.390, 1112.0, 33.3467
46.000472799, 96.390, 1114.0, 33.3766
46.026733364, 96.390, 1116.0, 33.4066
46.052993929, 96.390, 1159.0, 34.0441
46.079254495, 96.390, 1168.0, 34.1760
46.105515060, 96.390, 1255.0, 35.4260
46.131775625, 96.390, 1246.0, 35.2987
46.158036191, 96.390, 1246.0, 35.2987
46.184296756, 96.390, 1402.0, 37.4433
46.210557321, 96.390, 1347.0, 36.7015
46.236817887, 96.390, 1373.0, 37.0540
46.263078452, 96.390, 1477.0, 38.4318
46.289339017, 96.390, 1394.0, 37.3363
46.315599583, 96.390, 1309.0, 36.1801
46.341860148, 96.390, 1335.0, 36.5377
46.368120714, 96.390, 1318.0, 36.3043
46.394381279, 96.390, 1256.0, 35.4401
46.420641844, 96.390, 1202.0, 34.6699
46.446902410, 96.390, 1200.0, 34.6410
46.473162975, 96.390, 1074.0, 32.7719
46.499423540, 96.390, 1130.0, 33.6155
46.525684106, 96.390, 1049.0, 32.3883
46.551944671, 96.390, 1058.0, 32.5269
46.578205236, 96.390, 1081.0, 32.8786
46.604465802, 96.390, 1079.0, 32.8481
46.630726367, 96.390, 1117.0, 33.4215
46.656986932, 96.390, 1107.0, 33.2716
46.683247498, 96.390, 1129.0, 33.6006
46.709508063, 96.390, 1139.0, 33.7491
46.735768629, 96.390, 1122.0, 33.4963
46.762029194, 96.390, 1136.0, 33.7046
46.788289759, 96.390, 1080.0, 32.8634
46.814550325, 96.390, 1116.0, 33.4066
46.840810890, 96.390, 1064.0, 32.6190
46.867071455, 96.390, 1074.0, 32.7719
46.893332021, 96.390, 1070.0, 32.7109
46.919592586, 96.390, 1078.0, 32.8329
46.945853151, 96.390, 1098.0, 33.1361
46.972113717, 96.390, 1050.0, 32.4037
46.998374282, 96.390, 1119.0, 33.4515
47.024634847, 96.390, 1069.0, 32.6956
47.050895413, 96.390, 1026.0, 32.0312
47.077155978, 96.390, 1035.0, 32.1714
47.103416543, 96.390, 1102.0, 33.1964
47.129677109, 96.390, 985.0, 31.3847
47.155937674, 96.390, 1112.0, 33.3467
47.182198240, 96.390, 1039.0, 32.2335
47.208458805, 96.390, 1023.0, 31.9844
47.234719370, 96.390, 1057.0, 32.5115
47.260979936, 96.390, 1117.0, 33.4215
47.287240501, 96.390, 1181.0, 34.3657
47.313501066, 96.390, 1204.0, 34.6987
47.339761632, 96.390, 1194.0, 34.5543
47.366022197, 96.390, 1158.0, 34.0294
47.392282762, 96.390, 1131.0, 33.6303
47.418543328, 96.390, 1144.0, 33.8231
47.444803893, 96.390, 1136.0, 33.7046
47.471064458, 96.390, 1193.0, 34.5398
47.497325024, 96.390, 1100.0, 33.1662
47.523585589, 96.390, 1093.0, 33.0606
47.549846155, 96.390, 1060.0, 32.5576
47.576106720, 96.390, 1047.0, 32.3574
47.602367285, 96.390, 1061.0, 32.5730
47.628627851, 96.390, 1103.0, 33.2114
47.654888416, 96.390, 1023.0, 31.9844
47.681148981, 96.390, 1084.0, 32.9242
47.707409547, 96.390, 1106.0, 33.2566
47.733670112, 96.390, 1019.0, 31.9218
47.759930677, 96.390, 1094.0, 33.0757
47.786191243, 96.390, 1151.0, 33.9264
47.812451808, 96.390, 1183.0, 34.3948
47.838712373, 96.390, 1102.0, 33.1964
47.864972939, 96.390, 1062.0, 32.5883
47.891233504, 96.390, 1183.0, 34.3948
47.917494069, 96.390, 1107.0, 33.2716
47.943754635, 96.390, 1059.0, 32.5423
47.970015200, 96.390, 1024.0, 32.0000
47.996275766, 96.390, 1115.0, 33.3916
48.022536331, 96.390, 1039.0, 32.2335
48.048796896, 96.390, 1050.0, 32.4037
48.075057462, 96.390, 1044.0, 32.3110
48.101318027, 96.390, 1131.0, 33.6303
48.127578592, 96.390, 1104.0, 33.2265
48.153839158, 96.390, 1098.0, 33.1361
48.180099723, 96.390, 1040.0, 32.2490
48.206360288, 96.390, 1076.0, 32.8024
48.232620854, 96.390, 1073.0, 32.7567
48.258881419, 96.390, 1123.0, 33.5112
48.285141984, 96.390, 1050.0, 32.4037
48.311402550, 96.390, 1051.0, 32.4191
48.337663115, 96.390, 1041.0, 32.2645
48.363923681, 96.390, 1081.0, 32.8786
48.390184246, 96.390, 1073.0, 32.7567
48.416444811, 96.390, 1219.0, 34.9142
48.442705377, 96.390, 1222.0, 34.9571
48.468965942, 96.390, 1334.0, 36.5240
48.495226507, 96.390, 1309.0, 36.1801
48.521487073, 96.390, 1240.0, 35.2136
48.547747638, 96.390, 1235.0, 35.1426
48.574008203, 96.390, 1195.0, 34.5688
48.600268769, 96.390, 1086.0, 32.9545
48.626529334, 96.390, 1104.0, 33.2265
48.652789899, 96.390, 1012.0, 31.8119
48.679050465, 96.390, 1048.0, 32.3728
48.705311030, 96.390, 880.0, 29.6648
48.731571595, 96.390, 915.0, 30.2490
48.757832161, 96.390, 920.0, 30.3315
48.784092726, 96.390, 937.0, 30.6105
48.810353292, 96.390, 931.0, 30.5123
48.836613857, 96.390, 876.0, 29.5973
48.862874422, 96.390, 938.0, 30.6268
48.889134988, 96.390, 965.0, 31.0644
48.915395553, 96.390, 919.0, 30.3150
48.941656118, 96.390, 927.0, 30.4467
48.967916684, 96.390, 933.0, 30.5450
48.994177249, 96.390, 995.0, 31.5436
49.020437814, 96.390, 959.0, 30.9677
49.046698380, 96.390, 945.0, 30.7409
49.072958945, 96.390, 1016.0, 31.8748
49.099219510, 96.390, 1067.0, 32.6650
49.125480076, 96.390, 1119.0, 33.4515
49.151740641, 96.390, 1120.0, 33.4664
49.178001207, 96.390, 993.0, 31.5119
49.204261772, 96.390, 1023.0, 31.9844
49.230522337, 96.390, 1040.0, 32.2490
49.256782903, 96.390, 997.0, 31.5753
49.283043468, 96.390, 940.0, 30.6594
49.309304033, 96.390, 1014.0, 31.8434
49.335564599, 96.390, 977.0, 31.2570
49.361825164, 96.390, 930.0, 30.4959
49.388085729, 96.390, 882.0, 29.6985
49.414346295, 96.390, 893.0, 29.8831
49.440606860, 96.390, 853.0, 29.2062
49.466867425, 96.390, 940.0, 30.6594
49.493127991, 96.390, 942.0, 30.6920
49.519388556, 96.390, 895.0, 29.9166
49.545649121, 96.390, 901.0, 30.0167
49.571909687, 96.390, 934.0, 30.5614
49.598170252, 96.390, 940.0, 30.6594
49.624430818, 96.390, 978.0, 31.2730
49.650691383, 96.390, 963.0, 31.0322
49.676951948, 96.390, 1005.0, 31.7017
49.703212514, 96.390, 969.0, 31.1288
49.729473079, 96.390, 1005.0, 31.7017
49.755733644, 96.390, 991.0, 31.4802
49.781994210, 96.390, 964.0, 31.0483
49.808254775, 96.390, 910.0, 30.1662
49.834515340, 96.390, 942.0, 30.6920
49.860775906, 96.390, 954.0, 30.8869
49.887036471, 96.390, 887.0, 29.7825
49.913297036, 96.390, 863.0, 29.3769
49.939557602, 96.390, 850.0, 29.1548
49.965818167, 96.390, 852.0, 29.1890
49.992078733, 96.390, 889.0, 29.8161
50.018339298, 96.390, 807.0, 28.4077
50.044599863, 96.390, 814.0, 28.5307
50.070860429, 96.390, 848.0, 29.1204
50.097120994, 96.390, 851.0, 29.1719
50.123381559, 96.390, 821.0, 28.6531
50.149642125, 96.390, 860.0, 29.3258
50.175902690, 96.390, 881.0, 29.6816
50.202163255, 96.390, 936.0, 30.5941
50.228423821, 96.390, 968.0, 31.1127
50.254684386, 96.390, 989.0, 31.4484
50.280944951, 96.390, 950.0, 30.8221
50.307205517, 96.390, 928.0, 30.4631
50.333466082, 96.390, 954.0, 30.8869
50.359726647, 96.390, 981.0, 31.3209
50.385987213, 96.390, 1005.0, 31.7017
50.412247778, 96.390, 1027.0, 32.0468
50.438508344, 96.390, 1033.0, 32.1403
50.464768909, 96.390, 1017.0, 31.8904
50.491029474, 96.390, 1008.0, 31.7490
50.517290040, 96.390, 1026.0, 32.0312
50.543550605, 96.390, 1033.0, 32.1403
50.569811170, 96.390, 932.0, 30.5287
50.596071736, 96.390, 1000.0, 31.6228
50.622332301, 96.390, 971.0, 31.1609
50.648592866, 96.390, 977.0, 31.2570
50.674853432, 96.390, 895.0, 29.9166
50.701113997, 96.390, 895.0, 29.9166
50.727374562, 96.390, 899.0, 29.9833
50.753635128, 96.390, 924.0, 30.3974
50.779895693, 96.390, 902.0, 30.0333
50.806156258, 96.390, 903.0, 30.0500
50.832416824, 96.390, 944.0, 30.7246
50.858677389, 96.390, 922.0, 30.3645
50.884937955, 96.390, 896.0, 29.9333
50.911198520, 96.390, 891.0, 29.8496
50.937459085, 96.390, 885.0, 29.7489
50.963719651, 96.390, 882.0, 29.6985
50.989980216, 96.390, 978.0, 31.2730
51.016240781, 96.390, 917.0, 30.2820
51.042501347, 96.390, 965.0, 31.0644
51.068761912, 96.390, 976.0, 31.2410
51.095022477, 96.390, 973.0, 31.1929
51.121283043, 96.390, 1010.0, 31.7805
51.147543608, 96.390, 933.0, 30.5450
51.173804173, 96.390, 1015.0, 31.8591
51.200064739, 96.390, 1016.0, 31.8748
51.226325304, 96.390, 922.0, 30.3645
51.252585870, 96.390, 954.0, 30.8869
51.278846435, 96.390, 958.0, 30.9516
51.305107000, 96.390, 904.0, 30.0666
51.331367566, 96.390, 877.0, 29.6142
51.357628131, 96.390, 883.0, 29.7153
51.383888696, 96.390, 835.0, 28.8964
51.410149262, 96.390, 809.0, 28.4429
51.436409827, 96.390, 781.0, 27.9464
51.462670392, 96.390, 788.0, 28.0713
51.488930958, 96.390, 793.0, 28.1603
51.515191523, 96.390, 781.0, 27.9464
51.541452088, 96.390, 825.0, 28.7228
51.567712654, 96.390, 790.0, 28.1069
51.593973219, 96.390, 798.0, 28.2489
51.620233784, 96.390, 782.0, 27.9643
51.646494350, 96.390, 785.0, 28.0179
51.672754915, 96.390, 797.0, 28.2312
51.699015481, 96.390, 874.0, 29.5635
51.725276046, 96.390, 796.0, 28.2135
51.751536611, 96.390, 888.0, 29.7993
51.777797177, 96.390, 893.0, 29.8831
51.804057742, 96.390, 902.0, 30.0333
51.830318307, 96.390, 890.0, 29.8329
51.856578873, 96.390, 956.0, 30.9192
51.882839438, 96.390, 914.0, 30.2324
51.909100003, 96.390, 924.0, 30.3974
51.935360569, 96.390, 875.0, 29.5804
51.961621134, 96.390, 889.0, 29.8161
51.987881699, 96.390, 899.0, 29.9833
52.014142265, 96.390, 930.0, 30.4959
52.040402830, 96.390, 965.0, 31.0644
52.066663396, 96.390, 919.0, 30.3150
52.092923961, 96.390, 962.0, 31.0161
52.119184526, 96.390, 866.0, 29.4279
52.145445092, 96.390, 921.0, 30.3480
52.171705657, 96.390, 956.0, 30.9192
52.197966222, 96.390, 975.0, 31.2250
52.224226788, 96.390, 1022.0, 31.9687
52.250487353, 96.390, 961.0, 31.0000
52.276747918, 96.390, 1017.0, 31.8904
52.303008484, 96.390, 995.0, 31.5436
52.329269049, 96.390, 976.0, 31.2410
52.355529614, 96.390, 916.0, 30.2655
52.381790180, 96.390, 968.0, 31.1127
52.408050745, 96.390, 917.0, 30.2820
52.434311310, 96.390, 994.0, 31.5278
52.460571876, 96.390, 890.0, 29.8329
52.486832441, 96.390, 919.0, 30.3150
52.513093007, 96.390, 958.0, 30.9516
52.539353572, 96.390, 1039.0, 32.2335
52.565614137, 96.390, 1058.0, 32.5269
52.591874703, 96.390, 1069.0, 32.6956
52.618135268, 96.390, 1097.0, 33.1210
52.644395833, 96.390, 1099.0, 33.1512
52.670656399, 96.390, 1106.0, 33.2566
52.696916964, 96.390, 1123.0, 33.5112
52.723177529, 96.390, 1114.0, 33.3766
52.749438095, 96.390, 1124.0, 33.5261
52.775698660, 96.390, 1060.0, 32.5576
52.801959225, 96.390, 1144.0, 33.8231
52.828219791, 96.390, 1116.0, 33.4066
52.854480356, 96.390, 1122.0, 33.4963
52.880740922, 96.390, 1153.0, 33.9559
52.907001487, 96.390, 1138.0, 33.7343
52.933262052, 96.390, 1174.0, 34.2637
52.959522618, 96.390, 1234.0, 35.1283
52.985783183, 96.390, 1263.0, 35.5387
53.012043748, 96.390, 1353.0, 36.7831
53.038304314, 96.390, 1450.0, 38.0789
53.064564879, 96.390, 1559.0, 39.4842
53.090825444, 96.390, 1547.0, 39.3319
53.117086010, 96.390, 1648.0, 40.5956
53.143346575, 96.390, 1612.0, 40.1497
53.169607140, 96.390, 1634.0, 40.4228
53.195867706, 96.390, 1670.0, 40.8656
53.222128271, 96.390, 1611.0, 40.1373
53.248388836, 96.390, 1544.0, 39.2938
53.274649402, 96.390, 1461.0, 38.2230
53.300909967, 96.390, 1389.0, 37.2693
53.327170533, 96.390, 1273.0, 35.6791
53.353431098, 96.390, 1306.0, 36.1386
53.379691663, 96.390, 1152.0, 33.9411
53.405952229, 96.390, 1079.0, 32.8481
53.432212794, 96.390, 1137.0, 33.7194
53.458473359, 96.390, 1033.0, 32.1403
53.484733925, 96.390, 1090.0, 33.0151
53.510994490, 96.390, 970.0, 31.1448
53.537255055, 96.390, 883.0, 29.7153
53.563515621, 96.390, 826.0, 28.7402
53.589776186, 96.390, 875.0, 29.5804
53.616036751, 96.390, 855.0, 29.2404
53.642297317, 96.390, 805.0, 28.3725
53.668557882, 96.390, 839.0, 28.9655
53.694818448, 96.390, 825.0, 28.7228
53.721079013, 96.390, 802.0, 28.3196
53.747339578, 96.390, 815.0, 28.5482
53.773600144, 96.390, 845.0, 29.0689
53.799860709, 96.390, 819.0, 28.6182
53.826121274, 96.390, 841.0, 29.0000
53.852381840, 96.390, 919.0, 30.3150
53.878642405, 96.390, 934.0, 30.5614
53.904902970, 96.390, 926.0, 30.4302
53.931163536, 96.390, 917.0, 30.2820
53.957424101, 96.390, 925.0, 30.4138
53.983684666, 96.390, 969.0, 31.1288
54.009945232, 96.390, 950.0, 30.8221
54.036205797, 96.390, 925.0, 30.4138
54.062466362, 96.390, 928.0, 30.4631
54.088726928, 96.390, 863.0, 29.3769
54.114987493, 96.390, 959.0, 30.9677
54.141248059, 96.390, 910.0, 30.1662
54.167508624, 96.390, 936.0, 30.5941
54.193769189, 96.390, 946.0, 30.7571
54.220029755, 96.390, 961.0, 31.0000
54.246290320, 96.390, 976.0, 31.2410
54.272550885, 96.390, 1038.0, 32.2180
54.298811451, 96.390, 1025.0, 32.0156
54.325072016, 96.390, 1015.0, 31.8591
54.351332581, 96.390, 998.0, 31.5911
54.377593147, 96.390, 954.0, 30.8869
54.403853712, 96.390, 922.0, 30.3645
54.430114277, 96.390, 885.0, 29.7489
54.456374843, 96.390, 870.0, 29.4958
54.482635408, 96.390, 844.0, 29.0517
54.508895973, 96.390, 785.0, 28.0179
54.535156539, 96.390, 835.0, 28.8964
54.561417104, 96.390, 746.0, 27.3130
54.587677670, 96.390, 697.0, 26.4008
54.613938235, 96.390, 757.0, 27.5136
54.640198800, 96.390, 701.0, 26.4764
54.666459366, 96.390, 688.0, 26.2298
54.692719931, 96.390, 719.0, 26.8142
54.718980496, 96.390, 648.0, 25.4558
54.745241062, 96.390, 728.0, 26.9815
54.771501627, 96.390, 680.0, 26.0768
54.797762192, 96.390, 707.0, 26.5895
54.824022758, 96.390, 679.0, 26.0576
54.850283323, 96.390, 692.0, 26.3059
54.876543888, 96.390, 720.0, 26.8328
54.902804454, 96.390, 662.0, 25.7294
54.929065019, 96.390, 674.0, 25.9615
54.955325585, 96.390, 639.0, 25.2784
54.981586150, 96.390, 708.0, 26.6083
55.007846715, 96.390, 676.0, 26.0000
55.034107281, 96.390, 692.0, 26.3059
55.060367846, 96.390, 674.0, 25.9615
55.086628411, 96.390, 639.0, 25.2784
55.112888977, 96.390, 662.0, 25.7294
55.139149542, 96.390, 677.0, 26.0192
55.165410107, 96.390, 661.0, 25.7099
55.191670673, 96.390, 705.0, 26.5518
55.217931238, 96.390, 678.0, 26.0384
55.244191803, 96.390, 660.0, 25.6905
55.270452369, 96.390, 698.0, 26.4197
55.296712934, 96.390, 679.0, 26.0576
55.322973499, 96.390, 712.0, 26.6833
55.349234065, 96.390, 673.0, 25.9422
55.375494630, 96.390, 732.0, 27.0555
55.401755196, 96.390, 729.0, 27.0000
55.428015761, 96.390, 753.0, 27.4408
55.454276326, 96.390, 733.0, 27.0740
55.480536892, 96.390, 774.0, 27.8209
55.506797457, 96.390, 695.0, 26.3629
55.533058022, 96.390, 720.0, 26.8328
55.559318588, 96.390, 731.0, 27.0370
55.585579153, 96.390, 758.0, 27.5318
55.611839718, 96.390, 764.0, 27.6405
55.638100284, 96.390, 738.0, 27.1662
55.664360849, 96.390, 729.0, 27.0000
55.690621414, 96.390, 746.0, 27.3130
55.716881980, 96.390, 680.0, 26.0768
55.743142545, 96.390, 741.0, 27.2213
55.769403111, 96.390, 738.0, 27.1662
55.795663676, 96.390, 741.0, 27.2213
55.821924241, 96.390, 719.0, 26.8142
55.848184807, 96.390, 686.0, 26.1916
55.874445372, 96.390, 730.0, 27.0185
55.900705937, 96.390, 743.0, 27.2580
55.926966503, 96.390, 736.0, 27.1293
55.953227068, 96.390, 784.0, 28.0000
55.979487633, 96.390, 769.0, 27.7308
56.005748199, 96.390, 781.0, 27.9464
56.032008764, 96.390, 791.0, 28.1247
56.058269329, 96.390, 785.0, 28.0179
56.084529895, 96.390, 803.0, 28.3373
56.110790460, 96.390, 826.0, 28.7402
56.137051025, 96.390, 814.0, 28.5307
56.163311591, 96.390, 793.0, 28.1603
56.189572156, 96.390, 767.0, 27.6948
56.215832722, 96.390, 694.0, 26.3439
56.242093287, 96.390, 756.0, 27.4955
56.268353852, 96.390, 741.0, 27.2213
56.294614418, 96.390, 734.0, 27.0924
56.320874983, 96.390, 731.0, 27.0370
56.347135548, 96.390, 709.0, 26.6271
56.373396114, 96.390, 724.0, 26.9072
56.399656679, 96.390, 709.0, 26.6271
56.425917244, 96.390, 760.0, 27.5681
56.452177810, 96.390, 828.0, 28.7750
56.478438375, 96.390, 759.0, 27.5500
56.504698940, 96.390, 778.0, 27.8927
56.530959506, 96.390, 721.0, 26.8514
56.557220071, 96.390, 710.0, 26.6458
56.583480637, 96.390, 720.0, 26.8328
56.609741202, 96.390, 710.0, 26.6458
56.636001767, 96.390, 688.0, 26.2298
56.662262333, 96.390, 702.0, 26.4953
56.688522898, 96.390, 692.0, 26.3059
56.714783463, 96.390, 688.0, 26.2298
56.741044029, 96.390, 700.0, 26.4575
56.767304594, 96.390, 656.0, 25.6125
56.793565159, 96.390, 644.0, 25.3772
56.819825725, 96.390, 645.0, 25.3969
56.846086290, 96.390, 587.0, 24.2281
56.872346855, 96.390, 681.0, 26.0960
56.898607421, 96.390, 647.0, 25.4362
56.924867986, 96.390, 617.0, 24.8395
56.951128551, 96.390, 654.0, 25.5734
56.977389117, 96.390, 638.0, 25.2587
57.003649682, 96.390, 650.0, 25.4951
57.029910248, 96.390, 636.0, 25.2190
57.056170813, 96.390, 680.0, 26.0768
57.082431378, 96.390, 682.0, 26.1151
57.108691944, 96.390, 710.0, 26.6458
57.134952509, 96.390, 723.0, 26.8887
57.161213074, 96.390, 802.0, 28.3196
57.187473640, 96.390, 809.0, 28.4429
57.213734205, 96.390, 784.0, 28.0000
57.239994770, 96.390, 821.0, 28.6531
57.266255336, 96.390, 769.0, 27.7308
57.292515901, 96.390, 813.0, 28.5132
57.318776466, 96.390, 777.0, 27.8747
57.345037032, 96.390, 730.0, 27.0185
57.371297597, 96.390, 823.0, 28.6880
57.397558163, 96.390, 778.0, 27.8927
57.423818728, 96.390, 762.0, 27.6043
57.450079293, 96.390, 804.0, 28.3549
57.476339859, 96.390, 738.0, 27.1662
57.502600424, 96.390, 838.0, 28.9482
57.528860989, 96.390, 828.0, 28.7750
57.555121555, 96.390, 867.0, 29.4449
57.581382120, 96.390, 786.0, 28.0357
57.607642685, 96.390, 747.0, 27.3313
57.633903251, 96.390, 780.0, 27.9285
57.660163816, 96.390, 864.0, 29.3939
57.686424381, 96.390, 862.0, 29.3598
57.712684947, 96.390, 801.0, 28.3019
57.738945512, 96.390, 805.0, 28.3725
57.765206077, 96.390, 720.0, 26.8328
57.791466643, 96.390, 784.0, 28.0000
57.817727208, 96.390, 715.0, 26.7395
57.843987774, 96.390, 741.0, 27.2213
57.870248339, 96.390, 722.0, 26.8701
57.896508904, 96.390, 688.0, 26.2298
57.922769470, 96.390, 756.0, 27.4955
57.949030035, 96.390, 672.0, 25.9230
57.975290600, 96.390, 764.0, 27.6405
58.001551166, 96.390, 718.0, 26.7955
58.027811731, 96.390, 748.0, 27.3496
58.054072296, 96.390, 781.0, 27.9464
58.080332862, 96.390, 809.0, 28.4429
58.106593427, 96.390, 715.0, 26.7395
58.132853992, 96.390, 758.0, 27.5318
58.159114558, 96.390, 718.0, 26.7955
58.185375123, 96.390, 706.0, 26.5707
58.211635689, 96.390, 789.0, 28.0891
58.237896254, 96.390, 700.0, 26.4575
58.264156819, 96.390, 704.0, 26.5330
58.290417385, 96.390, 687.0, 26.2107
58.316677950, 96.390, 653.0, 25.5539
58.342938515, 96.390, 630.0, 25.0998
58.369199081, 96.390, 681.0, 26.0960
58.395459646, 96.390, 663.0, 25.7488
58.421720211, 96.390, 706.0, 26.5707
58.447980777, 96.390, 710.0, 26.6458
58.474241342, 96.390, 726.0, 26.9444
58.500501907, 96.390, 717.0, 26.7769
58.526762473, 96.390, 797.0, 28.2312
58.553023038, 96.390, 726.0, 26.9444
58.579283603, 96.390, 766.0, 27.6767
58.605544169, 96.390, 766.0, 27.6767
58.631804734, 96.390, 747.0, 27.3313
58.658065300, 96.390, 755.0, 27.4773
58.684325865, 96.390, 709.0, 26.6271
58.710586430, 96.390, 730.0, 27.0185
58.736846996, 96.390, 760.0, 27.5681
58.763107561, 96.390, 766.0, 27.6767
58.789368126, 96.390, 721.0, 26.8514
58.815628692, 96.390, 711.0, 26.6646
58.841889257, 96.390, 670.0, 25.8844
58.868149822, 96.390, 727.0, 26.9629
58.894410388, 96.390, 726.0, 26.9444
58.920670953, 96.390, 662.0, 25.7294
58.946931518, 96.390, 661.0, 25.7099
58.973192084, 96.390, 698.0, 26.4197
58.999452649, 96.390, 695.0, 26.3629
59.025713214, 96.390, 763.0, 27.6225
59.051973780, 96.390, 714.0, 26.7208
59.078234345, 96.390, 708.0, 26.6083
59.104494911, 96.390, 776.0, 27.8568
59.130755476, 96.390, 759.0, 27.5500
59.157016041, 96.390, 736.0, 27.1293
59.183276607, 96.390, 772.0, 27.7849
59.209537172, 96.390, 781.0, 27.9464
59.235797737, 96.390, 800.0, 28.2843
59.262058303, 96.390, 756.0, 27.4955
59.288318868, 96.390, 717.0, 26.7769
59.314579433, 96.390, 756.0, 27.4955
59.340839999, 96.390, 819.0, 28.6182
59.367100564, 96.390, 722.0, 26.8701
59.393361129, 96.390, 746.0, 27.3130
59.419621695, 96.390, 823.0, 28.6880
59.445882260, 96.390, 776.0, 27.8568
59.472142826, 96.390, 760.0, 27.5681
59.498403391, 96.390, 719.0, 26.8142
59.524663956, 96.390, 764.0, 27.6405
59.550924522, 96.390, 707.0, 26.5895
59.577185087, 96.390, 693.0, 26.3249
59.603445652, 96.390, 709.0, 26.6271
59.629706218, 96.390, 690.0, 26.2679
59.655966783, 96.390, 664.0, 25.7682
59.682227348, 96.390, 707.0, 26.5895
59.708487914, 96.390, 639.0, 25.2784
59.734748479, 96.390, 692.0, 26.3059
59.761009044, 96.390, 688.0, 26.2298
59.787269610, 96.390, 688.0, 26.2298
59.813530175, 96.390, 707.0, 26.5895
59.839790740, 96.390, 698.0, 26.4197
59.866051306, 96.390, 650.0, 25.4951
59.892311871, 96.390, 626.0, 25.0200
59.918572437, 96.390, 718.0, 26.7955
59.944833002, 96.390, 691.0, 26.2869
59.971093567, 96.390, 718.0, 26.7955
59.997354133, 96.390, 667.0, 25.8263
60.023614698, 96.390, 709.0, 26.6271
60.049875263, 96.390, 679.0, 26.0576
60.076135829, 96.390, 741.0, 27.2213
60.102396394, 96.390, 754.0, 27.4591
60.128656959, 96.390, 724.0, 26.9072
60.154917525, 96.390, 734.0, 27.0924
60.181178090, 96.390, 738.0, 27.1662
60.207438655, 96.390, 699.0, 26.4386
60.233699221, 96.390, 735.0, 27.1109
60.259959786, 96.390, 738.0, 27.1662
60.286220352, 96.390, 735.0, 27.1109
60.312480917, 96.390, 739.0, 27.1846
60.338741482, 96.390, 692.0, 26.3059
60.365002048, 96.390, 749.0, 27.3679
60.391262613, 96.390, 800.0, 28.2843
60.417523178, 96.390, 764.0, 27.6405
60.443783744, 96.390, 861.0, 29.3428
60.470044309, 96.390, 862.0, 29.3598
60.496304874, 96.390, 850.0, 29.1548
60.522565440, 96.390, 883.0, 29.7153
60.548826005, 96.390, 924.0, 30.3974
60.575086570, 96.390, 890.0, 29.8329
60.601347136, 96.390, 964.0, 31.0483
60.627607701, 96.390, 974.0, 31.2090
60.653868266, 96.390, 1003.0, 31.6702
60.680128832, 96.390, 1123.0, 33.5112
60.706389397, 96.390, 1103.0, 33.2114
60.732649963, 96.390, 1084.0, 32.9242
60.758910528, 96.390, 1166.0, 34.1467
60.785171093, 96.390, 1185.0, 34.4238
60.811431659, 96.390, 1136.0, 33.7046
60.837692224, 96.390, 1164.0, 34.1174
60.863952789, 96.390, 1151.0, 33.9264
60.890213355, 96.390, 1218.0, 34.8999
60.916473920, 96.390, 1175.0, 34.2783
60.942734485, 96.390, 1176.0, 34.2929
60.968995051, 96.390, 1168.0, 34.1760
60.995255616, 96.390, 1130.0, 33.6155
61.021516181, 96.390, 1099.0, 33.1512
61.047776747, 96.390, 1132.0, 33.6452
61.074037312, 96.390, 1114.0, 33.3766
61.100297878, 96.390, 1081.0, 32.8786
61.126558443, 96.390, 1116.0, 33.4066
61.152819008, 96.390, 1091.0, 33.0303
61.179079574, 96.390, 1055.0, 32.4808
61.205340139, 96.390, 1096.0, 33.1059
61.231600704, 96.390, 974.0, 31.2090
61.257861270, 96.390, 968.0, 31.1127
61.284121835, 96.390, 971.0, 31.1609
61.310382400, 96.390, 929.0, 30.4795
61.336642966, 96.390, 881.0, 29.6816
61.362903531, 96.390, 883.0, 29.7153
61.389164096, 96.390, 952.0, 30.8545
61.415424662, 96.390, 805.0, 28.3725
61.441685227, 96.390, 960.0, 30.9839
61.467945792, 96.390, 873.0, 29.5466
61.494206358, 96.390, 937.0, 30.6105
61.520466923, 96.390, 962.0, 31.0161
61.546727489, 96.390, 970.0, 31.1448
61.572988054, 96.390, 931.0, 30.5123
61.599248619, 96.390, 846.0, 29.0861
61.625509185, 96.390, 908.0, 30.1330
61.651769750, 96.390, 876.0, 29.5973
61.678030315, 96.390, 895.0, 29.9166
61.704290881, 96.390, 845.0, 29.0689
61.730551446, 96.390, 879.0, 29.6479
61.756812011, 96.390, 832.0, 28.8444
61.783072577, 96.390, 877.0, 29.6142
61.809333142, 96.390, 921.0, 30.3480
61.835593707, 96.390, 914.0, 30.2324
61.861854273, 96.390, 849.0, 29.1376
61.888114838, 96.390, 902.0, 30.0333
61.914375404, 96.390, 942.0, 30.6920
61.940635969, 96.390, 855.0, 29.2404
61.966896534, 96.390, 909.0, 30.1496
61.993157100, 96.390, 951.0, 30.8383
62.019417665, 96.390, 958.0, 30.9516
62.045678230, 96.390, 981.0, 31.3209
62.071938796, 96.390, 943.0, 30.7083
62.098199361, 96.390, 945.0, 30.7409
62.124459926, 96.390, 1005.0, 31.7017
62.150720492, 96.390, 951.0, 30.8383
62.176981057, 96.390, 938.0, 30.6268
62.203241622, 96.390, 1069.0, 32.6956
62.229502188, 96.390, 997.0, 31.5753
62.255762753, 96.390, 971.0, 31.1609
62.282023318, 96.390, 999.0, 31.6070
62.308283884, 96.390, 992.0, 31.4960
62.334544449, 96.390, 952.0, 30.8545
62.360805015, 96.390, 925.0, 30.4138
62.387065580, 96.390, 901.0, 30.0167
62.413326145, 96.390, 873.0, 29.5466
62.439586711, 96.390, 865.0, 29.4109
62.465847276, 96.390, 819.0, 28.6182
62.492107841, 96.390, 878.0, 29.6311
62.518368407, 96.390, 844.0, 29.0517
62.544628972, 96.390, 849.0, 29.1376
62.570889537, 96.390, 797.0, 28.2312
62.597150103, 96.390, 780.0, 27.9285
62.623410668, 96.390, 783.0, 27.9821
62.649671233, 96.390, 837.0, 28.9310
62.675931799, 96.390, 821.0, 28.6531
62.702192364, 96.390, 816.0, 28.5657
62.728452930, 96.390, 818.0, 28.6007
62.754713495, 96.390, 775.0, 27.8388
62.780974060, 96.390, 776.0, 27.8568
62.807234626, 96.390, 751.0, 27.4044
62.833495191, 96.390, 790.0, 28.1069
62.859755756, 96.390, 731.0, 27.0370
62.886016322, 96.390, 717.0, 26.7769
62.912276887, 96.390, 658.0, 25.6515
62.938537452, 96.390, 696.0, 26.3818
62.964798018, 96.390, 665.0, 25.7876
62.991058583, 96.390, 615.0, 24.7992
63.017319148, 96.390, 590.0, 24.2899
63.043579714, 96.390, 591.0, 24.3105
63.069840279, 96.390, 602.0, 24.5357
63.096100844, 96.390, 585.0, 24.1868
63.122361410, 96.390, 609.0, 24.6779
63.148621975, 96.390, 596.0, 24.4131
63.174882541, 96.390, 561.0, 23.6854
63.201143106, 96.390, 586.0, 24.2074
63.227403671, 96.390, 595.0, 24.3926
63.253664237, 96.390, 617.0, 24.8395
63.279924802, 96.390, 588.0, 24.2487
63.306185367, 96.390, 606.0, 24.6171
63.332445933, 96.390, 635.0, 25.1992
63.358706498, 96.390, 601.0, 24.5153
63.384967063, 96.390, 622.0, 24.9399
63.411227629, 96.390, 632.0, 25.1396
63.437488194, 96.390, 644.0, 25.3772
63.463748759, 96.390, 629.0, 25.0799
63.490009325, 96.390, 609.0, 24.6779
63.516269890, 96.390, 647.0, 25.4362
63.542530455, 96.390, 657.0, 25.6320
63.568791021, 96.390, 671.0, 25.9037
63.595051586, 96.390, 669.0, 25.8650
63.621312152, 96.390, 720.0, 26.8328
63.647572717, 96.390, 729.0, 27.0000
63.673833282, 96.390, 796.0, 28.2135
63.700093848, 96.390, 876.0, 29.5973
63.726354413, 96.390, 860.0, 29.3258
63.752614978, 96.390, 912.0, 30.1993
63.778875544, 96.390, 1004.0, 31.6860
63.805136109, 96.390, 916.0, 30.2655
63.831396674, 96.390, 906.0, 30.0998
63.857657240, 96.390, 888.0, 29.7993
63.883917805, 96.390, 882.0, 29.6985
63.910178370, 96.390, 888.0, 29.7993
63.936438936, 96.390, 877.0, 29.6142
63.962699501, 96.390, 794.0, 28.1780
63.988960067, 96.390, 804.0, 28.3549
64.015220632, 96.390, 747.0, 27.3313
64.041481197, 96.390, 735.0, 27.1109
64.067741763, 96.390, 711.0, 26.6646
64.094002328, 96.390, 727.0, 26.9629
64.120262893, 96.390, 706.0, 26.5707
64.146523459, 96.390, 770.0, 27.7489
64.172784024, 96.390, 773.0, 27.8029
64.199044589, 96.390, 761.0, 27.5862
64.225305155, 96.390, 770.0, 27.7489
64.251565720, 96.390, 765.0, 27.6586
64.277826285, 96.390, 788.0, 28.0713
64.304086851, 96.390, 731.0, 27.0370
64.330347416, 96.390, 757.0, 27.5136
64.356607981, 96.390, 768.0, 27.7128
64.382868547, 96.390, 755.0, 27.4773
64.409129112, 96.390, 721.0, 26.8514
64.435389678, 96.390, 693.0, 26.3249
64.461650243, 96.390, 698.0, 26.4197
64.487910808, 96.390, 697.0, 26.4008
64.514171374, 96.390, 691.0, 26.2869
64.540431939, 96.390, 625.0, 25.0000
64.566692504, 96.390, 619.0, 24.8797
64.592953070, 96.390, 659.0, 25.6710
64.619213635, 96.390, 609.0, 24.6779
64.645474200, 96.390, 593.0, 24.3516
64.671734766, 96.390, 647.0, 25.4362
64.697995331, 96.390, 630.0, 25.0998
64.724255896, 96.390, 579.0, 24.0624
64.750516462, 96.390, 559.0, 23.6432
64.776777027, 96.390, 547.0, 23.3880
64.803037593, 96.390, 572.0, 23.9165
64.829298158, 96.390, 544.0, 23.3238
64.855558723, 96.390, 588.0, 24.2487
64.881819289, 96.390, 570.0, 23.8747
64.908079854, 96.390, 550.0, 23.4521
64.934340419, 96.390, 541.0, 23.2594
64.960600985, 96.390, 585.0, 24.1868
64.986861550, 96.390, 586.0, 24.2074
