[Measurement conditions]
Sample identification,Centroid08Dec21_Act12Feb23_B1_0714M_NaOH_LS0173_Num150
Comment - 1,"Configuration=Stage for Flat Samples/Holders, Owner=nmw10, Creation date=9/21/2022 10:06:30 AM"
Comment - 2,"Goniometer=Theta/Theta; Minimum step size 2Theta:0.0001; Minimum step size Omega:0.0001"
Comment - 3,"Sample stage=Stage for flat samples/holders"
Comment - 4,"Diffractometer system=EMPYREAN"
Comment - 5,"Measurement program=X:\XRD\Cement\Zerobackground scan.xrdmp, Created identifier={98A3B11C-88F9-4AA6-982C-73314A311EF5}, Created by=Titus Reed, Id=tmr79, Creation date=10/26/2021 3:01:47 PM"
Anode material,Cu
K-Alpha1 wavelength,1.5405980
K-Alpha2 wavelength,1.5444260
Ratio K-Alpha2/K-Alpha1,0.500
Divergence slit,Fixed,0.25
Monochromator used,NO
Generator voltage, 45
Tube current, 40
File date and time,15/Mar/2023 18:04
Unit cell,
h k l, 0 0 0
Scan axis,Gonio
Scan range,4.994599997,64.999991833
Scan step size,0.0262606
No. of points, 2285
Scan type,CONTINUOUS
Time per step,96.390
[Scan points]
Angle, TimePerStep, Intensity, ESD
5.007730280, 96.390, 4020.0, 63.4035
5.033990845, 96.390, 4203.0, 64.8305
5.060251411, 96.390, 3985.0, 63.1269
5.086511976, 96.390, 4125.0, 64.2262
5.112772541, 96.390, 4144.0, 64.3739
5.139033107, 96.390, 4045.0, 63.6003
5.165293672, 96.390, 4106.0, 64.0781
5.191554237, 96.390, 4048.0, 63.6239
5.217814803, 96.390, 4026.0, 63.4508
5.244075368, 96.390, 4174.0, 64.6065
5.270335934, 96.390, 3946.0, 62.8172
5.296596499, 96.390, 4021.0, 63.4114
5.322857064, 96.390, 4064.0, 63.7495
5.349117630, 96.390, 4061.0, 63.7260
5.375378195, 96.390, 3979.0, 63.0793
5.401638760, 96.390, 3855.0, 62.0886
5.427899326, 96.390, 3875.0, 62.2495
5.454159891, 96.390, 3814.0, 61.7576
5.480420456, 96.390, 3819.0, 61.7981
5.506681022, 96.390, 3711.0, 60.9180
5.532941587, 96.390, 3800.0, 61.6441
5.559202152, 96.390, 3929.0, 62.6817
5.585462718, 96.390, 3645.0, 60.3738
5.611723283, 96.390, 3723.0, 61.0164
5.637983849, 96.390, 3701.0, 60.8358
5.664244414, 96.390, 3770.0, 61.4003
5.690504979, 96.390, 3775.0, 61.4410
5.716765545, 96.390, 3661.0, 60.5062
5.743026110, 96.390, 3693.0, 60.7701
5.769286675, 96.390, 3590.0, 59.9166
5.795547241, 96.390, 3679.0, 60.6548
5.821807806, 96.390, 3668.0, 60.5640
5.848068371, 96.390, 3705.0, 60.8687
5.874328937, 96.390, 3680.0, 60.6630
5.900589502, 96.390, 3511.0, 59.2537
5.926850067, 96.390, 3706.0, 60.8769
5.953110633, 96.390, 3715.0, 60.9508
5.979371198, 96.390, 3675.0, 60.6218
6.005631763, 96.390, 3585.0, 59.8749
6.031892329, 96.390, 3594.0, 59.9500
6.058152894, 96.390, 3626.0, 60.2163
6.084413460, 96.390, 3734.0, 61.1065
6.110674025, 96.390, 3672.0, 60.5970
6.136934590, 96.390, 3715.0, 60.9508
6.163195156, 96.390, 3517.0, 59.3043
6.189455721, 96.390, 3485.0, 59.0339
6.215716286, 96.390, 3589.0, 59.9083
6.241976852, 96.390, 3680.0, 60.6630
6.268237417, 96.390, 3551.0, 59.5903
6.294497982, 96.390, 3608.0, 60.0666
6.320758548, 96.390, 3580.0, 59.8331
6.347019113, 96.390, 3583.0, 59.8582
6.373279678, 96.390, 3668.0, 60.5640
6.399540244, 96.390, 3603.0, 60.0250
6.425800809, 96.390, 3503.0, 59.1861
6.452061375, 96.390, 3456.0, 58.7878
6.478321940, 96.390, 3580.0, 59.8331
6.504582505, 96.390, 3555.0, 59.6238
6.530843071, 96.390, 3469.0, 58.8982
6.557103636, 96.390, 3547.0, 59.5567
6.583364201, 96.390, 3527.0, 59.3886
6.609624767, 96.390, 3760.0, 61.3188
6.635885332, 96.390, 3633.0, 60.2744
6.662145897, 96.390, 3533.0, 59.4390
6.688406463, 96.390, 3676.0, 60.6300
6.714667028, 96.390, 3594.0, 59.9500
6.740927593, 96.390, 3600.0, 60.0000
6.767188159, 96.390, 3457.0, 58.7963
6.793448724, 96.390, 3485.0, 59.0339
6.819709289, 96.390, 3438.0, 58.6345
6.845969855, 96.390, 3578.0, 59.8164
6.872230420, 96.390, 3642.0, 60.3490
6.898490986, 96.390, 3490.0, 59.0762
6.924751551, 96.390, 3537.0, 59.4727
6.951012116, 96.390, 3464.0, 58.8558
6.977272682, 96.390, 3586.0, 59.8832
7.003533247, 96.390, 3589.0, 59.9083
7.029793812, 96.390, 3501.0, 59.1692
7.056054378, 96.390, 3490.0, 59.0762
7.082314943, 96.390, 3578.0, 59.8164
7.108575508, 96.390, 3474.0, 58.9406
7.134836074, 96.390, 3521.0, 59.3380
7.161096639, 96.390, 3653.0, 60.4401
7.187357204, 96.390, 3434.0, 58.6003
7.213617770, 96.390, 3513.0, 59.2706
7.239878335, 96.390, 3601.0, 60.0083
7.266138900, 96.390, 3544.0, 59.5315
7.292399466, 96.390, 3530.0, 59.4138
7.318660031, 96.390, 3518.0, 59.3127
7.344920597, 96.390, 3517.0, 59.3043
7.371181162, 96.390, 3536.0, 59.4643
7.397441727, 96.390, 3556.0, 59.6322
7.423702293, 96.390, 3424.0, 58.5150
7.449962858, 96.390, 3537.0, 59.4727
7.476223423, 96.390, 3574.0, 59.7829
7.502483989, 96.390, 3542.0, 59.5147
7.528744554, 96.390, 3624.0, 60.1997
7.555005119, 96.390, 3485.0, 59.0339
7.581265685, 96.390, 3615.0, 60.1249
7.607526250, 96.390, 3606.0, 60.0500
7.633786815, 96.390, 3521.0, 59.3380
7.660047381, 96.390, 3542.0, 59.5147
7.686307946, 96.390, 3528.0, 59.3970
7.712568512, 96.390, 3621.0, 60.1747
7.738829077, 96.390, 3543.0, 59.5231
7.765089642, 96.390, 3543.0, 59.5231
7.791350208, 96.390, 3573.0, 59.7746
7.817610773, 96.390, 3406.0, 58.3609
7.843871338, 96.390, 3523.0, 59.3549
7.870131904, 96.390, 3490.0, 59.0762
7.896392469, 96.390, 3456.0, 58.7878
7.922653034, 96.390, 3559.0, 59.6574
7.948913600, 96.390, 3704.0, 60.8605
7.975174165, 96.390, 3629.0, 60.2412
8.001434730, 96.390, 3576.0, 59.7997
8.027695296, 96.390, 3542.0, 59.5147
8.053955861, 96.390, 3647.0, 60.3904
8.080216426, 96.390, 3553.0, 59.6070
8.106476992, 96.390, 3692.0, 60.7618
8.132737557, 96.390, 3607.0, 60.0583
8.158998123, 96.390, 3570.0, 59.7495
8.185258688, 96.390, 3490.0, 59.0762
8.211519253, 96.390, 3650.0, 60.4152
8.237779819, 96.390, 3512.0, 59.2621
8.264040384, 96.390, 3498.0, 59.1439
8.290300949, 96.390, 3517.0, 59.3043
8.316561515, 96.390, 3554.0, 59.6154
8.342822080, 96.390, 3527.0, 59.3886
8.369082645, 96.390, 3468.0, 58.8897
8.395343211, 96.390, 3558.0, 59.6490
8.421603776, 96.390, 3577.0, 59.8080
8.447864341, 96.390, 3551.0, 59.5903
8.474124907, 96.390, 3559.0, 59.6574
8.500385472, 96.390, 3517.0, 59.3043
8.526646038, 96.390, 3574.0, 59.7829
8.552906603, 96.390, 3468.0, 58.8897
8.579167168, 96.390, 3499.0, 59.1523
8.605427734, 96.390, 3585.0, 59.8749
8.631688299, 96.390, 3643.0, 60.3573
8.657948864, 96.390, 3678.0, 60.6465
8.684209430, 96.390, 3767.0, 61.3759
8.710469995, 96.390, 3628.0, 60.2329
8.736730560, 96.390, 3632.0, 60.2661
8.762991126, 96.390, 3453.0, 58.7622
8.789251691, 96.390, 3637.0, 60.3075
8.815512256, 96.390, 3480.0, 58.9915
8.841772822, 96.390, 3441.0, 58.6600
8.868033387, 96.390, 3503.0, 59.1861
8.894293952, 96.390, 3492.0, 59.0931
8.920554518, 96.390, 3587.0, 59.8916
8.946815083, 96.390, 3485.0, 59.0339
8.973075649, 96.390, 3541.0, 59.5063
8.999336214, 96.390, 3601.0, 60.0083
9.025596779, 96.390, 3479.0, 58.9830
9.051857345, 96.390, 3500.0, 59.1608
9.078117910, 96.390, 3525.0, 59.3717
9.104378475, 96.390, 3558.0, 59.6490
9.130639041, 96.390, 3523.0, 59.3549
9.156899606, 96.390, 3503.0, 59.1861
9.183160171, 96.390, 3552.0, 59.5987
9.209420737, 96.390, 3497.0, 59.1354
9.235681302, 96.390, 3451.0, 58.7452
9.261941867, 96.390, 3531.0, 59.4222
9.288202433, 96.390, 3493.0, 59.1016
9.314462998, 96.390, 3500.0, 59.1608
9.340723564, 96.390, 3447.0, 58.7112
9.366984129, 96.390, 3514.0, 59.2790
9.393244694, 96.390, 3343.0, 57.8187
9.419505260, 96.390, 3448.0, 58.7197
9.445765825, 96.390, 3558.0, 59.6490
9.472026390, 96.390, 3442.0, 58.6686
9.498286956, 96.390, 3429.0, 58.5577
9.524547521, 96.390, 3389.0, 58.2151
9.550808086, 96.390, 3415.0, 58.4380
9.577068652, 96.390, 3532.0, 59.4306
9.603329217, 96.390, 3492.0, 59.0931
9.629589782, 96.390, 3460.0, 58.8218
9.655850348, 96.390, 3364.0, 58.0000
9.682110913, 96.390, 3523.0, 59.3549
9.708371478, 96.390, 3474.0, 58.9406
9.734632044, 96.390, 3414.0, 58.4294
9.760892609, 96.390, 3468.0, 58.8897
9.787153175, 96.390, 3472.0, 58.9237
9.813413740, 96.390, 3539.0, 59.4895
9.839674305, 96.390, 3497.0, 59.1354
9.865934871, 96.390, 3482.0, 59.0085
9.892195436, 96.390, 3581.0, 59.8415
9.918456001, 96.390, 3503.0, 59.1861
9.944716567, 96.390, 3423.0, 58.5064
9.970977132, 96.390, 3456.0, 58.7878
9.997237697, 96.390, 3483.0, 59.0169
10.023498263, 96.390, 3466.0, 58.8727
10.049758828, 96.390, 3590.0, 59.9166
10.076019393, 96.390, 3411.0, 58.4038
10.102279959, 96.390, 3590.0, 59.9166
10.128540524, 96.390, 3507.0, 59.2199
10.154801090, 96.390, 3495.0, 59.1185
10.181061655, 96.390, 3555.0, 59.6238
10.207322220, 96.390, 3317.0, 57.5934
10.233582786, 96.390, 3509.0, 59.2368
10.259843351, 96.390, 3379.0, 58.1292
10.286103916, 96.390, 3423.0, 58.5064
10.312364482, 96.390, 3518.0, 59.3127
10.338625047, 96.390, 4055.0, 63.6789
10.364885612, 96.390, 4091.0, 63.9609
10.391146178, 96.390, 3888.0, 62.3538
10.417406743, 96.390, 4255.0, 65.2304
10.443667308, 96.390, 4471.0, 66.8655
10.469927874, 96.390, 3778.0, 61.4654
10.496188439, 96.390, 3427.0, 58.5406
10.522449004, 96.390, 3511.0, 59.2537
10.548709570, 96.390, 3383.0, 58.1636
10.574970135, 96.390, 3279.0, 57.2626
10.601230701, 96.390, 3333.0, 57.7321
10.627491266, 96.390, 3389.0, 58.2151
10.653751831, 96.390, 3391.0, 58.2323
10.680012397, 96.390, 3374.0, 58.0861
10.706272962, 96.390, 3250.0, 57.0088
10.732533527, 96.390, 3340.0, 57.7927
10.758794093, 96.390, 3351.0, 57.8878
10.785054658, 96.390, 3342.0, 57.8100
10.811315223, 96.390, 3346.0, 57.8446
10.837575789, 96.390, 3333.0, 57.7321
10.863836354, 96.390, 3346.0, 57.8446
10.890096919, 96.390, 3312.0, 57.5500
10.916357485, 96.390, 3336.0, 57.7581
10.942618050, 96.390, 3569.0, 59.7411
10.968878616, 96.390, 3734.0, 61.1065
10.995139181, 96.390, 4129.0, 64.2573
11.021399746, 96.390, 3840.0, 61.9677
11.047660312, 96.390, 3557.0, 59.6406
11.073920877, 96.390, 3257.0, 57.0701
11.100181442, 96.390, 3300.0, 57.4456
11.126442008, 96.390, 3249.0, 57.0000
11.152702573, 96.390, 3188.0, 56.4624
11.178963138, 96.390, 3209.0, 56.6480
11.205223704, 96.390, 3186.0, 56.4447
11.231484269, 96.390, 3252.0, 57.0263
11.257744834, 96.390, 3146.0, 56.0892
11.284005400, 96.390, 3148.0, 56.1070
11.310265965, 96.390, 3170.0, 56.3028
11.336526530, 96.390, 3153.0, 56.1516
11.362787096, 96.390, 3229.0, 56.8243
11.389047661, 96.390, 3226.0, 56.7979
11.415308227, 96.390, 3158.0, 56.1961
11.441568792, 96.390, 3181.0, 56.4004
11.467829357, 96.390, 3169.0, 56.2939
11.494089923, 96.390, 3108.0, 55.7494
11.520350488, 96.390, 3091.0, 55.5968
11.546611053, 96.390, 3068.0, 55.3895
11.572871619, 96.390, 3006.0, 54.8270
11.599132184, 96.390, 3138.0, 56.0179
11.625392749, 96.390, 3056.0, 55.2811
11.651653315, 96.390, 3040.0, 55.1362
11.677913880, 96.390, 3074.0, 55.4437
11.704174445, 96.390, 3085.0, 55.5428
11.730435011, 96.390, 3149.0, 56.1160
11.756695576, 96.390, 3152.0, 56.1427
11.782956141, 96.390, 3112.0, 55.7853
11.809216707, 96.390, 3087.0, 55.5608
11.835477272, 96.390, 3178.0, 56.3738
11.861737838, 96.390, 3088.0, 55.5698
11.887998403, 96.390, 3059.0, 55.3082
11.914258968, 96.390, 3016.0, 54.9181
11.940519534, 96.390, 2904.0, 53.8888
11.966780099, 96.390, 3003.0, 54.7996
11.993040664, 96.390, 3028.0, 55.0273
12.019301230, 96.390, 3017.0, 54.9272
12.045561795, 96.390, 3036.0, 55.0999
12.071822360, 96.390, 2996.0, 54.7357
12.098082926, 96.390, 2883.0, 53.6936
12.124343491, 96.390, 2953.0, 54.3415
12.150604056, 96.390, 2884.0, 53.7029
12.176864622, 96.390, 2944.0, 54.2586
12.203125187, 96.390, 2868.0, 53.5537
12.229385753, 96.390, 2899.0, 53.8424
12.255646318, 96.390, 2892.0, 53.7773
12.281906883, 96.390, 2858.0, 53.4603
12.308167449, 96.390, 2885.0, 53.7122
12.334428014, 96.390, 2906.0, 53.9073
12.360688579, 96.390, 2857.0, 53.4509
12.386949145, 96.390, 2876.0, 53.6284
12.413209710, 96.390, 2895.0, 53.8052
12.439470275, 96.390, 2845.0, 53.3385
12.465730841, 96.390, 2843.0, 53.3198
12.491991406, 96.390, 2883.0, 53.6936
12.518251971, 96.390, 2810.0, 53.0094
12.544512537, 96.390, 2920.0, 54.0370
12.570773102, 96.390, 2856.0, 53.4416
12.597033667, 96.390, 2793.0, 52.8488
12.623294233, 96.390, 2815.0, 53.0566
12.649554798, 96.390, 2789.0, 52.8110
12.675815364, 96.390, 2744.0, 52.3832
12.702075929, 96.390, 2797.0, 52.8867
12.728336494, 96.390, 2670.0, 51.6720
12.754597060, 96.390, 2814.0, 53.0471
12.780857625, 96.390, 2795.0, 52.8678
12.807118190, 96.390, 2741.0, 52.3546
12.833378756, 96.390, 2738.0, 52.3259
12.859639321, 96.390, 2716.0, 52.1153
12.885899886, 96.390, 2735.0, 52.2972
12.912160452, 96.390, 2811.0, 53.0189
12.938421017, 96.390, 2747.0, 52.4118
12.964681582, 96.390, 2683.0, 51.7977
12.990942148, 96.390, 2673.0, 51.7011
13.017202713, 96.390, 2671.0, 51.6817
13.043463279, 96.390, 2673.0, 51.7011
13.069723844, 96.390, 2659.0, 51.5655
13.095984409, 96.390, 2642.0, 51.4004
13.122244975, 96.390, 2564.0, 50.6360
13.148505540, 96.390, 2703.0, 51.9904
13.174766105, 96.390, 2627.0, 51.2543
13.201026671, 96.390, 2565.0, 50.6458
13.227287236, 96.390, 2581.0, 50.8035
13.253547801, 96.390, 2543.0, 50.4282
13.279808367, 96.390, 2646.0, 51.4393
13.306068932, 96.390, 2613.0, 51.1175
13.332329497, 96.390, 2676.0, 51.7301
13.358590063, 96.390, 2633.0, 51.3128
13.384850628, 96.390, 2529.0, 50.2892
13.411111193, 96.390, 2579.0, 50.7839
13.437371759, 96.390, 2652.0, 51.4976
13.463632324, 96.390, 2570.0, 50.6952
13.489892890, 96.390, 2659.0, 51.5655
13.516153455, 96.390, 2596.0, 50.9510
13.542414020, 96.390, 2701.0, 51.9711
13.568674586, 96.390, 2684.0, 51.8073
13.594935151, 96.390, 2743.0, 52.3737
13.621195716, 96.390, 2633.0, 51.3128
13.647456282, 96.390, 2657.0, 51.5461
13.673716847, 96.390, 2742.0, 52.3641
13.699977412, 96.390, 2899.0, 53.8424
13.726237978, 96.390, 3076.0, 55.4617
13.752498543, 96.390, 3538.0, 59.4811
13.778759108, 96.390, 4085.0, 63.9140
13.805019674, 96.390, 3756.0, 61.2862
13.831280239, 96.390, 3251.0, 57.0175
13.857540805, 96.390, 2786.0, 52.7826
13.883801370, 96.390, 2497.0, 49.9700
13.910061935, 96.390, 2561.0, 50.6063
13.936322501, 96.390, 2473.0, 49.7293
13.962583066, 96.390, 2543.0, 50.4282
13.988843631, 96.390, 2518.0, 50.1797
14.015104197, 96.390, 2594.0, 50.9313
14.041364762, 96.390, 2587.0, 50.8626
14.067625327, 96.390, 2604.0, 51.0294
14.093885893, 96.390, 2577.0, 50.7642
14.120146458, 96.390, 2711.0, 52.0673
14.146407023, 96.390, 2885.0, 53.7122
14.172667589, 96.390, 3331.0, 57.7148
14.198928154, 96.390, 5462.0, 73.9053
14.225188719, 96.390, 7819.0, 88.4251
14.251449285, 96.390, 8773.0, 93.6643
14.277709850, 96.390, 7548.0, 86.8792
14.303970416, 96.390, 5340.0, 73.0753
14.330230981, 96.390, 3432.0, 58.5833
14.356491546, 96.390, 2626.0, 51.2445
14.382752112, 96.390, 2556.0, 50.5569
14.409012677, 96.390, 2624.0, 51.2250
14.435273242, 96.390, 2571.0, 50.7050
14.461533808, 96.390, 2668.0, 51.6527
14.487794373, 96.390, 2822.0, 53.1225
14.514054938, 96.390, 2852.0, 53.4041
14.540315504, 96.390, 2857.0, 53.4509
14.566576069, 96.390, 2616.0, 51.1468
14.592836634, 96.390, 2491.0, 49.9099
14.619097200, 96.390, 2269.0, 47.6340
14.645357765, 96.390, 2364.0, 48.6210
14.671618331, 96.390, 2352.0, 48.4974
14.697878896, 96.390, 2280.0, 47.7493
14.724139461, 96.390, 2315.0, 48.1144
14.750400027, 96.390, 2355.0, 48.5283
14.776660592, 96.390, 2363.0, 48.6107
14.802921157, 96.390, 2317.0, 48.1352
14.829181723, 96.390, 2390.0, 48.8876
14.855442288, 96.390, 2276.0, 47.7074
14.881702853, 96.390, 2202.0, 46.9255
14.907963419, 96.390, 2420.0, 49.1935
14.934223984, 96.390, 2353.0, 48.5077
14.960484549, 96.390, 2430.0, 49.2950
14.986745115, 96.390, 2336.0, 48.3322
15.013005680, 96.390, 2328.0, 48.2494
15.039266245, 96.390, 2338.0, 48.3529
15.065526811, 96.390, 2374.0, 48.7237
15.091787376, 96.390, 2337.0, 48.3425
15.118047942, 96.390, 2478.0, 49.7795
15.144308507, 96.390, 2486.0, 49.8598
15.170569072, 96.390, 2528.0, 50.2792
15.196829638, 96.390, 2484.0, 49.8397
15.223090203, 96.390, 2554.0, 50.5371
15.249350768, 96.390, 2497.0, 49.9700
15.275611334, 96.390, 2402.0, 49.0102
15.301871899, 96.390, 2339.0, 48.3632
15.328132464, 96.390, 2332.0, 48.2908
15.354393030, 96.390, 2241.0, 47.3392
15.380653595, 96.390, 2252.0, 47.4552
15.406914160, 96.390, 2281.0, 47.7598
15.433174726, 96.390, 2223.0, 47.1487
15.459435291, 96.390, 2274.0, 47.6865
15.485695857, 96.390, 2267.0, 47.6130
15.511956422, 96.390, 2295.0, 47.9062
15.538216987, 96.390, 2224.0, 47.1593
15.564477553, 96.390, 2320.0, 48.1664
15.590738118, 96.390, 2210.0, 47.0106
15.616998683, 96.390, 2300.0, 47.9583
15.643259249, 96.390, 2235.0, 47.2758
15.669519814, 96.390, 2272.0, 47.6655
15.695780379, 96.390, 2263.0, 47.5710
15.722040945, 96.390, 2321.0, 48.1768
15.748301510, 96.390, 2234.0, 47.2652
15.774562075, 96.390, 2308.0, 48.0416
15.800822641, 96.390, 2232.0, 47.2440
15.827083206, 96.390, 2308.0, 48.0416
15.853343771, 96.390, 2269.0, 47.6340
15.879604337, 96.390, 2238.0, 47.3075
15.905864902, 96.390, 2246.0, 47.3920
15.932125468, 96.390, 2320.0, 48.1664
15.958386033, 96.390, 2255.0, 47.4868
15.984646598, 96.390, 2221.0, 47.1275
16.010907164, 96.390, 2172.0, 46.6047
16.037167729, 96.390, 2320.0, 48.1664
16.063428294, 96.390, 2165.0, 46.5296
16.089688860, 96.390, 2170.0, 46.5833
16.115949425, 96.390, 2198.0, 46.8828
16.142209990, 96.390, 2205.0, 46.9574
16.168470556, 96.390, 2230.0, 47.2229
16.194731121, 96.390, 2356.0, 48.5386
16.220991686, 96.390, 2397.0, 48.9592
16.247252252, 96.390, 2359.0, 48.5695
16.273512817, 96.390, 2443.0, 49.4267
16.299773382, 96.390, 2535.0, 50.3488
16.326033948, 96.390, 2444.0, 49.4368
16.352294513, 96.390, 2391.0, 48.8979
16.378555079, 96.390, 2352.0, 48.4974
16.404815644, 96.390, 2195.0, 46.8508
16.431076209, 96.390, 2157.0, 46.4435
16.457336775, 96.390, 2197.0, 46.8722
16.483597340, 96.390, 2265.0, 47.5920
16.509857905, 96.390, 2113.0, 45.9674
16.536118471, 96.390, 2182.0, 46.7119
16.562379036, 96.390, 2182.0, 46.7119
16.588639601, 96.390, 2105.0, 45.8803
16.614900167, 96.390, 2163.0, 46.5081
16.641160732, 96.390, 2178.0, 46.6690
16.667421297, 96.390, 2177.0, 46.6583
16.693681863, 96.390, 2147.0, 46.3357
16.719942428, 96.390, 2225.0, 47.1699
16.746202994, 96.390, 2171.0, 46.5940
16.772463559, 96.390, 2143.0, 46.2925
16.798724124, 96.390, 2191.0, 46.8081
16.824984690, 96.390, 2197.0, 46.8722
16.851245255, 96.390, 2351.0, 48.4871
16.877505820, 96.390, 2450.0, 49.4975
16.903766386, 96.390, 2487.0, 49.8698
16.930026951, 96.390, 2550.0, 50.4975
16.956287516, 96.390, 2351.0, 48.4871
16.982548082, 96.390, 2279.0, 47.7389
17.008808647, 96.390, 2222.0, 47.1381
17.035069212, 96.390, 2136.0, 46.2169
17.061329778, 96.390, 2032.0, 45.0777
17.087590343, 96.390, 2191.0, 46.8081
17.113850908, 96.390, 2201.0, 46.9148
17.140111474, 96.390, 2159.0, 46.4650
17.166372039, 96.390, 2195.0, 46.8508
17.192632605, 96.390, 2169.0, 46.5725
17.218893170, 96.390, 2296.0, 47.9166
17.245153735, 96.390, 2148.0, 46.3465
17.271414301, 96.390, 2202.0, 46.9255
17.297674866, 96.390, 2193.0, 46.8295
17.323935431, 96.390, 2339.0, 48.3632
17.350195997, 96.390, 2460.0, 49.5984
17.376456562, 96.390, 2465.0, 49.6488
17.402717127, 96.390, 2444.0, 49.4368
17.428977693, 96.390, 2284.0, 47.7912
17.455238258, 96.390, 2219.0, 47.1063
17.481498823, 96.390, 2179.0, 46.6798
17.507759389, 96.390, 2104.0, 45.8694
17.534019954, 96.390, 2098.0, 45.8039
17.560280520, 96.390, 2240.0, 47.3286
17.586541085, 96.390, 2127.0, 46.1194
17.612801650, 96.390, 2189.0, 46.7868
17.639062216, 96.390, 2128.0, 46.1303
17.665322781, 96.390, 2184.0, 46.7333
17.691583346, 96.390, 2216.0, 47.0744
17.717843912, 96.390, 2195.0, 46.8508
17.744104477, 96.390, 2209.0, 47.0000
17.770365042, 96.390, 2123.0, 46.0760
17.796625608, 96.390, 2157.0, 46.4435
17.822886173, 96.390, 2184.0, 46.7333
17.849146738, 96.390, 2124.0, 46.0869
17.875407304, 96.390, 2115.0, 45.9891
17.901667869, 96.390, 2298.0, 47.9375
17.927928434, 96.390, 2191.0, 46.8081
17.954189000, 96.390, 2189.0, 46.7868
17.980449565, 96.390, 2128.0, 46.1303
18.006710131, 96.390, 2208.0, 46.9894
18.032970696, 96.390, 2223.0, 47.1487
18.059231261, 96.390, 2269.0, 47.6340
18.085491827, 96.390, 2422.0, 49.2138
18.111752392, 96.390, 2361.0, 48.5901
18.138012957, 96.390, 2344.0, 48.4149
18.164273523, 96.390, 2319.0, 48.1560
18.190534088, 96.390, 2599.0, 50.9804
18.216794653, 96.390, 2648.0, 51.4587
18.243055219, 96.390, 2764.0, 52.5738
18.269315784, 96.390, 2834.0, 53.2353
18.295576349, 96.390, 2952.0, 54.3323
18.321836915, 96.390, 2767.0, 52.6023
18.348097480, 96.390, 2752.0, 52.4595
18.374358046, 96.390, 2615.0, 51.1371
18.400618611, 96.390, 2937.0, 54.1941
18.426879176, 96.390, 3159.0, 56.2050
18.453139742, 96.390, 2960.0, 54.4059
18.479400307, 96.390, 2650.0, 51.4782
18.505660872, 96.390, 2331.0, 48.2804
18.531921438, 96.390, 2223.0, 47.1487
18.558182003, 96.390, 2213.0, 47.0425
18.584442568, 96.390, 2126.0, 46.1086
18.610703134, 96.390, 2179.0, 46.6798
18.636963699, 96.390, 2314.0, 48.1041
18.663224264, 96.390, 2200.0, 46.9042
18.689484830, 96.390, 2245.0, 47.3814
18.715745395, 96.390, 2269.0, 47.6340
18.742005960, 96.390, 2309.0, 48.0521
18.768266526, 96.390, 2312.0, 48.0833
18.794527091, 96.390, 2496.0, 49.9600
18.820787657, 96.390, 2492.0, 49.9199
18.847048222, 96.390, 2559.0, 50.5866
18.873308787, 96.390, 2606.0, 51.0490
18.899569353, 96.390, 2661.0, 51.5849
18.925829918, 96.390, 2842.0, 53.3104
18.952090483, 96.390, 3039.0, 55.1271
18.978351049, 96.390, 2876.0, 53.6284
19.004611614, 96.390, 2671.0, 51.6817
19.030872179, 96.390, 2612.0, 51.1077
19.057132745, 96.390, 2423.0, 49.2240
19.083393310, 96.390, 2393.0, 48.9183
19.109653875, 96.390, 2329.0, 48.2597
19.135914441, 96.390, 2310.0, 48.0625
19.162175006, 96.390, 2307.0, 48.0312
19.188435572, 96.390, 2273.0, 47.6760
19.214696137, 96.390, 2236.0, 47.2864
19.240956702, 96.390, 2284.0, 47.7912
19.267217268, 96.390, 2314.0, 48.1041
19.293477833, 96.390, 2376.0, 48.7442
19.319738398, 96.390, 2353.0, 48.5077
19.345998964, 96.390, 2341.0, 48.3839
19.372259529, 96.390, 2325.0, 48.2183
19.398520094, 96.390, 2415.0, 49.1426
19.424780660, 96.390, 2683.0, 51.7977
19.451041225, 96.390, 2743.0, 52.3737
19.477301790, 96.390, 2890.0, 53.7587
19.503562356, 96.390, 2676.0, 51.7301
19.529822921, 96.390, 2633.0, 51.3128
19.556083486, 96.390, 2389.0, 48.8774
19.582344052, 96.390, 2405.0, 49.0408
19.608604617, 96.390, 2366.0, 48.6415
19.634865183, 96.390, 2476.0, 49.7594
19.661125748, 96.390, 2528.0, 50.2792
19.687386313, 96.390, 2587.0, 50.8626
19.713646879, 96.390, 2868.0, 53.5537
19.739907444, 96.390, 3269.0, 57.1752
19.766168009, 96.390, 3359.0, 57.9569
19.792428575, 96.390, 3067.0, 55.3805
19.818689140, 96.390, 2754.0, 52.4786
19.844949705, 96.390, 2538.0, 50.3786
19.871210271, 96.390, 2420.0, 49.1935
19.897470836, 96.390, 2329.0, 48.2597
19.923731401, 96.390, 2343.0, 48.4045
19.949991967, 96.390, 2354.0, 48.5180
19.976252532, 96.390, 2310.0, 48.0625
20.002513098, 96.390, 2274.0, 47.6865
20.028773663, 96.390, 2328.0, 48.2494
20.055034228, 96.390, 2387.0, 48.8569
20.081294794, 96.390, 2392.0, 48.9081
20.107555359, 96.390, 2342.0, 48.3942
20.133815924, 96.390, 2424.0, 49.2341
20.160076490, 96.390, 2357.0, 48.5489
20.186337055, 96.390, 2505.0, 50.0500
20.212597620, 96.390, 2397.0, 48.9592
20.238858186, 96.390, 2481.0, 49.8096
20.265118751, 96.390, 2459.0, 49.5883
20.291379316, 96.390, 2552.0, 50.5173
20.317639882, 96.390, 2783.0, 52.7541
20.343900447, 96.390, 2862.0, 53.4977
20.370161012, 96.390, 3231.0, 56.8419
20.396421578, 96.390, 3584.0, 59.8665
20.422682143, 96.390, 3459.0, 58.8133
20.448942709, 96.390, 3115.0, 55.8122
20.475203274, 96.390, 2925.0, 54.0833
20.501463839, 96.390, 2794.0, 52.8583
20.527724405, 96.390, 2863.0, 53.5070
20.553984970, 96.390, 3042.0, 55.1543
20.580245535, 96.390, 3376.0, 58.1034
20.606506101, 96.390, 3359.0, 57.9569
20.632766666, 96.390, 3097.0, 55.6507
20.659027231, 96.390, 2910.0, 53.9444
20.685287797, 96.390, 2790.0, 52.8205
20.711548362, 96.390, 2574.0, 50.7346
20.737808927, 96.390, 2572.0, 50.7149
20.764069493, 96.390, 2634.0, 51.3225
20.790330058, 96.390, 2490.0, 49.8999
20.816590623, 96.390, 2470.0, 49.6991
20.842851189, 96.390, 2585.0, 50.8429
20.869111754, 96.390, 2525.0, 50.2494
20.895372320, 96.390, 2441.0, 49.4065
20.921632885, 96.390, 2632.0, 51.3030
20.947893450, 96.390, 2697.0, 51.9326
20.974154016, 96.390, 2847.0, 53.3573
21.000414581, 96.390, 2767.0, 52.6023
21.026675146, 96.390, 2608.0, 51.0686
21.052935712, 96.390, 2579.0, 50.7839
21.079196277, 96.390, 2458.0, 49.5782
21.105456842, 96.390, 2416.0, 49.1528
21.131717408, 96.390, 2507.0, 50.0700
21.157977973, 96.390, 2474.0, 49.7393
21.184238538, 96.390, 2499.0, 49.9900
21.210499104, 96.390, 2550.0, 50.4975
21.236759669, 96.390, 2534.0, 50.3389
21.263020235, 96.390, 2508.0, 50.0799
21.289280800, 96.390, 2613.0, 51.1175
21.315541365, 96.390, 2504.0, 50.0400
21.341801931, 96.390, 2480.0, 49.7996
21.368062496, 96.390, 2501.0, 50.0100
21.394323061, 96.390, 2474.0, 49.7393
21.420583627, 96.390, 2397.0, 48.9592
21.446844192, 96.390, 2419.0, 49.1833
21.473104757, 96.390, 2494.0, 49.9400
21.499365323, 96.390, 2410.0, 49.0918
21.525625888, 96.390, 2519.0, 50.1896
21.551886453, 96.390, 2549.0, 50.4876
21.578147019, 96.390, 2627.0, 51.2543
21.604407584, 96.390, 2700.0, 51.9615
21.630668149, 96.390, 2801.0, 52.9245
21.656928715, 96.390, 2849.0, 53.3760
21.683189280, 96.390, 3328.0, 57.6888
21.709449846, 96.390, 3406.0, 58.3609
21.735710411, 96.390, 2947.0, 54.2863
21.761970976, 96.390, 2927.0, 54.1018
21.788231542, 96.390, 2635.0, 51.3323
21.814492107, 96.390, 2462.0, 49.6185
21.840752672, 96.390, 2438.0, 49.3761
21.867013238, 96.390, 2427.0, 49.2646
21.893273803, 96.390, 2386.0, 48.8467
21.919534368, 96.390, 2514.0, 50.1398
21.945794934, 96.390, 2367.0, 48.6518
21.972055499, 96.390, 2461.0, 49.6085
21.998316064, 96.390, 2398.0, 48.9694
22.024576630, 96.390, 2403.0, 49.0204
22.050837195, 96.390, 2453.0, 49.5278
22.077097761, 96.390, 2478.0, 49.7795
22.103358326, 96.390, 2515.0, 50.1498
22.129618891, 96.390, 2511.0, 50.1099
22.155879457, 96.390, 2449.0, 49.4874
22.182140022, 96.390, 2512.0, 50.1199
22.208400587, 96.390, 2451.0, 49.5076
22.234661153, 96.390, 2530.0, 50.2991
22.260921718, 96.390, 2498.0, 49.9800
22.287182283, 96.390, 2504.0, 50.0400
22.313442849, 96.390, 2558.0, 50.5767
22.339703414, 96.390, 2504.0, 50.0400
22.365963979, 96.390, 2520.0, 50.1996
22.392224545, 96.390, 2587.0, 50.8626
22.418485110, 96.390, 2670.0, 51.6720
22.444745675, 96.390, 2502.0, 50.0200
22.471006241, 96.390, 2547.0, 50.4678
22.497266806, 96.390, 2537.0, 50.3686
22.523527372, 96.390, 2599.0, 50.9804
22.549787937, 96.390, 2684.0, 51.8073
22.576048502, 96.390, 2670.0, 51.6720
22.602309068, 96.390, 2655.0, 51.5267
22.628569633, 96.390, 2577.0, 50.7642
22.654830198, 96.390, 2410.0, 49.0918
22.681090764, 96.390, 2603.0, 51.0196
22.707351329, 96.390, 2560.0, 50.5964
22.733611894, 96.390, 2643.0, 51.4101
22.759872460, 96.390, 2712.0, 52.0769
22.786133025, 96.390, 2697.0, 51.9326
22.812393590, 96.390, 2781.0, 52.7352
22.838654156, 96.390, 2902.0, 53.8702
22.864914721, 96.390, 2773.0, 52.6593
22.891175287, 96.390, 2737.0, 52.3163
22.917435852, 96.390, 2621.0, 51.1957
22.943696417, 96.390, 2656.0, 51.5364
22.969956983, 96.390, 2592.0, 50.9117
22.996217548, 96.390, 2626.0, 51.2445
23.022478113, 96.390, 2718.0, 52.1344
23.048738679, 96.390, 2659.0, 51.5655
23.074999244, 96.390, 2759.0, 52.5262
23.101259809, 96.390, 2813.0, 53.0377
23.127520375, 96.390, 2996.0, 54.7357
23.153780940, 96.390, 3112.0, 55.7853
23.180041505, 96.390, 2950.0, 54.3139
23.206302071, 96.390, 2988.0, 54.6626
23.232562636, 96.390, 2841.0, 53.3010
23.258823201, 96.390, 2779.0, 52.7162
23.285083767, 96.390, 2716.0, 52.1153
23.311344332, 96.390, 2667.0, 51.6430
23.337604898, 96.390, 2696.0, 51.9230
23.363865463, 96.390, 2848.0, 53.3667
23.390126028, 96.390, 2844.0, 53.3292
23.416386594, 96.390, 2947.0, 54.2863
23.442647159, 96.390, 3028.0, 55.0273
23.468907724, 96.390, 3638.0, 60.3158
23.495168290, 96.390, 3955.0, 62.8888
23.521428855, 96.390, 4197.0, 64.7843
23.547689420, 96.390, 3557.0, 59.6406
23.573949986, 96.390, 3183.0, 56.4181
23.600210551, 96.390, 2798.0, 52.8961
23.626471116, 96.390, 2613.0, 51.1175
23.652731682, 96.390, 2491.0, 49.9099
23.678992247, 96.390, 2486.0, 49.8598
23.705252813, 96.390, 2396.0, 48.9490
23.731513378, 96.390, 2453.0, 49.5278
23.757773943, 96.390, 2427.0, 49.2646
23.784034509, 96.390, 2485.0, 49.8498
23.810295074, 96.390, 2396.0, 48.9490
23.836555639, 96.390, 2445.0, 49.4469
23.862816205, 96.390, 2417.0, 49.1630
23.889076770, 96.390, 2358.0, 48.5592
23.915337335, 96.390, 2397.0, 48.9592
23.941597901, 96.390, 2476.0, 49.7594
23.967858466, 96.390, 2391.0, 48.8979
23.994119031, 96.390, 2460.0, 49.5984
24.020379597, 96.390, 2329.0, 48.2597
24.046640162, 96.390, 2495.0, 49.9500
24.072900727, 96.390, 2624.0, 51.2250
24.099161293, 96.390, 2635.0, 51.3323
24.125421858, 96.390, 2541.0, 50.4083
24.151682424, 96.390, 2782.0, 52.7447
24.177942989, 96.390, 2885.0, 53.7122
24.204203554, 96.390, 3131.0, 55.9553
24.230464120, 96.390, 3073.0, 55.4346
24.256724685, 96.390, 2877.0, 53.6377
24.282985250, 96.390, 2809.0, 53.0000
24.309245816, 96.390, 2730.0, 52.2494
24.335506381, 96.390, 2543.0, 50.4282
24.361766946, 96.390, 2399.0, 48.9796
24.388027512, 96.390, 2399.0, 48.9796
24.414288077, 96.390, 2347.0, 48.4458
24.440548642, 96.390, 2461.0, 49.6085
24.466809208, 96.390, 2608.0, 51.0686
24.493069773, 96.390, 2713.0, 52.0865
24.519330338, 96.390, 3513.0, 59.2706
24.545590904, 96.390, 3900.0, 62.4500
24.571851469, 96.390, 3337.0, 57.7668
24.598112035, 96.390, 3233.0, 56.8595
24.624372600, 96.390, 2816.0, 53.0660
24.650633165, 96.390, 2187.0, 46.7654
24.676893731, 96.390, 2183.0, 46.7226
24.703154296, 96.390, 2125.0, 46.0977
24.729414861, 96.390, 2246.0, 47.3920
24.755675427, 96.390, 2191.0, 46.8081
24.781935992, 96.390, 2108.0, 45.9130
24.808196557, 96.390, 2183.0, 46.7226
24.834457123, 96.390, 2098.0, 45.8039
24.860717688, 96.390, 2103.0, 45.8585
24.886978253, 96.390, 2154.0, 46.4112
24.913238819, 96.390, 2185.0, 46.7440
24.939499384, 96.390, 2078.0, 45.5851
24.965759950, 96.390, 2119.0, 46.0326
24.992020515, 96.390, 2133.0, 46.1844
25.018281080, 96.390, 2170.0, 46.5833
25.044541646, 96.390, 2095.0, 45.7712
25.070802211, 96.390, 2054.0, 45.3211
25.097062776, 96.390, 2029.0, 45.0444
25.123323342, 96.390, 1988.0, 44.5870
25.149583907, 96.390, 2026.0, 45.0111
25.175844472, 96.390, 2038.0, 45.1442
25.202105038, 96.390, 2049.0, 45.2659
25.228365603, 96.390, 2012.0, 44.8553
25.254626168, 96.390, 1996.0, 44.6766
25.280886734, 96.390, 2069.0, 45.4863
25.307147299, 96.390, 2125.0, 46.0977
25.333407864, 96.390, 2332.0, 48.2908
25.359668430, 96.390, 2345.0, 48.4252
25.385928995, 96.390, 2536.0, 50.3587
25.412189561, 96.390, 2350.0, 48.4768
25.438450126, 96.390, 2267.0, 47.6130
25.464710691, 96.390, 2228.0, 47.2017
25.490971257, 96.390, 2077.0, 45.5741
25.517231822, 96.390, 1968.0, 44.3621
25.543492387, 96.390, 2030.0, 45.0555
25.569752953, 96.390, 1938.0, 44.0227
25.596013518, 96.390, 1938.0, 44.0227
25.622274083, 96.390, 1907.0, 43.6692
25.648534649, 96.390, 1988.0, 44.5870
25.674795214, 96.390, 1956.0, 44.2267
25.701055779, 96.390, 2045.0, 45.2217
25.727316345, 96.390, 1916.0, 43.7721
25.753576910, 96.390, 1995.0, 44.6654
25.779837476, 96.390, 1969.0, 44.3734
25.806098041, 96.390, 2041.0, 45.1774
25.832358606, 96.390, 2363.0, 48.6107
25.858619172, 96.390, 2107.0, 45.9021
25.884879737, 96.390, 2135.0, 46.2061
25.911140302, 96.390, 2172.0, 46.6047
25.937400868, 96.390, 1937.0, 44.0114
25.963661433, 96.390, 1896.0, 43.5431
25.989921998, 96.390, 1938.0, 44.0227
26.016182564, 96.390, 1931.0, 43.9431
26.042443129, 96.390, 1948.0, 44.1362
26.068703694, 96.390, 1844.0, 42.9418
26.094964260, 96.390, 1937.0, 44.0114
26.121224825, 96.390, 1939.0, 44.0341
26.147485390, 96.390, 1893.0, 43.5086
26.173745956, 96.390, 1866.0, 43.1972
26.200006521, 96.390, 1913.0, 43.7379
26.226267087, 96.390, 1897.0, 43.5546
26.252527652, 96.390, 1858.0, 43.1045
26.278788217, 96.390, 1944.0, 44.0908
26.305048783, 96.390, 1936.0, 44.0000
26.331309348, 96.390, 1884.0, 43.4051
26.357569913, 96.390, 1817.0, 42.6263
26.383830479, 96.390, 1774.0, 42.1189
26.410091044, 96.390, 1839.0, 42.8836
26.436351609, 96.390, 1808.0, 42.5206
26.462612175, 96.390, 1753.0, 41.8688
26.488872740, 96.390, 1751.0, 41.8450
26.515133305, 96.390, 1810.0, 42.5441
26.541393871, 96.390, 1893.0, 43.5086
26.567654436, 96.390, 1927.0, 43.8976
26.593915002, 96.390, 1922.0, 43.8406
26.620175567, 96.390, 2202.0, 46.9255
26.646436132, 96.390, 2297.0, 47.9270
26.672696698, 96.390, 2040.0, 45.1664
26.698957263, 96.390, 2165.0, 46.5296
26.725217828, 96.390, 2136.0, 46.2169
26.751478394, 96.390, 2099.0, 45.8148
26.777738959, 96.390, 2126.0, 46.1086
26.803999524, 96.390, 2089.0, 45.7056
26.830260090, 96.390, 2033.0, 45.0888
26.856520655, 96.390, 1985.0, 44.5533
26.882781220, 96.390, 2052.0, 45.2990
26.909041786, 96.390, 2331.0, 48.2804
26.935302351, 96.390, 2638.0, 51.3615
26.961562916, 96.390, 2360.0, 48.5798
26.987823482, 96.390, 2450.0, 49.4975
27.014084047, 96.390, 2387.0, 48.8569
27.040344613, 96.390, 2189.0, 46.7868
27.066605178, 96.390, 2172.0, 46.6047
27.092865743, 96.390, 2149.0, 46.3573
27.119126309, 96.390, 2237.0, 47.2969
27.145386874, 96.390, 2287.0, 47.8226
27.171647439, 96.390, 2429.0, 49.2849
27.197908005, 96.390, 2295.0, 47.9062
27.224168570, 96.390, 2225.0, 47.1699
27.250429135, 96.390, 2157.0, 46.4435
27.276689701, 96.390, 2206.0, 46.9681
27.302950266, 96.390, 2060.0, 45.3872
27.329210831, 96.390, 2085.0, 45.6618
27.355471397, 96.390, 1966.0, 44.3396
27.381731962, 96.390, 1893.0, 43.5086
27.407992528, 96.390, 1978.0, 44.4747
27.434253093, 96.390, 1850.0, 43.0116
27.460513658, 96.390, 1754.0, 41.8808
27.486774224, 96.390, 1823.0, 42.6966
27.513034789, 96.390, 1819.0, 42.6497
27.539295354, 96.390, 1842.0, 42.9185
27.565555920, 96.390, 1807.0, 42.5088
27.591816485, 96.390, 1915.0, 43.7607
27.618077050, 96.390, 2077.0, 45.5741
27.644337616, 96.390, 2089.0, 45.7056
27.670598181, 96.390, 1983.0, 44.5309
27.696858746, 96.390, 2012.0, 44.8553
27.723119312, 96.390, 1895.0, 43.5316
27.749379877, 96.390, 2040.0, 45.1664
27.775640442, 96.390, 1883.0, 43.3935
27.801901008, 96.390, 1863.0, 43.1625
27.828161573, 96.390, 1872.0, 43.2666
27.854422139, 96.390, 1785.0, 42.2493
27.880682704, 96.390, 1784.0, 42.2374
27.906943269, 96.390, 1785.0, 42.2493
27.933203835, 96.390, 1829.0, 42.7668
27.959464400, 96.390, 1706.0, 41.3038
27.985724965, 96.390, 1719.0, 41.4608
28.011985531, 96.390, 1721.0, 41.4849
28.038246096, 96.390, 1734.0, 41.6413
28.064506661, 96.390, 1779.0, 42.1782
28.090767227, 96.390, 1797.0, 42.3910
28.117027792, 96.390, 1899.0, 43.5775
28.143288357, 96.390, 1878.0, 43.3359
28.169548923, 96.390, 1987.0, 44.5758
28.195809488, 96.390, 1928.0, 43.9090
28.222070054, 96.390, 2124.0, 46.0869
28.248330619, 96.390, 2357.0, 48.5489
28.274591184, 96.390, 2072.0, 45.5192
28.300851750, 96.390, 2031.0, 45.0666
28.327112315, 96.390, 2122.0, 46.0652
28.353372880, 96.390, 1858.0, 43.1045
28.379633446, 96.390, 1847.0, 42.9767
28.405894011, 96.390, 1743.0, 41.7493
28.432154576, 96.390, 1755.0, 41.8927
28.458415142, 96.390, 1814.0, 42.5911
28.484675707, 96.390, 2114.0, 45.9783
28.510936272, 96.390, 2079.0, 45.5961
28.537196838, 96.390, 1977.0, 44.4635
28.563457403, 96.390, 2001.0, 44.7325
28.589717968, 96.390, 1905.0, 43.6463
28.615978534, 96.390, 1813.0, 42.5793
28.642239099, 96.390, 1808.0, 42.5206
28.668499665, 96.390, 1754.0, 41.8808
28.694760230, 96.390, 1739.0, 41.7013
28.721020795, 96.390, 1760.0, 41.9524
28.747281361, 96.390, 1803.0, 42.4617
28.773541926, 96.390, 1830.0, 42.7785
28.799802491, 96.390, 1810.0, 42.5441
28.826063057, 96.390, 1762.0, 41.9762
28.852323622, 96.390, 1814.0, 42.5911
28.878584187, 96.390, 1930.0, 43.9318
28.904844753, 96.390, 1966.0, 44.3396
28.931105318, 96.390, 1955.0, 44.2154
28.957365883, 96.390, 1849.0, 43.0000
28.983626449, 96.390, 1882.0, 43.3820
29.009887014, 96.390, 1899.0, 43.5775
29.036147579, 96.390, 1816.0, 42.6146
29.062408145, 96.390, 1853.0, 43.0465
29.088668710, 96.390, 2096.0, 45.7821
29.114929276, 96.390, 1934.0, 43.9773
29.141189841, 96.390, 1931.0, 43.9431
29.167450406, 96.390, 1906.0, 43.6578
29.193710972, 96.390, 1946.0, 44.1135
29.219971537, 96.390, 2089.0, 45.7056
29.246232102, 96.390, 2141.0, 46.2709
29.272492668, 96.390, 2299.0, 47.9479
29.298753233, 96.390, 2245.0, 47.3814
29.325013798, 96.390, 2101.0, 45.8367
29.351274364, 96.390, 2184.0, 46.7333
29.377534929, 96.390, 2115.0, 45.9891
29.403795494, 96.390, 2167.0, 46.5510
29.430056060, 96.390, 2145.0, 46.3141
29.456316625, 96.390, 2087.0, 45.6837
29.482577191, 96.390, 2116.0, 46.0000
29.508837756, 96.390, 2095.0, 45.7712
29.535098321, 96.390, 2053.0, 45.3100
29.561358887, 96.390, 2005.0, 44.7772
29.587619452, 96.390, 2047.0, 45.2438
29.613880017, 96.390, 1922.0, 43.8406
29.640140583, 96.390, 2024.0, 44.9889
29.666401148, 96.390, 1944.0, 44.0908
29.692661713, 96.390, 1972.0, 44.4072
29.718922279, 96.390, 1920.0, 43.8178
29.745182844, 96.390, 1856.0, 43.0813
29.771443409, 96.390, 1728.0, 41.5692
29.797703975, 96.390, 1829.0, 42.7668
29.823964540, 96.390, 1849.0, 43.0000
29.850225105, 96.390, 1813.0, 42.5793
29.876485671, 96.390, 1757.0, 41.9166
29.902746236, 96.390, 1820.0, 42.6615
29.929006802, 96.390, 1765.0, 42.0119
29.955267367, 96.390, 1722.0, 41.4970
29.981527932, 96.390, 1779.0, 42.1782
30.007788498, 96.390, 1773.0, 42.1070
30.034049063, 96.390, 1722.0, 41.4970
30.060309628, 96.390, 1829.0, 42.7668
30.086570194, 96.390, 1751.0, 41.8450
30.112830759, 96.390, 1725.0, 41.5331
30.139091324, 96.390, 1767.0, 42.0357
30.165351890, 96.390, 1727.0, 41.5572
30.191612455, 96.390, 1671.0, 40.8779
30.217873020, 96.390, 1647.0, 40.5832
30.244133586, 96.390, 1680.0, 40.9878
30.270394151, 96.390, 1714.0, 41.4005
30.296654717, 96.390, 1744.0, 41.7612
30.322915282, 96.390, 1783.0, 42.2256
30.349175847, 96.390, 1818.0, 42.6380
30.375436413, 96.390, 1768.0, 42.0476
30.401696978, 96.390, 1852.0, 43.0349
30.427957543, 96.390, 1941.0, 44.0568
30.454218109, 96.390, 2004.0, 44.7661
30.480478674, 96.390, 2143.0, 46.2925
30.506739239, 96.390, 2123.0, 46.0760
30.532999805, 96.390, 2151.0, 46.3789
30.559260370, 96.390, 2191.0, 46.8081
30.585520935, 96.390, 2281.0, 47.7598
30.611781501, 96.390, 2257.0, 47.5079
30.638042066, 96.390, 2888.0, 53.7401
30.664302631, 96.390, 3568.0, 59.7327
30.690563197, 96.390, 4605.0, 67.8602
30.716823762, 96.390, 4104.0, 64.0625
30.743084328, 96.390, 3131.0, 55.9553
30.769344893, 96.390, 3440.0, 58.6515
30.795605458, 96.390, 3064.0, 55.3534
30.821866024, 96.390, 2327.0, 48.2390
30.848126589, 96.390, 2120.0, 46.0435
30.874387154, 96.390, 2019.0, 44.9333
30.900647720, 96.390, 2069.0, 45.4863
30.926908285, 96.390, 1965.0, 44.3283
30.953168850, 96.390, 1902.0, 43.6119
30.979429416, 96.390, 1900.0, 43.5890
31.005689981, 96.390, 1932.0, 43.9545
31.031950546, 96.390, 1879.0, 43.3474
31.058211112, 96.390, 1969.0, 44.3734
31.084471677, 96.390, 1919.0, 43.8064
31.110732243, 96.390, 1861.0, 43.1393
31.136992808, 96.390, 1825.0, 42.7200
31.163253373, 96.390, 1970.0, 44.3847
31.189513939, 96.390, 1963.0, 44.3058
31.215774504, 96.390, 2001.0, 44.7325
31.242035069, 96.390, 2121.0, 46.0543
31.268295635, 96.390, 2158.0, 46.4543
31.294556200, 96.390, 2152.0, 46.3897
31.320816765, 96.390, 2225.0, 47.1699
31.347077331, 96.390, 2289.0, 47.8435
31.373337896, 96.390, 2239.0, 47.3181
31.399598461, 96.390, 2135.0, 46.2061
31.425859027, 96.390, 2171.0, 46.5940
31.452119592, 96.390, 2049.0, 45.2659
31.478380157, 96.390, 2007.0, 44.7996
31.504640723, 96.390, 2053.0, 45.3100
31.530901288, 96.390, 1955.0, 44.2154
31.557161854, 96.390, 2113.0, 45.9674
31.583422419, 96.390, 2464.0, 49.6387
31.609682984, 96.390, 3531.0, 59.4222
31.635943550, 96.390, 3322.0, 57.6368
31.662204115, 96.390, 3385.0, 58.1808
31.688464680, 96.390, 4012.0, 63.3404
31.714725246, 96.390, 6362.0, 79.7621
31.740985811, 96.390, 3738.0, 61.1392
31.767246376, 96.390, 2826.0, 53.1601
31.793506942, 96.390, 3757.0, 61.2944
31.819767507, 96.390, 2912.0, 53.9630
31.846028072, 96.390, 2148.0, 46.3465
31.872288638, 96.390, 2205.0, 46.9574
31.898549203, 96.390, 2438.0, 49.3761
31.924809769, 96.390, 2365.0, 48.6313
31.951070334, 96.390, 2204.0, 46.9468
31.977330899, 96.390, 2244.0, 47.3709
32.003591465, 96.390, 2253.0, 47.4658
32.029852030, 96.390, 2110.0, 45.9347
32.056112595, 96.390, 2000.0, 44.7214
32.082373161, 96.390, 1943.0, 44.0795
32.108633726, 96.390, 1812.0, 42.5676
32.134894291, 96.390, 1881.0, 43.3705
32.161154857, 96.390, 1946.0, 44.1135
32.187415422, 96.390, 1972.0, 44.4072
32.213675987, 96.390, 1990.0, 44.6094
32.239936553, 96.390, 2006.0, 44.7884
32.266197118, 96.390, 2010.0, 44.8330
32.292457683, 96.390, 1880.0, 43.3590
32.318718249, 96.390, 1895.0, 43.5316
32.344978814, 96.390, 1952.0, 44.1814
32.371239380, 96.390, 1886.0, 43.4281
32.397499945, 96.390, 1915.0, 43.7607
32.423760510, 96.390, 1877.0, 43.3244
32.450021076, 96.390, 1762.0, 41.9762
32.476281641, 96.390, 1725.0, 41.5331
32.502542206, 96.390, 1772.0, 42.0951
32.528802772, 96.390, 1765.0, 42.0119
32.555063337, 96.390, 1771.0, 42.0833
32.581323902, 96.390, 1752.0, 41.8569
32.607584468, 96.390, 1870.0, 43.2435
32.633845033, 96.390, 2192.0, 46.8188
32.660105598, 96.390, 2569.0, 50.6853
32.686366164, 96.390, 2370.0, 48.6826
32.712626729, 96.390, 2066.0, 45.4533
32.738887295, 96.390, 2245.0, 47.3814
32.765147860, 96.390, 2121.0, 46.0543
32.791408425, 96.390, 1934.0, 43.9773
32.817668991, 96.390, 1869.0, 43.2319
32.843929556, 96.390, 1927.0, 43.8976
32.870190121, 96.390, 2058.0, 45.3652
32.896450687, 96.390, 2177.0, 46.6583
32.922711252, 96.390, 2225.0, 47.1699
32.948971817, 96.390, 2203.0, 46.9361
32.975232383, 96.390, 2187.0, 46.7654
33.001492948, 96.390, 2302.0, 47.9792
33.027753513, 96.390, 2329.0, 48.2597
33.054014079, 96.390, 2202.0, 46.9255
33.080274644, 96.390, 2149.0, 46.3573
33.106535209, 96.390, 2186.0, 46.7547
33.132795775, 96.390, 2214.0, 47.0532
33.159056340, 96.390, 2070.0, 45.4973
33.185316906, 96.390, 2019.0, 44.9333
33.211577471, 96.390, 2068.0, 45.4753
33.237838036, 96.390, 2063.0, 45.4203
33.264098602, 96.390, 1994.0, 44.6542
33.290359167, 96.390, 1920.0, 43.8178
33.316619732, 96.390, 2117.0, 46.0109
33.342880298, 96.390, 2273.0, 47.6760
33.369140863, 96.390, 2759.0, 52.5262
33.395401428, 96.390, 4200.0, 64.8074
33.421661994, 96.390, 4640.0, 68.1175
33.447922559, 96.390, 7925.0, 89.0225
33.474183124, 96.390, 6279.0, 79.2401
33.500443690, 96.390, 4251.0, 65.1997
33.526704255, 96.390, 4466.0, 66.8281
33.552964820, 96.390, 4422.0, 66.4981
33.579225386, 96.390, 2620.0, 51.1859
33.605485951, 96.390, 2026.0, 45.0111
33.631746517, 96.390, 1937.0, 44.0114
33.658007082, 96.390, 1880.0, 43.3590
33.684267647, 96.390, 1834.0, 42.8252
33.710528213, 96.390, 1902.0, 43.6119
33.736788778, 96.390, 1848.0, 42.9884
33.763049343, 96.390, 1893.0, 43.5086
33.789309909, 96.390, 1957.0, 44.2380
33.815570474, 96.390, 1929.0, 43.9204
33.841831039, 96.390, 2014.0, 44.8776
33.868091605, 96.390, 2203.0, 46.9361
33.894352170, 96.390, 2201.0, 46.9148
33.920612735, 96.390, 2166.0, 46.5403
33.946873301, 96.390, 2133.0, 46.1844
33.973133866, 96.390, 2261.0, 47.5500
33.999394432, 96.390, 2114.0, 45.9783
34.025654997, 96.390, 1995.0, 44.6654
34.051915562, 96.390, 2163.0, 46.5081
34.078176128, 96.390, 2165.0, 46.5296
34.104436693, 96.390, 2033.0, 45.0888
34.130697258, 96.390, 2013.0, 44.8665
34.156957824, 96.390, 2077.0, 45.5741
34.183218389, 96.390, 2172.0, 46.6047
34.209478954, 96.390, 2346.0, 48.4355
34.235739520, 96.390, 2378.0, 48.7647
34.262000085, 96.390, 2396.0, 48.9490
34.288260650, 96.390, 2694.0, 51.9038
34.314521216, 96.390, 2847.0, 53.3573
34.340781781, 96.390, 2524.0, 50.2394
34.367042346, 96.390, 2495.0, 49.9500
34.393302912, 96.390, 2501.0, 50.0100
34.419563477, 96.390, 2527.0, 50.2693
34.445824043, 96.390, 2406.0, 49.0510
34.472084608, 96.390, 2411.0, 49.1019
34.498345173, 96.390, 2378.0, 48.7647
34.524605739, 96.390, 2592.0, 50.9117
34.550866304, 96.390, 2557.0, 50.5668
34.577126869, 96.390, 2670.0, 51.6720
34.603387435, 96.390, 2752.0, 52.4595
34.629648000, 96.390, 2636.0, 51.3420
34.655908565, 96.390, 2737.0, 52.3163
34.682169131, 96.390, 2644.0, 51.4198
34.708429696, 96.390, 2414.0, 49.1325
34.734690261, 96.390, 2644.0, 51.4198
34.760950827, 96.390, 2482.0, 49.8197
34.787211392, 96.390, 2314.0, 48.1041
34.813471958, 96.390, 2412.0, 49.1121
34.839732523, 96.390, 2406.0, 49.0510
34.865993088, 96.390, 2309.0, 48.0521
34.892253654, 96.390, 2341.0, 48.3839
34.918514219, 96.390, 2524.0, 50.2394
34.944774784, 96.390, 2732.0, 52.2685
34.971035350, 96.390, 2750.0, 52.4404
34.997295915, 96.390, 2977.0, 54.5619
35.023556480, 96.390, 2777.0, 52.6972
35.049817046, 96.390, 2688.0, 51.8459
35.076077611, 96.390, 2694.0, 51.9038
35.102338176, 96.390, 2583.0, 50.8232
35.128598742, 96.390, 2544.0, 50.4381
35.154859307, 96.390, 2641.0, 51.3907
35.181119872, 96.390, 2914.0, 53.9815
35.207380438, 96.390, 3001.0, 54.7814
35.233641003, 96.390, 2603.0, 51.0196
35.259901569, 96.390, 2516.0, 50.1597
35.286162134, 96.390, 2582.0, 50.8134
35.312422699, 96.390, 2372.0, 48.7032
35.338683265, 96.390, 2083.0, 45.6399
35.364943830, 96.390, 2084.0, 45.6508
35.391204395, 96.390, 2064.0, 45.4313
35.417464961, 96.390, 2024.0, 44.9889
35.443725526, 96.390, 1973.0, 44.4185
35.469986091, 96.390, 1991.0, 44.6206
35.496246657, 96.390, 2025.0, 45.0000
35.522507222, 96.390, 2038.0, 45.1442
35.548767787, 96.390, 2162.0, 46.4973
35.575028353, 96.390, 2080.0, 45.6070
35.601288918, 96.390, 2004.0, 44.7661
35.627549484, 96.390, 2090.0, 45.7165
35.653810049, 96.390, 2153.0, 46.4004
35.680070614, 96.390, 2041.0, 45.1774
35.706331180, 96.390, 2082.0, 45.6289
35.732591745, 96.390, 2048.0, 45.2548
35.758852310, 96.390, 2082.0, 45.6289
35.785112876, 96.390, 1977.0, 44.4635
35.811373441, 96.390, 1933.0, 43.9659
35.837634006, 96.390, 2130.0, 46.1519
35.863894572, 96.390, 2187.0, 46.7654
35.890155137, 96.390, 2201.0, 46.9148
35.916415702, 96.390, 2353.0, 48.5077
35.942676268, 96.390, 2283.0, 47.7807
35.968936833, 96.390, 2319.0, 48.1560
35.995197398, 96.390, 2205.0, 46.9574
36.021457964, 96.390, 2114.0, 45.9783
36.047718529, 96.390, 2134.0, 46.1952
36.073979095, 96.390, 1944.0, 44.0908
36.100239660, 96.390, 2013.0, 44.8665
36.126500225, 96.390, 2117.0, 46.0109
36.152760791, 96.390, 2035.0, 45.1110
36.179021356, 96.390, 2183.0, 46.7226
36.205281921, 96.390, 2066.0, 45.4533
36.231542487, 96.390, 2080.0, 45.6070
36.257803052, 96.390, 2040.0, 45.1664
36.284063617, 96.390, 1939.0, 44.0341
36.310324183, 96.390, 2018.0, 44.9222
36.336584748, 96.390, 1952.0, 44.1814
36.362845313, 96.390, 1942.0, 44.0681
36.389105879, 96.390, 1981.0, 44.5084
36.415366444, 96.390, 1851.0, 43.0232
36.441627010, 96.390, 1756.0, 41.9047
36.467887575, 96.390, 1846.0, 42.9651
36.494148140, 96.390, 1724.0, 41.5211
36.520408706, 96.390, 1580.0, 39.7492
36.546669271, 96.390, 1630.0, 40.3733
36.572929836, 96.390, 1663.0, 40.7799
36.599190402, 96.390, 1629.0, 40.3609
36.625450967, 96.390, 1744.0, 41.7612
36.651711532, 96.390, 1667.0, 40.8289
36.677972098, 96.390, 1893.0, 43.5086
36.704232663, 96.390, 1702.0, 41.2553
36.730493228, 96.390, 1708.0, 41.3280
36.756753794, 96.390, 1649.0, 40.6079
36.783014359, 96.390, 1636.0, 40.4475
36.809274924, 96.390, 1589.0, 39.8623
36.835535490, 96.390, 1573.0, 39.6611
36.861796055, 96.390, 1663.0, 40.7799
36.888056621, 96.390, 1568.0, 39.5980
36.914317186, 96.390, 1549.0, 39.3573
36.940577751, 96.390, 1509.0, 38.8458
36.966838317, 96.390, 1576.0, 39.6989
36.993098882, 96.390, 1589.0, 39.8623
37.019359447, 96.390, 1541.0, 39.2556
37.045620013, 96.390, 1540.0, 39.2428
37.071880578, 96.390, 1594.0, 39.9249
37.098141143, 96.390, 1600.0, 40.0000
37.124401709, 96.390, 1587.0, 39.8372
37.150662274, 96.390, 1590.0, 39.8748
37.176922839, 96.390, 1647.0, 40.5832
37.203183405, 96.390, 1622.0, 40.2741
37.229443970, 96.390, 1547.0, 39.3319
37.255704535, 96.390, 1489.0, 38.5876
37.281965101, 96.390, 1490.0, 38.6005
37.308225666, 96.390, 1556.0, 39.4462
37.334486232, 96.390, 1561.0, 39.5095
37.360746797, 96.390, 1609.0, 40.1123
37.387007362, 96.390, 1640.0, 40.4969
37.413267928, 96.390, 1655.0, 40.6817
37.439528493, 96.390, 1636.0, 40.4475
37.465789058, 96.390, 1691.0, 41.1218
37.492049624, 96.390, 1620.0, 40.2492
37.518310189, 96.390, 1598.0, 39.9750
37.544570754, 96.390, 1600.0, 40.0000
37.570831320, 96.390, 1655.0, 40.6817
37.597091885, 96.390, 1618.0, 40.2244
37.623352450, 96.390, 1572.0, 39.6485
37.649613016, 96.390, 1594.0, 39.9249
37.675873581, 96.390, 1566.0, 39.5727
37.702134147, 96.390, 1606.0, 40.0749
37.728394712, 96.390, 1693.0, 41.1461
37.754655277, 96.390, 1621.0, 40.2616
37.780915843, 96.390, 1825.0, 42.7200
37.807176408, 96.390, 2263.0, 47.5710
37.833436973, 96.390, 2148.0, 46.3465
37.859697539, 96.390, 1990.0, 44.6094
37.885958104, 96.390, 2086.0, 45.6727
37.912218669, 96.390, 2059.0, 45.3762
37.938479235, 96.390, 1817.0, 42.6263
37.964739800, 96.390, 1754.0, 41.8808
37.991000365, 96.390, 1790.0, 42.3084
38.017260931, 96.390, 1644.0, 40.5463
38.043521496, 96.390, 1549.0, 39.3573
38.069782061, 96.390, 1614.0, 40.1746
38.096042627, 96.390, 1638.0, 40.4722
38.122303192, 96.390, 1850.0, 43.0116
38.148563758, 96.390, 2288.0, 47.8330
38.174824323, 96.390, 2047.0, 45.2438
38.201084888, 96.390, 1825.0, 42.7200
38.227345454, 96.390, 1871.0, 43.2551
38.253606019, 96.390, 2104.0, 45.8694
38.279866584, 96.390, 2054.0, 45.3211
38.306127150, 96.390, 1880.0, 43.3590
38.332387715, 96.390, 1608.0, 40.0999
38.358648280, 96.390, 1577.0, 39.7115
38.384908846, 96.390, 1693.0, 41.1461
38.411169411, 96.390, 1670.0, 40.8656
38.437429976, 96.390, 1571.0, 39.6358
38.463690542, 96.390, 1518.0, 38.9615
38.489951107, 96.390, 1488.0, 38.5746
38.516211673, 96.390, 1554.0, 39.4208
38.542472238, 96.390, 1444.0, 38.0000
38.568732803, 96.390, 1503.0, 38.7685
38.594993369, 96.390, 1470.0, 38.3406
38.621253934, 96.390, 1530.0, 39.1152
38.647514499, 96.390, 1446.0, 38.0263
38.673775065, 96.390, 1549.0, 39.3573
38.700035630, 96.390, 1432.0, 37.8418
38.726296195, 96.390, 1498.0, 38.7040
38.752556761, 96.390, 1428.0, 37.7889
38.778817326, 96.390, 1466.0, 38.2884
38.805077891, 96.390, 1414.0, 37.6032
38.831338457, 96.390, 1424.0, 37.7359
38.857599022, 96.390, 1423.0, 37.7227
38.883859587, 96.390, 1452.0, 38.1051
38.910120153, 96.390, 1452.0, 38.1051
38.936380718, 96.390, 1514.0, 38.9102
38.962641284, 96.390, 1479.0, 38.4578
38.988901849, 96.390, 1481.0, 38.4838
39.015162414, 96.390, 1472.0, 38.3667
39.041422980, 96.390, 1487.0, 38.5616
39.067683545, 96.390, 1453.0, 38.1182
39.093944110, 96.390, 1444.0, 38.0000
39.120204676, 96.390, 1460.0, 38.2099
39.146465241, 96.390, 1544.0, 39.2938
39.172725806, 96.390, 1683.0, 41.0244
39.198986372, 96.390, 1751.0, 41.8450
39.225246937, 96.390, 1749.0, 41.8210
39.251507502, 96.390, 1834.0, 42.8252
39.277768068, 96.390, 1659.0, 40.7308
39.304028633, 96.390, 1567.0, 39.5854
39.330289199, 96.390, 1601.0, 40.0125
39.356549764, 96.390, 1533.0, 39.1535
39.382810329, 96.390, 1368.0, 36.9865
39.409070895, 96.390, 1390.0, 37.2827
39.435331460, 96.390, 1401.0, 37.4299
39.461592025, 96.390, 1338.0, 36.5787
39.487852591, 96.390, 1424.0, 37.7359
39.514113156, 96.390, 1457.0, 38.1707
39.540373721, 96.390, 1462.0, 38.2361
39.566634287, 96.390, 1486.0, 38.5487
39.592894852, 96.390, 1547.0, 39.3319
39.619155417, 96.390, 1531.0, 39.1280
39.645415983, 96.390, 1590.0, 39.8748
39.671676548, 96.390, 1693.0, 41.1461
39.697937113, 96.390, 1653.0, 40.6571
39.724197679, 96.390, 1786.0, 42.2611
39.750458244, 96.390, 2386.0, 48.8467
39.776718810, 96.390, 2823.0, 53.1319
39.802979375, 96.390, 2159.0, 46.4650
39.829239940, 96.390, 1742.0, 41.7373
39.855500506, 96.390, 1888.0, 43.4511
39.881761071, 96.390, 2032.0, 45.0777
39.908021636, 96.390, 1734.0, 41.6413
39.934282202, 96.390, 1540.0, 39.2428
39.960542767, 96.390, 1427.0, 37.7757
39.986803332, 96.390, 1446.0, 38.0263
40.013063898, 96.390, 1405.0, 37.4833
40.039324463, 96.390, 1493.0, 38.6394
40.065585028, 96.390, 1438.0, 37.9210
40.091845594, 96.390, 1606.0, 40.0749
40.118106159, 96.390, 1684.0, 41.0366
40.144366725, 96.390, 1573.0, 39.6611
40.170627290, 96.390, 1516.0, 38.9358
40.196887855, 96.390, 1529.0, 39.1024
40.223148421, 96.390, 1520.0, 38.9872
40.249408986, 96.390, 1468.0, 38.3145
40.275669551, 96.390, 1442.0, 37.9737
40.301930117, 96.390, 1450.0, 38.0789
40.328190682, 96.390, 1418.0, 37.6563
40.354451247, 96.390, 1423.0, 37.7227
40.380711813, 96.390, 1373.0, 37.0540
40.406972378, 96.390, 1330.0, 36.4692
40.433232943, 96.390, 1340.0, 36.6060
40.459493509, 96.390, 1324.0, 36.3868
40.485754074, 96.390, 1316.0, 36.2767
40.512014639, 96.390, 1282.0, 35.8050
40.538275205, 96.390, 1346.0, 36.6879
40.564535770, 96.390, 1387.0, 37.2424
40.590796336, 96.390, 1402.0, 37.4433
40.617056901, 96.390, 1309.0, 36.1801
40.643317466, 96.390, 1390.0, 37.2827
40.669578032, 96.390, 1351.0, 36.7560
40.695838597, 96.390, 1373.0, 37.0540
40.722099162, 96.390, 1308.0, 36.1663
40.748359728, 96.390, 1291.0, 35.9305
40.774620293, 96.390, 1201.0, 34.6554
40.800880858, 96.390, 1220.0, 34.9285
40.827141424, 96.390, 1278.0, 35.7491
40.853401989, 96.390, 1292.0, 35.9444
40.879662554, 96.390, 1228.0, 35.0428
40.905923120, 96.390, 1287.0, 35.8748
40.932183685, 96.390, 1315.0, 36.2629
40.958444251, 96.390, 1232.0, 35.0999
40.984704816, 96.390, 1275.0, 35.7071
41.010965381, 96.390, 1244.0, 35.2704
41.037225947, 96.390, 1238.0, 35.1852
41.063486512, 96.390, 1279.0, 35.7631
41.089747077, 96.390, 1290.0, 35.9166
41.116007643, 96.390, 1251.0, 35.3695
41.142268208, 96.390, 1227.0, 35.0286
41.168528773, 96.390, 1311.0, 36.2077
41.194789339, 96.390, 1320.0, 36.3318
41.221049904, 96.390, 1263.0, 35.5387
41.247310469, 96.390, 1248.0, 35.3270
41.273571035, 96.390, 1333.0, 36.5103
41.299831600, 96.390, 1386.0, 37.2290
41.326092165, 96.390, 1310.0, 36.1939
41.352352731, 96.390, 1316.0, 36.2767
41.378613296, 96.390, 1311.0, 36.2077
41.404873862, 96.390, 1359.0, 36.8646
41.431134427, 96.390, 1341.0, 36.6197
41.457394992, 96.390, 1294.0, 35.9722
41.483655558, 96.390, 1336.0, 36.5513
41.509916123, 96.390, 1312.0, 36.2215
41.536176688, 96.390, 1306.0, 36.1386
41.562437254, 96.390, 1229.0, 35.0571
41.588697819, 96.390, 1174.0, 34.2637
41.614958384, 96.390, 1286.0, 35.8608
41.641218950, 96.390, 1234.0, 35.1283
41.667479515, 96.390, 1269.0, 35.6230
41.693740080, 96.390, 1194.0, 34.5543
41.720000646, 96.390, 1214.0, 34.8425
41.746261211, 96.390, 1245.0, 35.2846
41.772521776, 96.390, 1162.0, 34.0881
41.798782342, 96.390, 1181.0, 34.3657
41.825042907, 96.390, 1202.0, 34.6699
41.851303473, 96.390, 1186.0, 34.4384
41.877564038, 96.390, 1103.0, 33.2114
41.903824603, 96.390, 1160.0, 34.0588
41.930085169, 96.390, 1236.0, 35.1568
41.956345734, 96.390, 1189.0, 34.4819
41.982606299, 96.390, 1205.0, 34.7131
42.008866865, 96.390, 1170.0, 34.2053
42.035127430, 96.390, 1278.0, 35.7491
42.061387995, 96.390, 1323.0, 36.3731
42.087648561, 96.390, 1432.0, 37.8418
42.113909126, 96.390, 1519.0, 38.9744
42.140169691, 96.390, 1601.0, 40.0125
42.166430257, 96.390, 1471.0, 38.3536
42.192690822, 96.390, 1425.0, 37.7492
42.218951388, 96.390, 1474.0, 38.3927
42.245211953, 96.390, 1486.0, 38.5487
42.271472518, 96.390, 1440.0, 37.9473
42.297733084, 96.390, 1428.0, 37.7889
42.323993649, 96.390, 1293.0, 35.9583
42.350254214, 96.390, 1252.0, 35.3836
42.376514780, 96.390, 1231.0, 35.0856
42.402775345, 96.390, 1281.0, 35.7911
42.429035910, 96.390, 1135.0, 33.6898
42.455296476, 96.390, 1175.0, 34.2783
42.481557041, 96.390, 1151.0, 33.9264
42.507817606, 96.390, 1119.0, 33.4515
42.534078172, 96.390, 1191.0, 34.5109
42.560338737, 96.390, 1228.0, 35.0428
42.586599302, 96.390, 1188.0, 34.4674
42.612859868, 96.390, 1223.0, 34.9714
42.639120433, 96.390, 1276.0, 35.7211
42.665380999, 96.390, 1308.0, 36.1663
42.691641564, 96.390, 1302.0, 36.0832
42.717902129, 96.390, 1312.0, 36.2215
42.744162695, 96.390, 1257.0, 35.4542
42.770423260, 96.390, 1228.0, 35.0428
42.796683825, 96.390, 1173.0, 34.2491
42.822944391, 96.390, 1161.0, 34.0735
42.849204956, 96.390, 1122.0, 33.4963
42.875465521, 96.390, 1080.0, 32.8634
42.901726087, 96.390, 1116.0, 33.4066
42.927986652, 96.390, 1101.0, 33.1813
42.954247217, 96.390, 1143.0, 33.8083
42.980507783, 96.390, 1086.0, 32.9545
43.006768348, 96.390, 1137.0, 33.7194
43.033028914, 96.390, 1109.0, 33.3017
43.059289479, 96.390, 1117.0, 33.4215
43.085550044, 96.390, 1128.0, 33.5857
43.111810610, 96.390, 1150.0, 33.9116
43.138071175, 96.390, 1149.0, 33.8969
43.164331740, 96.390, 1123.0, 33.5112
43.190592306, 96.390, 1131.0, 33.6303
43.216852871, 96.390, 1141.0, 33.7787
43.243113436, 96.390, 1160.0, 34.0588
43.269374002, 96.390, 1139.0, 33.7491
43.295634567, 96.390, 1124.0, 33.5261
43.321895132, 96.390, 1127.0, 33.5708
43.348155698, 96.390, 1123.0, 33.5112
43.374416263, 96.390, 1135.0, 33.6898
43.400676828, 96.390, 1105.0, 33.2415
43.426937394, 96.390, 1138.0, 33.7343
43.453197959, 96.390, 1053.0, 32.4500
43.479458525, 96.390, 1106.0, 33.2566
43.505719090, 96.390, 1124.0, 33.5261
43.531979655, 96.390, 1131.0, 33.6303
43.558240221, 96.390, 1075.0, 32.7872
43.584500786, 96.390, 1150.0, 33.9116
43.610761351, 96.390, 1181.0, 34.3657
43.637021917, 96.390, 1205.0, 34.7131
43.663282482, 96.390, 1060.0, 32.5576
43.689543047, 96.390, 1083.0, 32.9090
43.715803613, 96.390, 1117.0, 33.4215
43.742064178, 96.390, 1079.0, 32.8481
43.768324743, 96.390, 1190.0, 34.4964
43.794585309, 96.390, 1127.0, 33.5708
43.820845874, 96.390, 1186.0, 34.4384
43.847106440, 96.390, 1164.0, 34.1174
43.873367005, 96.390, 1129.0, 33.6006
43.899627570, 96.390, 1068.0, 32.6803
43.925888136, 96.390, 1185.0, 34.4238
43.952148701, 96.390, 1183.0, 34.3948
43.978409266, 96.390, 1113.0, 33.3617
44.004669832, 96.390, 1132.0, 33.6452
44.030930397, 96.390, 1143.0, 33.8083
44.057190962, 96.390, 1143.0, 33.8083
44.083451528, 96.390, 1200.0, 34.6410
44.109712093, 96.390, 1147.0, 33.8674
44.135972658, 96.390, 1161.0, 34.0735
44.162233224, 96.390, 1324.0, 36.3868
44.188493789, 96.390, 1539.0, 39.2301
44.214754354, 96.390, 2496.0, 49.9600
44.241014920, 96.390, 3621.0, 60.1747
44.267275485, 96.390, 2607.0, 51.0588
44.293536051, 96.390, 1653.0, 40.6571
44.319796616, 96.390, 1711.0, 41.3642
44.346057181, 96.390, 2314.0, 48.1041
44.372317747, 96.390, 2217.0, 47.0850
44.398578312, 96.390, 1550.0, 39.3700
44.424838877, 96.390, 1272.0, 35.6651
44.451099443, 96.390, 1165.0, 34.1321
44.477360008, 96.390, 1235.0, 35.1426
44.503620573, 96.390, 1189.0, 34.4819
44.529881139, 96.390, 1164.0, 34.1174
44.556141704, 96.390, 1250.0, 35.3553
44.582402269, 96.390, 1286.0, 35.8608
44.608662835, 96.390, 1163.0, 34.1028
44.634923400, 96.390, 1247.0, 35.3129
44.661183966, 96.390, 1251.0, 35.3695
44.687444531, 96.390, 1230.0, 35.0714
44.713705096, 96.390, 1312.0, 36.2215
44.739965662, 96.390, 1339.0, 36.5923
44.766226227, 96.390, 1253.0, 35.3977
44.792486792, 96.390, 1337.0, 36.5650
44.818747358, 96.390, 1290.0, 35.9166
44.845007923, 96.390, 1360.0, 36.8782
44.871268488, 96.390, 1245.0, 35.2846
44.897529054, 96.390, 1186.0, 34.4384
44.923789619, 96.390, 1256.0, 35.4401
44.950050184, 96.390, 1221.0, 34.9428
44.976310750, 96.390, 1275.0, 35.7071
45.002571315, 96.390, 1222.0, 34.9571
45.028831880, 96.390, 1207.0, 34.7419
45.055092446, 96.390, 1246.0, 35.2987
45.081353011, 96.390, 1399.0, 37.4032
45.107613577, 96.390, 1514.0, 38.9102
45.133874142, 96.390, 1841.0, 42.9069
45.160134707, 96.390, 1541.0, 39.2556
45.186395273, 96.390, 1389.0, 37.2693
45.212655838, 96.390, 1316.0, 36.2767
45.238916403, 96.390, 1458.0, 38.1838
45.265176969, 96.390, 1556.0, 39.4462
45.291437534, 96.390, 1277.0, 35.7351
45.317698099, 96.390, 1234.0, 35.1283
45.343958665, 96.390, 1189.0, 34.4819
45.370219230, 96.390, 1172.0, 34.2345
45.396479795, 96.390, 1209.0, 34.7707
45.422740361, 96.390, 1286.0, 35.8608
45.449000926, 96.390, 1190.0, 34.4964
45.475261492, 96.390, 1174.0, 34.2637
45.501522057, 96.390, 1238.0, 35.1852
45.527782622, 96.390, 1289.0, 35.9026
45.554043188, 96.390, 1238.0, 35.1852
45.580303753, 96.390, 1304.0, 36.1109
45.606564318, 96.390, 1362.0, 36.9053
45.632824884, 96.390, 1380.0, 37.1484
45.659085449, 96.390, 1324.0, 36.3868
45.685346014, 96.390, 1484.0, 38.5227
45.711606580, 96.390, 1460.0, 38.2099
45.737867145, 96.390, 1347.0, 36.7015
45.764127710, 96.390, 1256.0, 35.4401
45.790388276, 96.390, 1266.0, 35.5809
45.816648841, 96.390, 1272.0, 35.6651
45.842909406, 96.390, 1250.0, 35.3553
45.869169972, 96.390, 1261.0, 35.5106
45.895430537, 96.390, 1218.0, 34.8999
45.921691103, 96.390, 1180.0, 34.3511
45.947951668, 96.390, 1119.0, 33.4515
45.974212233, 96.390, 1208.0, 34.7563
46.000472799, 96.390, 1274.0, 35.6931
46.026733364, 96.390, 1219.0, 34.9142
46.052993929, 96.390, 1295.0, 35.9861
46.079254495, 96.390, 1385.0, 37.2156
46.105515060, 96.390, 1346.0, 36.6879
46.131775625, 96.390, 1430.0, 37.8153
46.158036191, 96.390, 1485.0, 38.5357
46.184296756, 96.390, 1532.0, 39.1408
46.210557321, 96.390, 1585.0, 39.8121
46.236817887, 96.390, 1694.0, 41.1582
46.263078452, 96.390, 2159.0, 46.4650
46.289339017, 96.390, 2091.0, 45.7275
46.315599583, 96.390, 1700.0, 41.2311
46.341860148, 96.390, 1604.0, 40.0500
46.368120714, 96.390, 1711.0, 41.3642
46.394381279, 96.390, 1958.0, 44.2493
46.420641844, 96.390, 1883.0, 43.3935
46.446902410, 96.390, 1809.0, 42.5323
46.473162975, 96.390, 1721.0, 41.4849
46.499423540, 96.390, 1522.0, 39.0128
46.525684106, 96.390, 1515.0, 38.9230
46.551944671, 96.390, 1542.0, 39.2683
46.578205236, 96.390, 1539.0, 39.2301
46.604465802, 96.390, 1475.0, 38.4057
46.630726367, 96.390, 1411.0, 37.5633
46.656986932, 96.390, 1469.0, 38.3275
46.683247498, 96.390, 1439.0, 37.9342
46.709508063, 96.390, 1503.0, 38.7685
46.735768629, 96.390, 1384.0, 37.2022
46.762029194, 96.390, 1319.0, 36.3180
46.788289759, 96.390, 1252.0, 35.3836
46.814550325, 96.390, 1271.0, 35.6511
46.840810890, 96.390, 1229.0, 35.0571
46.867071455, 96.390, 1187.0, 34.4529
46.893332021, 96.390, 1165.0, 34.1321
46.919592586, 96.390, 1200.0, 34.6410
46.945853151, 96.390, 1207.0, 34.7419
46.972113717, 96.390, 1207.0, 34.7419
46.998374282, 96.390, 1162.0, 34.0881
47.024634847, 96.390, 1140.0, 33.7639
47.050895413, 96.390, 1167.0, 34.1614
47.077155978, 96.390, 1185.0, 34.4238
47.103416543, 96.390, 1161.0, 34.0735
47.129677109, 96.390, 1190.0, 34.4964
47.155937674, 96.390, 1239.0, 35.1994
47.182198240, 96.390, 1332.0, 36.4966
47.208458805, 96.390, 1294.0, 35.9722
47.234719370, 96.390, 1212.0, 34.8138
47.260979936, 96.390, 1202.0, 34.6699
47.287240501, 96.390, 1237.0, 35.1710
47.313501066, 96.390, 1282.0, 35.8050
47.339761632, 96.390, 1277.0, 35.7351
47.366022197, 96.390, 1187.0, 34.4529
47.392282762, 96.390, 1144.0, 33.8231
47.418543328, 96.390, 1117.0, 33.4215
47.444803893, 96.390, 1169.0, 34.1906
47.471064458, 96.390, 1187.0, 34.4529
47.497325024, 96.390, 1171.0, 34.2199
47.523585589, 96.390, 1256.0, 35.4401
47.549846155, 96.390, 1169.0, 34.1906
47.576106720, 96.390, 1222.0, 34.9571
47.602367285, 96.390, 1163.0, 34.1028
47.628627851, 96.390, 1132.0, 33.6452
47.654888416, 96.390, 1151.0, 33.9264
47.681148981, 96.390, 1171.0, 34.2199
47.707409547, 96.390, 1155.0, 33.9853
47.733670112, 96.390, 1114.0, 33.3766
47.759930677, 96.390, 1143.0, 33.8083
47.786191243, 96.390, 1151.0, 33.9264
47.812451808, 96.390, 1171.0, 34.2199
47.838712373, 96.390, 1168.0, 34.1760
47.864972939, 96.390, 1174.0, 34.2637
47.891233504, 96.390, 1187.0, 34.4529
47.917494069, 96.390, 1159.0, 34.0441
47.943754635, 96.390, 1153.0, 33.9559
47.970015200, 96.390, 1182.0, 34.3802
47.996275766, 96.390, 1130.0, 33.6155
48.022536331, 96.390, 1115.0, 33.3916
48.048796896, 96.390, 1116.0, 33.4066
48.075057462, 96.390, 1225.0, 35.0000
48.101318027, 96.390, 1205.0, 34.7131
48.127578592, 96.390, 1168.0, 34.1760
48.153839158, 96.390, 1084.0, 32.9242
48.180099723, 96.390, 1150.0, 33.9116
48.206360288, 96.390, 1099.0, 33.1512
48.232620854, 96.390, 1134.0, 33.6749
48.258881419, 96.390, 1097.0, 33.1210
48.285141984, 96.390, 1039.0, 32.2335
48.311402550, 96.390, 1101.0, 33.1813
48.337663115, 96.390, 1182.0, 34.3802
48.363923681, 96.390, 1139.0, 33.7491
48.390184246, 96.390, 1203.0, 34.6843
48.416444811, 96.390, 1257.0, 35.4542
48.442705377, 96.390, 1226.0, 35.0143
48.468965942, 96.390, 1227.0, 35.0286
48.495226507, 96.390, 1216.0, 34.8712
48.521487073, 96.390, 1173.0, 34.2491
48.547747638, 96.390, 1255.0, 35.4260
48.574008203, 96.390, 1162.0, 34.0881
48.600268769, 96.390, 1204.0, 34.6987
48.626529334, 96.390, 1137.0, 33.7194
48.652789899, 96.390, 1159.0, 34.0441
48.679050465, 96.390, 1173.0, 34.2491
48.705311030, 96.390, 1134.0, 33.6749
48.731571595, 96.390, 1075.0, 32.7872
48.757832161, 96.390, 1048.0, 32.3728
48.784092726, 96.390, 1127.0, 33.5708
48.810353292, 96.390, 1083.0, 32.9090
48.836613857, 96.390, 1160.0, 34.0588
48.862874422, 96.390, 1095.0, 33.0908
48.889134988, 96.390, 1085.0, 32.9393
48.915395553, 96.390, 1060.0, 32.5576
48.941656118, 96.390, 1131.0, 33.6303
48.967916684, 96.390, 1109.0, 33.3017
48.994177249, 96.390, 1130.0, 33.6155
49.020437814, 96.390, 1103.0, 33.2114
49.046698380, 96.390, 1150.0, 33.9116
49.072958945, 96.390, 1118.0, 33.4365
49.099219510, 96.390, 1152.0, 33.9411
49.125480076, 96.390, 1201.0, 34.6554
49.151740641, 96.390, 1119.0, 33.4515
49.178001207, 96.390, 1087.0, 32.9697
49.204261772, 96.390, 1059.0, 32.5423
49.230522337, 96.390, 1163.0, 34.1028
49.256782903, 96.390, 1083.0, 32.9090
49.283043468, 96.390, 1036.0, 32.1870
49.309304033, 96.390, 1099.0, 33.1512
49.335564599, 96.390, 1121.0, 33.4813
49.361825164, 96.390, 1153.0, 33.9559
49.388085729, 96.390, 1139.0, 33.7491
49.414346295, 96.390, 1120.0, 33.4664
49.440606860, 96.390, 1087.0, 32.9697
49.466867425, 96.390, 1035.0, 32.1714
49.493127991, 96.390, 1059.0, 32.5423
49.519388556, 96.390, 1071.0, 32.7261
49.545649121, 96.390, 1114.0, 33.3766
49.571909687, 96.390, 1131.0, 33.6303
49.598170252, 96.390, 1115.0, 33.3916
49.624430818, 96.390, 1343.0, 36.6470
49.650691383, 96.390, 1601.0, 40.0125
49.676951948, 96.390, 1910.0, 43.7035
49.703212514, 96.390, 1605.0, 40.0625
49.729473079, 96.390, 1304.0, 36.1109
49.755733644, 96.390, 1303.0, 36.0971
49.781994210, 96.390, 1358.0, 36.8511
49.808254775, 96.390, 1481.0, 38.4838
49.834515340, 96.390, 1213.0, 34.8281
49.860775906, 96.390, 1039.0, 32.2335
49.887036471, 96.390, 1004.0, 31.6860
49.913297036, 96.390, 1057.0, 32.5115
49.939557602, 96.390, 1032.0, 32.1248
49.965818167, 96.390, 1001.0, 31.6386
49.992078733, 96.390, 983.0, 31.3528
50.018339298, 96.390, 942.0, 30.6920
50.044599863, 96.390, 957.0, 30.9354
50.070860429, 96.390, 940.0, 30.6594
50.097120994, 96.390, 957.0, 30.9354
50.123381559, 96.390, 969.0, 31.1288
50.149642125, 96.390, 992.0, 31.4960
50.175902690, 96.390, 998.0, 31.5911
50.202163255, 96.390, 951.0, 30.8383
50.228423821, 96.390, 962.0, 31.0161
50.254684386, 96.390, 1000.0, 31.6228
50.280944951, 96.390, 1005.0, 31.7017
50.307205517, 96.390, 981.0, 31.3209
50.333466082, 96.390, 928.0, 30.4631
50.359726647, 96.390, 1040.0, 32.2490
50.385987213, 96.390, 1045.0, 32.3265
50.412247778, 96.390, 1035.0, 32.1714
50.438508344, 96.390, 978.0, 31.2730
50.464768909, 96.390, 978.0, 31.2730
50.491029474, 96.390, 982.0, 31.3369
50.517290040, 96.390, 1086.0, 32.9545
50.543550605, 96.390, 1002.0, 31.6544
50.569811170, 96.390, 1016.0, 31.8748
50.596071736, 96.390, 1025.0, 32.0156
50.622332301, 96.390, 942.0, 30.6920
50.648592866, 96.390, 975.0, 31.2250
50.674853432, 96.390, 965.0, 31.0644
50.701113997, 96.390, 1038.0, 32.2180
50.727374562, 96.390, 951.0, 30.8383
50.753635128, 96.390, 963.0, 31.0322
50.779895693, 96.390, 951.0, 30.8383
50.806156258, 96.390, 1010.0, 31.7805
50.832416824, 96.390, 1005.0, 31.7017
50.858677389, 96.390, 990.0, 31.4643
50.884937955, 96.390, 940.0, 30.6594
50.911198520, 96.390, 949.0, 30.8058
50.937459085, 96.390, 1075.0, 32.7872
50.963719651, 96.390, 1153.0, 33.9559
50.989980216, 96.390, 1272.0, 35.6651
51.016240781, 96.390, 1795.0, 42.3674
51.042501347, 96.390, 1777.0, 42.1545
51.068761912, 96.390, 1273.0, 35.6791
51.095022477, 96.390, 1156.0, 34.0000
51.121283043, 96.390, 1095.0, 33.0908
51.147543608, 96.390, 1421.0, 37.6962
51.173804173, 96.390, 1442.0, 37.9737
51.200064739, 96.390, 1126.0, 33.5559
51.226325304, 96.390, 1027.0, 32.0468
51.252585870, 96.390, 979.0, 31.2890
51.278846435, 96.390, 969.0, 31.1288
51.305107000, 96.390, 967.0, 31.0966
51.331367566, 96.390, 995.0, 31.5436
51.357628131, 96.390, 964.0, 31.0483
51.383888696, 96.390, 1152.0, 33.9411
51.410149262, 96.390, 1249.0, 35.3412
51.436409827, 96.390, 1051.0, 32.4191
51.462670392, 96.390, 997.0, 31.5753
51.488930958, 96.390, 979.0, 31.2890
51.515191523, 96.390, 1013.0, 31.8277
51.541452088, 96.390, 1062.0, 32.5883
51.567712654, 96.390, 919.0, 30.3150
51.593973219, 96.390, 879.0, 29.6479
51.620233784, 96.390, 913.0, 30.2159
51.646494350, 96.390, 877.0, 29.6142
51.672754915, 96.390, 872.0, 29.5296
51.699015481, 96.390, 911.0, 30.1828
51.725276046, 96.390, 928.0, 30.4631
51.751536611, 96.390, 893.0, 29.8831
51.777797177, 96.390, 978.0, 31.2730
51.804057742, 96.390, 925.0, 30.4138
51.830318307, 96.390, 980.0, 31.3050
51.856578873, 96.390, 861.0, 29.3428
51.882839438, 96.390, 920.0, 30.3315
51.909100003, 96.390, 1006.0, 31.7175
51.935360569, 96.390, 919.0, 30.3150
51.961621134, 96.390, 970.0, 31.1448
51.987881699, 96.390, 899.0, 29.9833
52.014142265, 96.390, 930.0, 30.4959
52.040402830, 96.390, 918.0, 30.2985
52.066663396, 96.390, 911.0, 30.1828
52.092923961, 96.390, 873.0, 29.5466
52.119184526, 96.390, 932.0, 30.5287
52.145445092, 96.390, 909.0, 30.1496
52.171705657, 96.390, 967.0, 31.0966
52.197966222, 96.390, 931.0, 30.5123
52.224226788, 96.390, 891.0, 29.8496
52.250487353, 96.390, 907.0, 30.1164
52.276747918, 96.390, 994.0, 31.5278
52.303008484, 96.390, 982.0, 31.3369
52.329269049, 96.390, 1009.0, 31.7648
52.355529614, 96.390, 1108.0, 33.2866
52.381790180, 96.390, 1216.0, 34.8712
52.408050745, 96.390, 1115.0, 33.3916
52.434311310, 96.390, 982.0, 31.3369
52.460571876, 96.390, 989.0, 31.4484
52.486832441, 96.390, 1012.0, 31.8119
52.513093007, 96.390, 1075.0, 32.7872
52.539353572, 96.390, 1080.0, 32.8634
52.565614137, 96.390, 1118.0, 33.4365
52.591874703, 96.390, 958.0, 30.9516
52.618135268, 96.390, 917.0, 30.2820
52.644395833, 96.390, 992.0, 31.4960
52.670656399, 96.390, 1015.0, 31.8591
52.696916964, 96.390, 1048.0, 32.3728
52.723177529, 96.390, 967.0, 31.0966
52.749438095, 96.390, 978.0, 31.2730
52.775698660, 96.390, 930.0, 30.4959
52.801959225, 96.390, 884.0, 29.7321
52.828219791, 96.390, 985.0, 31.3847
52.854480356, 96.390, 1076.0, 32.8024
52.880740922, 96.390, 1200.0, 34.6410
52.907001487, 96.390, 1087.0, 32.9697
52.933262052, 96.390, 1117.0, 33.4215
52.959522618, 96.390, 956.0, 30.9192
52.985783183, 96.390, 964.0, 31.0483
53.012043748, 96.390, 980.0, 31.3050
53.038304314, 96.390, 1067.0, 32.6650
53.064564879, 96.390, 982.0, 31.3369
53.090825444, 96.390, 1029.0, 32.0780
53.117086010, 96.390, 1114.0, 33.3766
53.143346575, 96.390, 1047.0, 32.3574
53.169607140, 96.390, 967.0, 31.0966
53.195867706, 96.390, 947.0, 30.7734
53.222128271, 96.390, 913.0, 30.2159
53.248388836, 96.390, 914.0, 30.2324
53.274649402, 96.390, 938.0, 30.6268
53.300909967, 96.390, 944.0, 30.7246
53.327170533, 96.390, 949.0, 30.8058
53.353431098, 96.390, 868.0, 29.4618
53.379691663, 96.390, 885.0, 29.7489
53.405952229, 96.390, 938.0, 30.6268
53.432212794, 96.390, 823.0, 28.6880
53.458473359, 96.390, 840.0, 28.9828
53.484733925, 96.390, 909.0, 30.1496
53.510994490, 96.390, 892.0, 29.8664
53.537255055, 96.390, 878.0, 29.6311
53.563515621, 96.390, 873.0, 29.5466
53.589776186, 96.390, 836.0, 28.9137
53.616036751, 96.390, 852.0, 29.1890
53.642297317, 96.390, 888.0, 29.7993
53.668557882, 96.390, 822.0, 28.6705
53.694818448, 96.390, 848.0, 29.1204
53.721079013, 96.390, 830.0, 28.8097
53.747339578, 96.390, 870.0, 29.4958
53.773600144, 96.390, 923.0, 30.3809
53.799860709, 96.390, 943.0, 30.7083
53.826121274, 96.390, 990.0, 31.4643
53.852381840, 96.390, 988.0, 31.4325
53.878642405, 96.390, 951.0, 30.8383
53.904902970, 96.390, 989.0, 31.4484
53.931163536, 96.390, 996.0, 31.5595
53.957424101, 96.390, 981.0, 31.3209
53.983684666, 96.390, 980.0, 31.3050
54.009945232, 96.390, 927.0, 30.4467
54.036205797, 96.390, 987.0, 31.4166
54.062466362, 96.390, 986.0, 31.4006
54.088726928, 96.390, 941.0, 30.6757
54.114987493, 96.390, 976.0, 31.2410
54.141248059, 96.390, 977.0, 31.2570
54.167508624, 96.390, 858.0, 29.2916
54.193769189, 96.390, 880.0, 29.6648
54.220029755, 96.390, 916.0, 30.2655
54.246290320, 96.390, 946.0, 30.7571
54.272550885, 96.390, 877.0, 29.6142
54.298811451, 96.390, 878.0, 29.6311
54.325072016, 96.390, 921.0, 30.3480
54.351332581, 96.390, 939.0, 30.6431
54.377593147, 96.390, 904.0, 30.0666
54.403853712, 96.390, 852.0, 29.1890
54.430114277, 96.390, 909.0, 30.1496
54.456374843, 96.390, 866.0, 29.4279
54.482635408, 96.390, 812.0, 28.4956
54.508895973, 96.390, 805.0, 28.3725
54.535156539, 96.390, 928.0, 30.4631
54.561417104, 96.390, 874.0, 29.5635
54.587677670, 96.390, 881.0, 29.6816
54.613938235, 96.390, 839.0, 28.9655
54.640198800, 96.390, 879.0, 29.6479
54.666459366, 96.390, 871.0, 29.5127
54.692719931, 96.390, 855.0, 29.2404
54.718980496, 96.390, 911.0, 30.1828
54.745241062, 96.390, 862.0, 29.3598
54.771501627, 96.390, 875.0, 29.5804
54.797762192, 96.390, 849.0, 29.1376
54.824022758, 96.390, 856.0, 29.2575
54.850283323, 96.390, 878.0, 29.6311
54.876543888, 96.390, 849.0, 29.1376
54.902804454, 96.390, 997.0, 31.5753
54.929065019, 96.390, 1057.0, 32.5115
54.955325585, 96.390, 920.0, 30.3315
54.981586150, 96.390, 876.0, 29.5973
55.007846715, 96.390, 873.0, 29.5466
55.034107281, 96.390, 948.0, 30.7896
55.060367846, 96.390, 1053.0, 32.4500
55.086628411, 96.390, 1017.0, 31.8904
55.112888977, 96.390, 952.0, 30.8545
55.139149542, 96.390, 879.0, 29.6479
55.165410107, 96.390, 889.0, 29.8161
55.191670673, 96.390, 851.0, 29.1719
55.217931238, 96.390, 914.0, 30.2324
55.244191803, 96.390, 838.0, 28.9482
55.270452369, 96.390, 870.0, 29.4958
55.296712934, 96.390, 794.0, 28.1780
55.322973499, 96.390, 758.0, 27.5318
55.349234065, 96.390, 805.0, 28.3725
55.375494630, 96.390, 860.0, 29.3258
55.401755196, 96.390, 850.0, 29.1548
55.428015761, 96.390, 801.0, 28.3019
55.454276326, 96.390, 834.0, 28.8791
55.480536892, 96.390, 844.0, 29.0517
55.506797457, 96.390, 786.0, 28.0357
55.533058022, 96.390, 788.0, 28.0713
55.559318588, 96.390, 796.0, 28.2135
55.585579153, 96.390, 805.0, 28.3725
55.611839718, 96.390, 836.0, 28.9137
55.638100284, 96.390, 824.0, 28.7054
55.664360849, 96.390, 778.0, 27.8927
55.690621414, 96.390, 742.0, 27.2397
55.716881980, 96.390, 839.0, 28.9655
55.743142545, 96.390, 845.0, 29.0689
55.769403111, 96.390, 873.0, 29.5466
55.795663676, 96.390, 850.0, 29.1548
55.821924241, 96.390, 777.0, 27.8747
55.848184807, 96.390, 808.0, 28.4253
55.874445372, 96.390, 810.0, 28.4605
55.900705937, 96.390, 825.0, 28.7228
55.926966503, 96.390, 800.0, 28.2843
55.953227068, 96.390, 824.0, 28.7054
55.979487633, 96.390, 789.0, 28.0891
56.005748199, 96.390, 796.0, 28.2135
56.032008764, 96.390, 853.0, 29.2062
56.058269329, 96.390, 814.0, 28.5307
56.084529895, 96.390, 797.0, 28.2312
56.110790460, 96.390, 851.0, 29.1719
56.137051025, 96.390, 792.0, 28.1425
56.163311591, 96.390, 829.0, 28.7924
56.189572156, 96.390, 864.0, 29.3939
56.215832722, 96.390, 855.0, 29.2404
56.242093287, 96.390, 838.0, 28.9482
56.268353852, 96.390, 816.0, 28.5657
56.294614418, 96.390, 830.0, 28.8097
56.320874983, 96.390, 861.0, 29.3428
56.347135548, 96.390, 832.0, 28.8444
56.373396114, 96.390, 825.0, 28.7228
56.399656679, 96.390, 784.0, 28.0000
56.425917244, 96.390, 827.0, 28.7576
56.452177810, 96.390, 817.0, 28.5832
56.478438375, 96.390, 827.0, 28.7576
56.504698940, 96.390, 816.0, 28.5657
56.530959506, 96.390, 888.0, 29.7993
56.557220071, 96.390, 804.0, 28.3549
56.583480637, 96.390, 779.0, 27.9106
56.609741202, 96.390, 868.0, 29.4618
56.636001767, 96.390, 813.0, 28.5132
56.662262333, 96.390, 831.0, 28.8271
56.688522898, 96.390, 790.0, 28.1069
56.714783463, 96.390, 725.0, 26.9258
56.741044029, 96.390, 728.0, 26.9815
56.767304594, 96.390, 731.0, 27.0370
56.793565159, 96.390, 733.0, 27.0740
56.819825725, 96.390, 693.0, 26.3249
56.846086290, 96.390, 801.0, 28.3019
56.872346855, 96.390, 708.0, 26.6083
56.898607421, 96.390, 767.0, 27.6948
56.924867986, 96.390, 784.0, 28.0000
56.951128551, 96.390, 804.0, 28.3549
56.977389117, 96.390, 775.0, 27.8388
57.003649682, 96.390, 765.0, 27.6586
57.029910248, 96.390, 769.0, 27.7308
57.056170813, 96.390, 760.0, 27.5681
57.082431378, 96.390, 775.0, 27.8388
57.108691944, 96.390, 736.0, 27.1293
57.134952509, 96.390, 799.0, 28.2666
57.161213074, 96.390, 829.0, 28.7924
57.187473640, 96.390, 821.0, 28.6531
57.213734205, 96.390, 798.0, 28.2489
57.239994770, 96.390, 804.0, 28.3549
57.266255336, 96.390, 829.0, 28.7924
57.292515901, 96.390, 844.0, 29.0517
57.318776466, 96.390, 891.0, 29.8496
57.345037032, 96.390, 1062.0, 32.5883
57.371297597, 96.390, 916.0, 30.2655
57.397558163, 96.390, 861.0, 29.3428
57.423818728, 96.390, 874.0, 29.5635
57.450079293, 96.390, 955.0, 30.9031
57.476339859, 96.390, 1044.0, 32.3110
57.502600424, 96.390, 1066.0, 32.6497
57.528860989, 96.390, 893.0, 29.8831
57.555121555, 96.390, 836.0, 28.9137
57.581382120, 96.390, 908.0, 30.1330
57.607642685, 96.390, 924.0, 30.3974
57.633903251, 96.390, 1084.0, 32.9242
57.660163816, 96.390, 981.0, 31.3209
57.686424381, 96.390, 1027.0, 32.0468
57.712684947, 96.390, 931.0, 30.5123
57.738945512, 96.390, 951.0, 30.8383
57.765206077, 96.390, 881.0, 29.6816
57.791466643, 96.390, 855.0, 29.2404
57.817727208, 96.390, 978.0, 31.2730
57.843987774, 96.390, 1019.0, 31.9218
57.870248339, 96.390, 918.0, 30.2985
57.896508904, 96.390, 920.0, 30.3315
57.922769470, 96.390, 824.0, 28.7054
57.949030035, 96.390, 836.0, 28.9137
57.975290600, 96.390, 800.0, 28.2843
58.001551166, 96.390, 894.0, 29.8998
58.027811731, 96.390, 873.0, 29.5466
58.054072296, 96.390, 792.0, 28.1425
58.080332862, 96.390, 755.0, 27.4773
58.106593427, 96.390, 777.0, 27.8747
58.132853992, 96.390, 820.0, 28.6356
58.159114558, 96.390, 883.0, 29.7153
58.185375123, 96.390, 841.0, 29.0000
58.211635689, 96.390, 736.0, 27.1293
58.237896254, 96.390, 781.0, 27.9464
58.264156819, 96.390, 819.0, 28.6182
58.290417385, 96.390, 729.0, 27.0000
58.316677950, 96.390, 859.0, 29.3087
58.342938515, 96.390, 795.0, 28.1957
58.369199081, 96.390, 750.0, 27.3861
58.395459646, 96.390, 770.0, 27.7489
58.421720211, 96.390, 787.0, 28.0535
58.447980777, 96.390, 780.0, 27.9285
58.474241342, 96.390, 771.0, 27.7669
58.500501907, 96.390, 774.0, 27.8209
58.526762473, 96.390, 743.0, 27.2580
58.553023038, 96.390, 779.0, 27.9106
58.579283603, 96.390, 792.0, 28.1425
58.605544169, 96.390, 802.0, 28.3196
58.631804734, 96.390, 725.0, 26.9258
58.658065300, 96.390, 781.0, 27.9464
58.684325865, 96.390, 735.0, 27.1109
58.710586430, 96.390, 718.0, 26.7955
58.736846996, 96.390, 734.0, 27.0924
58.763107561, 96.390, 755.0, 27.4773
58.789368126, 96.390, 727.0, 26.9629
58.815628692, 96.390, 732.0, 27.0555
58.841889257, 96.390, 746.0, 27.3130
58.868149822, 96.390, 709.0, 26.6271
58.894410388, 96.390, 700.0, 26.4575
58.920670953, 96.390, 736.0, 27.1293
58.946931518, 96.390, 765.0, 27.6586
58.973192084, 96.390, 770.0, 27.7489
58.999452649, 96.390, 708.0, 26.6083
59.025713214, 96.390, 780.0, 27.9285
59.051973780, 96.390, 720.0, 26.8328
59.078234345, 96.390, 745.0, 27.2947
59.104494911, 96.390, 784.0, 28.0000
59.130755476, 96.390, 724.0, 26.9072
59.157016041, 96.390, 721.0, 26.8514
59.183276607, 96.390, 797.0, 28.2312
59.209537172, 96.390, 836.0, 28.9137
59.235797737, 96.390, 777.0, 27.8747
59.262058303, 96.390, 832.0, 28.8444
59.288318868, 96.390, 870.0, 29.4958
59.314579433, 96.390, 865.0, 29.4109
59.340839999, 96.390, 857.0, 29.2746
59.367100564, 96.390, 847.0, 29.1033
59.393361129, 96.390, 824.0, 28.7054
59.419621695, 96.390, 802.0, 28.3196
59.445882260, 96.390, 893.0, 29.8831
59.472142826, 96.390, 851.0, 29.1719
59.498403391, 96.390, 825.0, 28.7228
59.524663956, 96.390, 758.0, 27.5318
59.550924522, 96.390, 749.0, 27.3679
59.577185087, 96.390, 776.0, 27.8568
59.603445652, 96.390, 830.0, 28.8097
59.629706218, 96.390, 750.0, 27.3861
59.655966783, 96.390, 769.0, 27.7308
59.682227348, 96.390, 810.0, 28.4605
59.708487914, 96.390, 780.0, 27.9285
59.734748479, 96.390, 776.0, 27.8568
59.761009044, 96.390, 814.0, 28.5307
59.787269610, 96.390, 861.0, 29.3428
59.813530175, 96.390, 802.0, 28.3196
59.839790740, 96.390, 775.0, 27.8388
59.866051306, 96.390, 817.0, 28.5832
59.892311871, 96.390, 818.0, 28.6007
59.918572437, 96.390, 760.0, 27.5681
59.944833002, 96.390, 792.0, 28.1425
59.971093567, 96.390, 819.0, 28.6182
59.997354133, 96.390, 779.0, 27.9106
60.023614698, 96.390, 844.0, 29.0517
60.049875263, 96.390, 780.0, 27.9285
60.076135829, 96.390, 859.0, 29.3087
60.102396394, 96.390, 859.0, 29.3087
60.128656959, 96.390, 814.0, 28.5307
60.154917525, 96.390, 861.0, 29.3428
60.181178090, 96.390, 803.0, 28.3373
60.207438655, 96.390, 819.0, 28.6182
60.233699221, 96.390, 922.0, 30.3645
60.259959786, 96.390, 880.0, 29.6648
60.286220352, 96.390, 889.0, 29.8161
60.312480917, 96.390, 911.0, 30.1828
60.338741482, 96.390, 941.0, 30.6757
60.365002048, 96.390, 894.0, 29.8998
60.391262613, 96.390, 890.0, 29.8329
60.417523178, 96.390, 950.0, 30.8221
60.443783744, 96.390, 964.0, 31.0483
60.470044309, 96.390, 964.0, 31.0483
60.496304874, 96.390, 989.0, 31.4484
60.522565440, 96.390, 994.0, 31.5278
60.548826005, 96.390, 1009.0, 31.7648
60.575086570, 96.390, 976.0, 31.2410
60.601347136, 96.390, 1040.0, 32.2490
60.627607701, 96.390, 1022.0, 31.9687
60.653868266, 96.390, 1002.0, 31.6544
60.680128832, 96.390, 1036.0, 32.1870
60.706389397, 96.390, 967.0, 31.0966
60.732649963, 96.390, 1072.0, 32.7414
60.758910528, 96.390, 1053.0, 32.4500
60.785171093, 96.390, 1064.0, 32.6190
60.811431659, 96.390, 1111.0, 33.3317
60.837692224, 96.390, 1098.0, 33.1361
60.863952789, 96.390, 1099.0, 33.1512
60.890213355, 96.390, 1093.0, 33.0606
60.916473920, 96.390, 1118.0, 33.4365
60.942734485, 96.390, 1118.0, 33.4365
60.968995051, 96.390, 1184.0, 34.4093
60.995255616, 96.390, 1177.0, 34.3074
61.021516181, 96.390, 1196.0, 34.5832
61.047776747, 96.390, 1239.0, 35.1994
61.074037312, 96.390, 1263.0, 35.5387
61.100297878, 96.390, 1244.0, 35.2704
61.126558443, 96.390, 1382.0, 37.1753
61.152819008, 96.390, 1299.0, 36.0416
61.179079574, 96.390, 1262.0, 35.5246
61.205340139, 96.390, 1265.0, 35.5668
61.231600704, 96.390, 1249.0, 35.3412
61.257861270, 96.390, 1193.0, 34.5398
61.284121835, 96.390, 1176.0, 34.2929
61.310382400, 96.390, 1207.0, 34.7419
61.336642966, 96.390, 1216.0, 34.8712
61.362903531, 96.390, 1174.0, 34.2637
61.389164096, 96.390, 1213.0, 34.8281
61.415424662, 96.390, 1184.0, 34.4093
61.441685227, 96.390, 1174.0, 34.2637
61.467945792, 96.390, 1103.0, 33.2114
61.494206358, 96.390, 1136.0, 33.7046
61.520466923, 96.390, 1161.0, 34.0735
61.546727489, 96.390, 1062.0, 32.5883
61.572988054, 96.390, 1102.0, 33.1964
61.599248619, 96.390, 1100.0, 33.1662
61.625509185, 96.390, 1048.0, 32.3728
61.651769750, 96.390, 996.0, 31.5595
61.678030315, 96.390, 1032.0, 32.1248
61.704290881, 96.390, 1083.0, 32.9090
61.730551446, 96.390, 1053.0, 32.4500
61.756812011, 96.390, 1078.0, 32.8329
61.783072577, 96.390, 1067.0, 32.6650
61.809333142, 96.390, 1094.0, 33.0757
61.835593707, 96.390, 1017.0, 31.8904
61.861854273, 96.390, 1080.0, 32.8634
61.888114838, 96.390, 1105.0, 33.2415
61.914375404, 96.390, 1136.0, 33.7046
61.940635969, 96.390, 1050.0, 32.4037
61.966896534, 96.390, 1004.0, 31.6860
61.993157100, 96.390, 1057.0, 32.5115
62.019417665, 96.390, 1001.0, 31.6386
62.045678230, 96.390, 1031.0, 32.1092
62.071938796, 96.390, 1006.0, 31.7175
62.098199361, 96.390, 1044.0, 32.3110
62.124459926, 96.390, 1095.0, 33.0908
62.150720492, 96.390, 1023.0, 31.9844
62.176981057, 96.390, 1051.0, 32.4191
62.203241622, 96.390, 948.0, 30.7896
62.229502188, 96.390, 1021.0, 31.9531
62.255762753, 96.390, 965.0, 31.0644
62.282023318, 96.390, 964.0, 31.0483
62.308283884, 96.390, 966.0, 31.0805
62.334544449, 96.390, 972.0, 31.1769
62.360805015, 96.390, 988.0, 31.4325
62.387065580, 96.390, 926.0, 30.4302
62.413326145, 96.390, 988.0, 31.4325
62.439586711, 96.390, 968.0, 31.1127
62.465847276, 96.390, 985.0, 31.3847
62.492107841, 96.390, 959.0, 30.9677
62.518368407, 96.390, 934.0, 30.5614
62.544628972, 96.390, 952.0, 30.8545
62.570889537, 96.390, 930.0, 30.4959
62.597150103, 96.390, 976.0, 31.2410
62.623410668, 96.390, 972.0, 31.1769
62.649671233, 96.390, 890.0, 29.8329
62.675931799, 96.390, 900.0, 30.0000
62.702192364, 96.390, 914.0, 30.2324
62.728452930, 96.390, 915.0, 30.2490
62.754713495, 96.390, 875.0, 29.5804
62.780974060, 96.390, 881.0, 29.6816
62.807234626, 96.390, 842.0, 29.0172
62.833495191, 96.390, 843.0, 29.0345
62.859755756, 96.390, 845.0, 29.0689
62.886016322, 96.390, 844.0, 29.0517
62.912276887, 96.390, 820.0, 28.6356
62.938537452, 96.390, 835.0, 28.8964
62.964798018, 96.390, 808.0, 28.4253
62.991058583, 96.390, 774.0, 27.8209
63.017319148, 96.390, 839.0, 28.9655
63.043579714, 96.390, 793.0, 28.1603
63.069840279, 96.390, 803.0, 28.3373
63.096100844, 96.390, 764.0, 27.6405
63.122361410, 96.390, 810.0, 28.4605
63.148621975, 96.390, 785.0, 28.0179
63.174882541, 96.390, 809.0, 28.4429
63.201143106, 96.390, 771.0, 27.7669
63.227403671, 96.390, 753.0, 27.4408
63.253664237, 96.390, 754.0, 27.4591
63.279924802, 96.390, 735.0, 27.1109
63.306185367, 96.390, 795.0, 28.1957
63.332445933, 96.390, 837.0, 28.9310
63.358706498, 96.390, 788.0, 28.0713
63.384967063, 96.390, 754.0, 27.4591
63.411227629, 96.390, 787.0, 28.0535
63.437488194, 96.390, 787.0, 28.0535
63.463748759, 96.390, 755.0, 27.4773
63.490009325, 96.390, 744.0, 27.2764
63.516269890, 96.390, 758.0, 27.5318
63.542530455, 96.390, 752.0, 27.4226
63.568791021, 96.390, 797.0, 28.2312
63.595051586, 96.390, 786.0, 28.0357
63.621312152, 96.390, 752.0, 27.4226
63.647572717, 96.390, 770.0, 27.7489
63.673833282, 96.390, 719.0, 26.8142
63.700093848, 96.390, 749.0, 27.3679
63.726354413, 96.390, 771.0, 27.7669
63.752614978, 96.390, 739.0, 27.1846
63.778875544, 96.390, 719.0, 26.8142
63.805136109, 96.390, 707.0, 26.5895
63.831396674, 96.390, 744.0, 27.2764
63.857657240, 96.390, 743.0, 27.2580
63.883917805, 96.390, 791.0, 28.1247
63.910178370, 96.390, 823.0, 28.6880
63.936438936, 96.390, 860.0, 29.3258
63.962699501, 96.390, 850.0, 29.1548
63.988960067, 96.390, 839.0, 28.9655
64.015220632, 96.390, 793.0, 28.1603
64.041481197, 96.390, 825.0, 28.7228
64.067741763, 96.390, 827.0, 28.7576
64.094002328, 96.390, 878.0, 29.6311
64.120262893, 96.390, 890.0, 29.8329
64.146523459, 96.390, 818.0, 28.6007
64.172784024, 96.390, 768.0, 27.7128
64.199044589, 96.390, 784.0, 28.0000
64.225305155, 96.390, 709.0, 26.6271
64.251565720, 96.390, 757.0, 27.5136
64.277826285, 96.390, 719.0, 26.8142
64.304086851, 96.390, 705.0, 26.5518
64.330347416, 96.390, 772.0, 27.7849
64.356607981, 96.390, 672.0, 25.9230
64.382868547, 96.390, 718.0, 26.7955
64.409129112, 96.390, 654.0, 25.5734
64.435389678, 96.390, 698.0, 26.4197
64.461650243, 96.390, 700.0, 26.4575
64.487910808, 96.390, 693.0, 26.3249
64.514171374, 96.390, 642.0, 25.3377
64.540431939, 96.390, 659.0, 25.6710
64.566692504, 96.390, 731.0, 27.0370
64.592953070, 96.390, 690.0, 26.2679
64.619213635, 96.390, 759.0, 27.5500
64.645474200, 96.390, 718.0, 26.7955
64.671734766, 96.390, 693.0, 26.3249
64.697995331, 96.390, 636.0, 25.2190
64.724255896, 96.390, 652.0, 25.5343
64.750516462, 96.390, 715.0, 26.7395
64.776777027, 96.390, 718.0, 26.7955
64.803037593, 96.390, 694.0, 26.3439
64.829298158, 96.390, 685.0, 26.1725
64.855558723, 96.390, 705.0, 26.5518
64.881819289, 96.390, 718.0, 26.7955
64.908079854, 96.390, 636.0, 25.2190
64.934340419, 96.390, 772.0, 27.7849
64.960600985, 96.390, 685.0, 26.1725
64.986861550, 96.390, 700.0, 26.4575
