[Measurement conditions]
Sample identification,PAxialnul_Act12Feb23_B1_0833M_NaOH_LS0153_Num158
Comment - 1,"Configuration=Stage for Flat Samples/Holders, Owner=nmw10, Creation date=9/21/2022 10:06:30 AM"
Comment - 2,"Goniometer=Theta/Theta; Minimum step size 2Theta:0.0001; Minimum step size Omega:0.0001"
Comment - 3,"Sample stage=Stage for flat samples/holders"
Comment - 4,"Diffractometer system=EMPYREAN"
Comment - 5,"Measurement program=X:\XRD\Cement\Zerobackground scan.xrdmp, Created identifier={98A3B11C-88F9-4AA6-982C-73314A311EF5}, Created by=Titus Reed, Id=tmr79, Creation date=10/26/2021 3:01:47 PM"
Anode material,Cu
K-Alpha1 wavelength,1.5405980
K-Alpha2 wavelength,1.5444260
Ratio K-Alpha2/K-Alpha1,0.500
Divergence slit,Fixed,0.25
Monochromator used,NO
Generator voltage, 45
Tube current, 40
File date and time,15/Mar/2023 20:36
Unit cell,
h k l, 0 0 0
Scan axis,Gonio
Scan range,4.994599997,64.999991833
Scan step size,0.0262606
No. of points, 2285
Scan type,CONTINUOUS
Time per step,96.390
[Scan points]
Angle, TimePerStep, Intensity, ESD
5.007730280, 96.390, 4089.0, 63.9453
5.033990845, 96.390, 4146.0, 64.3894
5.060251411, 96.390, 4190.0, 64.7302
5.086511976, 96.390, 4161.0, 64.5058
5.112772541, 96.390, 4077.0, 63.8514
5.139033107, 96.390, 4082.0, 63.8905
5.165293672, 96.390, 4035.0, 63.5216
5.191554237, 96.390, 4018.0, 63.3877
5.217814803, 96.390, 3967.0, 62.9841
5.244075368, 96.390, 4075.0, 63.8357
5.270335934, 96.390, 3954.0, 62.8808
5.296596499, 96.390, 4023.0, 63.4271
5.322857064, 96.390, 4046.0, 63.6082
5.349117630, 96.390, 3902.0, 62.4660
5.375378195, 96.390, 3870.0, 62.2093
5.401638760, 96.390, 3953.0, 62.8729
5.427899326, 96.390, 3843.0, 61.9919
5.454159891, 96.390, 3777.0, 61.4573
5.480420456, 96.390, 3916.0, 62.5780
5.506681022, 96.390, 3831.0, 61.8951
5.532941587, 96.390, 3842.0, 61.9839
5.559202152, 96.390, 3748.0, 61.2209
5.585462718, 96.390, 3755.0, 61.2781
5.611723283, 96.390, 3702.0, 60.8441
5.637983849, 96.390, 3676.0, 60.6300
5.664244414, 96.390, 3589.0, 59.9083
5.690504979, 96.390, 3710.0, 60.9098
5.716765545, 96.390, 3735.0, 61.1146
5.743026110, 96.390, 3652.0, 60.4318
5.769286675, 96.390, 3681.0, 60.6712
5.795547241, 96.390, 3666.0, 60.5475
5.821807806, 96.390, 3756.0, 61.2862
5.848068371, 96.390, 3588.0, 59.8999
5.874328937, 96.390, 3606.0, 60.0500
5.900589502, 96.390, 3675.0, 60.6218
5.926850067, 96.390, 3696.0, 60.7947
5.953110633, 96.390, 3557.0, 59.6406
5.979371198, 96.390, 3662.0, 60.5145
6.005631763, 96.390, 3645.0, 60.3738
6.031892329, 96.390, 3586.0, 59.8832
6.058152894, 96.390, 3715.0, 60.9508
6.084413460, 96.390, 3714.0, 60.9426
6.110674025, 96.390, 3539.0, 59.4895
6.136934590, 96.390, 3557.0, 59.6406
6.163195156, 96.390, 3663.0, 60.5227
6.189455721, 96.390, 3659.0, 60.4897
6.215716286, 96.390, 3561.0, 59.6741
6.241976852, 96.390, 3591.0, 59.9250
6.268237417, 96.390, 3509.0, 59.2368
6.294497982, 96.390, 3573.0, 59.7746
6.320758548, 96.390, 3532.0, 59.4306
6.347019113, 96.390, 3702.0, 60.8441
6.373279678, 96.390, 3502.0, 59.1777
6.399540244, 96.390, 3618.0, 60.1498
6.425800809, 96.390, 3586.0, 59.8832
6.452061375, 96.390, 3532.0, 59.4306
6.478321940, 96.390, 3679.0, 60.6548
6.504582505, 96.390, 3509.0, 59.2368
6.530843071, 96.390, 3593.0, 59.9416
6.557103636, 96.390, 3619.0, 60.1581
6.583364201, 96.390, 3518.0, 59.3127
6.609624767, 96.390, 3548.0, 59.5651
6.635885332, 96.390, 3646.0, 60.3821
6.662145897, 96.390, 3537.0, 59.4727
6.688406463, 96.390, 3492.0, 59.0931
6.714667028, 96.390, 3539.0, 59.4895
6.740927593, 96.390, 3571.0, 59.7578
6.767188159, 96.390, 3555.0, 59.6238
6.793448724, 96.390, 3623.0, 60.1914
6.819709289, 96.390, 3452.0, 58.7537
6.845969855, 96.390, 3677.0, 60.6383
6.872230420, 96.390, 3481.0, 59.0000
6.898490986, 96.390, 3654.0, 60.4483
6.924751551, 96.390, 3579.0, 59.8247
6.951012116, 96.390, 3539.0, 59.4895
6.977272682, 96.390, 3682.0, 60.6795
7.003533247, 96.390, 3551.0, 59.5903
7.029793812, 96.390, 3613.0, 60.1082
7.056054378, 96.390, 3433.0, 58.5918
7.082314943, 96.390, 3589.0, 59.9083
7.108575508, 96.390, 3562.0, 59.6825
7.134836074, 96.390, 3568.0, 59.7327
7.161096639, 96.390, 3560.0, 59.6657
7.187357204, 96.390, 3539.0, 59.4895
7.213617770, 96.390, 3626.0, 60.2163
7.239878335, 96.390, 3610.0, 60.0833
7.266138900, 96.390, 3723.0, 61.0164
7.292399466, 96.390, 3703.0, 60.8523
7.318660031, 96.390, 3615.0, 60.1249
7.344920597, 96.390, 3687.0, 60.7207
7.371181162, 96.390, 3730.0, 61.0737
7.397441727, 96.390, 3621.0, 60.1747
7.423702293, 96.390, 3677.0, 60.6383
7.449962858, 96.390, 3859.0, 62.1208
7.476223423, 96.390, 3758.0, 61.3025
7.502483989, 96.390, 3826.0, 61.8547
7.528744554, 96.390, 3803.0, 61.6685
7.555005119, 96.390, 3820.0, 61.8061
7.581265685, 96.390, 3943.0, 62.7933
7.607526250, 96.390, 3954.0, 62.8808
7.633786815, 96.390, 3997.0, 63.2218
7.660047381, 96.390, 4046.0, 63.6082
7.686307946, 96.390, 4129.0, 64.2573
7.712568512, 96.390, 4091.0, 63.9609
7.738829077, 96.390, 4288.0, 65.4828
7.765089642, 96.390, 4250.0, 65.1920
7.791350208, 96.390, 4461.0, 66.7907
7.817610773, 96.390, 4412.0, 66.4229
7.843871338, 96.390, 4486.0, 66.9776
7.870131904, 96.390, 4614.0, 67.9264
7.896392469, 96.390, 4724.0, 68.7314
7.922653034, 96.390, 5000.0, 70.7107
7.948913600, 96.390, 5022.0, 70.8661
7.975174165, 96.390, 5259.0, 72.5190
8.001434730, 96.390, 5384.0, 73.3757
8.027695296, 96.390, 5592.0, 74.7797
8.053955861, 96.390, 5761.0, 75.9013
8.080216426, 96.390, 5964.0, 77.2269
8.106476992, 96.390, 6293.0, 79.3284
8.132737557, 96.390, 6278.0, 79.2338
8.158998123, 96.390, 6708.0, 81.9024
8.185258688, 96.390, 6827.0, 82.6257
8.211519253, 96.390, 7125.0, 84.4097
8.237779819, 96.390, 7421.0, 86.1452
8.264040384, 96.390, 7511.0, 86.6660
8.290300949, 96.390, 7747.0, 88.0170
8.316561515, 96.390, 7739.0, 87.9716
8.342822080, 96.390, 7985.0, 89.3588
8.369082645, 96.390, 8033.0, 89.6270
8.395343211, 96.390, 8030.0, 89.6103
8.421603776, 96.390, 7764.0, 88.1136
8.447864341, 96.390, 7871.0, 88.7187
8.474124907, 96.390, 7634.0, 87.3728
8.500385472, 96.390, 7555.0, 86.9195
8.526646038, 96.390, 7262.0, 85.2174
8.552906603, 96.390, 7319.0, 85.5512
8.579167168, 96.390, 6950.0, 83.3667
8.605427734, 96.390, 6771.0, 82.2861
8.631688299, 96.390, 6589.0, 81.1727
8.657948864, 96.390, 6536.0, 80.8455
8.684209430, 96.390, 6860.0, 82.8251
8.710469995, 96.390, 6696.0, 81.8291
8.736730560, 96.390, 6545.0, 80.9012
8.762991126, 96.390, 6391.0, 79.9437
8.789251691, 96.390, 6004.0, 77.4855
8.815512256, 96.390, 5814.0, 76.2496
8.841772822, 96.390, 5488.0, 74.0810
8.868033387, 96.390, 5186.0, 72.0139
8.894293952, 96.390, 5186.0, 72.0139
8.920554518, 96.390, 4869.0, 69.7782
8.946815083, 96.390, 4788.0, 69.1954
8.973075649, 96.390, 4562.0, 67.5426
8.999336214, 96.390, 4570.0, 67.6018
9.025596779, 96.390, 4535.0, 67.3424
9.051857345, 96.390, 4285.0, 65.4599
9.078117910, 96.390, 4330.0, 65.8027
9.104378475, 96.390, 4160.0, 64.4981
9.130639041, 96.390, 4347.0, 65.9318
9.156899606, 96.390, 4310.0, 65.6506
9.183160171, 96.390, 4176.0, 64.6220
9.209420737, 96.390, 4152.0, 64.4360
9.235681302, 96.390, 4128.0, 64.2495
9.261941867, 96.390, 4061.0, 63.7260
9.288202433, 96.390, 3855.0, 62.0886
9.314462998, 96.390, 3956.0, 62.8967
9.340723564, 96.390, 3805.0, 61.6847
9.366984129, 96.390, 3770.0, 61.4003
9.393244694, 96.390, 3889.0, 62.3618
9.419505260, 96.390, 3840.0, 61.9677
9.445765825, 96.390, 3715.0, 60.9508
9.472026390, 96.390, 3663.0, 60.5227
9.498286956, 96.390, 3701.0, 60.8358
9.524547521, 96.390, 3647.0, 60.3904
9.550808086, 96.390, 3668.0, 60.5640
9.577068652, 96.390, 3720.0, 60.9918
9.603329217, 96.390, 3550.0, 59.5819
9.629589782, 96.390, 3581.0, 59.8415
9.655850348, 96.390, 3480.0, 58.9915
9.682110913, 96.390, 3610.0, 60.0833
9.708371478, 96.390, 3422.0, 58.4979
9.734632044, 96.390, 3427.0, 58.5406
9.760892609, 96.390, 3380.0, 58.1378
9.787153175, 96.390, 3397.0, 58.2838
9.813413740, 96.390, 3393.0, 58.2495
9.839674305, 96.390, 3284.0, 57.3062
9.865934871, 96.390, 3362.0, 57.9828
9.892195436, 96.390, 3365.0, 58.0086
9.918456001, 96.390, 3395.0, 58.2666
9.944716567, 96.390, 3259.0, 57.0877
9.970977132, 96.390, 3220.0, 56.7450
9.997237697, 96.390, 3292.0, 57.3760
10.023498263, 96.390, 3260.0, 57.0964
10.049758828, 96.390, 3318.0, 57.6021
10.076019393, 96.390, 3124.0, 55.8928
10.102279959, 96.390, 3203.0, 56.5951
10.128540524, 96.390, 3111.0, 55.7763
10.154801090, 96.390, 3141.0, 56.0446
10.181061655, 96.390, 3111.0, 55.7763
10.207322220, 96.390, 3068.0, 55.3895
10.233582786, 96.390, 3048.0, 55.2087
10.259843351, 96.390, 3076.0, 55.4617
10.286103916, 96.390, 2931.0, 54.1387
10.312364482, 96.390, 2963.0, 54.4334
10.338625047, 96.390, 2990.0, 54.6809
10.364885612, 96.390, 2976.0, 54.5527
10.391146178, 96.390, 3015.0, 54.9090
10.417406743, 96.390, 3013.0, 54.8908
10.443667308, 96.390, 2909.0, 53.9351
10.469927874, 96.390, 2863.0, 53.5070
10.496188439, 96.390, 2946.0, 54.2771
10.522449004, 96.390, 2875.0, 53.6190
10.548709570, 96.390, 2946.0, 54.2771
10.574970135, 96.390, 2879.0, 53.6563
10.601230701, 96.390, 2973.0, 54.5252
10.627491266, 96.390, 2884.0, 53.7029
10.653751831, 96.390, 2835.0, 53.2447
10.680012397, 96.390, 2756.0, 52.4976
10.706272962, 96.390, 2783.0, 52.7541
10.732533527, 96.390, 2846.0, 53.3479
10.758794093, 96.390, 2754.0, 52.4786
10.785054658, 96.390, 2825.0, 53.1507
10.811315223, 96.390, 2764.0, 52.5738
10.837575789, 96.390, 2819.0, 53.0943
10.863836354, 96.390, 2735.0, 52.2972
10.890096919, 96.390, 2738.0, 52.3259
10.916357485, 96.390, 2909.0, 53.9351
10.942618050, 96.390, 2708.0, 52.0384
10.968878616, 96.390, 2888.0, 53.7401
10.995139181, 96.390, 2873.0, 53.6004
11.021399746, 96.390, 2912.0, 53.9630
11.047660312, 96.390, 2925.0, 54.0833
11.073920877, 96.390, 3021.0, 54.9636
11.100181442, 96.390, 3156.0, 56.1783
11.126442008, 96.390, 3170.0, 56.3028
11.152702573, 96.390, 3579.0, 59.8247
11.178963138, 96.390, 3645.0, 60.3738
11.205223704, 96.390, 3997.0, 63.2218
11.231484269, 96.390, 3490.0, 59.0762
11.257744834, 96.390, 2896.0, 53.8145
11.284005400, 96.390, 2677.0, 51.7397
11.310265965, 96.390, 2701.0, 51.9711
11.336526530, 96.390, 2612.0, 51.1077
11.362787096, 96.390, 2700.0, 51.9615
11.389047661, 96.390, 2632.0, 51.3030
11.415308227, 96.390, 2754.0, 52.4786
11.441568792, 96.390, 2638.0, 51.3615
11.467829357, 96.390, 2650.0, 51.4782
11.494089923, 96.390, 2685.0, 51.8170
11.520350488, 96.390, 2648.0, 51.4587
11.546611053, 96.390, 2603.0, 51.0196
11.572871619, 96.390, 2536.0, 50.3587
11.599132184, 96.390, 2596.0, 50.9510
11.625392749, 96.390, 2653.0, 51.5073
11.651653315, 96.390, 2630.0, 51.2835
11.677913880, 96.390, 2487.0, 49.8698
11.704174445, 96.390, 2587.0, 50.8626
11.730435011, 96.390, 2557.0, 50.5668
11.756695576, 96.390, 2494.0, 49.9400
11.782956141, 96.390, 2540.0, 50.3984
11.809216707, 96.390, 2526.0, 50.2593
11.835477272, 96.390, 2645.0, 51.4296
11.861737838, 96.390, 2500.0, 50.0000
11.887998403, 96.390, 2517.0, 50.1697
11.914258968, 96.390, 2570.0, 50.6952
11.940519534, 96.390, 2503.0, 50.0300
11.966780099, 96.390, 2517.0, 50.1697
11.993040664, 96.390, 2574.0, 50.7346
12.019301230, 96.390, 2514.0, 50.1398
12.045561795, 96.390, 2408.0, 49.0714
12.071822360, 96.390, 2536.0, 50.3587
12.098082926, 96.390, 2451.0, 49.5076
12.124343491, 96.390, 2541.0, 50.4083
12.150604056, 96.390, 2465.0, 49.6488
12.176864622, 96.390, 2456.0, 49.5580
12.203125187, 96.390, 2392.0, 48.9081
12.229385753, 96.390, 2510.0, 50.0999
12.255646318, 96.390, 2425.0, 49.2443
12.281906883, 96.390, 2446.0, 49.4571
12.308167449, 96.390, 2481.0, 49.8096
12.334428014, 96.390, 2384.0, 48.8262
12.360688579, 96.390, 2355.0, 48.5283
12.386949145, 96.390, 2359.0, 48.5695
12.413209710, 96.390, 2370.0, 48.6826
12.439470275, 96.390, 2407.0, 49.0612
12.465730841, 96.390, 2293.0, 47.8853
12.491991406, 96.390, 2441.0, 49.4065
12.518251971, 96.390, 2374.0, 48.7237
12.544512537, 96.390, 2350.0, 48.4768
12.570773102, 96.390, 2434.0, 49.3356
12.597033667, 96.390, 2534.0, 50.3389
12.623294233, 96.390, 2493.0, 49.9300
12.649554798, 96.390, 2591.0, 50.9019
12.675815364, 96.390, 2604.0, 51.0294
12.702075929, 96.390, 2721.0, 52.1632
12.728336494, 96.390, 2862.0, 53.4977
12.754597060, 96.390, 3104.0, 55.7136
12.780857625, 96.390, 3528.0, 59.3970
12.807118190, 96.390, 3578.0, 59.8164
12.833378756, 96.390, 3228.0, 56.8155
12.859639321, 96.390, 2655.0, 51.5267
12.885899886, 96.390, 2406.0, 49.0510
12.912160452, 96.390, 2293.0, 47.8853
12.938421017, 96.390, 2313.0, 48.0937
12.964681582, 96.390, 2280.0, 47.7493
12.990942148, 96.390, 2328.0, 48.2494
13.017202713, 96.390, 2264.0, 47.5815
13.043463279, 96.390, 2292.0, 47.8748
13.069723844, 96.390, 2210.0, 47.0106
13.095984409, 96.390, 2269.0, 47.6340
13.122244975, 96.390, 2241.0, 47.3392
13.148505540, 96.390, 2203.0, 46.9361
13.174766105, 96.390, 2228.0, 47.2017
13.201026671, 96.390, 2266.0, 47.6025
13.227287236, 96.390, 2353.0, 48.5077
13.253547801, 96.390, 2250.0, 47.4342
13.279808367, 96.390, 2302.0, 47.9792
13.306068932, 96.390, 2355.0, 48.5283
13.332329497, 96.390, 2425.0, 49.2443
13.358590063, 96.390, 2500.0, 50.0000
13.384850628, 96.390, 2975.0, 54.5436
13.411111193, 96.390, 3015.0, 54.9090
13.437371759, 96.390, 3462.0, 58.8388
13.463632324, 96.390, 4106.0, 64.0781
13.489892890, 96.390, 4472.0, 66.8730
13.516153455, 96.390, 4904.0, 70.0286
13.542414020, 96.390, 4894.0, 69.9571
13.568674586, 96.390, 3726.0, 61.0410
13.594935151, 96.390, 2766.0, 52.5928
13.621195716, 96.390, 2345.0, 48.4252
13.647456282, 96.390, 2290.0, 47.8539
13.673716847, 96.390, 2283.0, 47.7807
13.699977412, 96.390, 2348.0, 48.4562
13.726237978, 96.390, 2384.0, 48.8262
13.752498543, 96.390, 2369.0, 48.6724
13.778759108, 96.390, 2442.0, 49.4166
13.805019674, 96.390, 2694.0, 51.9038
13.831280239, 96.390, 2782.0, 52.7447
13.857540805, 96.390, 3126.0, 55.9106
13.883801370, 96.390, 3197.0, 56.5420
13.910061935, 96.390, 2781.0, 52.7352
13.936322501, 96.390, 2446.0, 49.4571
13.962583066, 96.390, 2244.0, 47.3709
13.988843631, 96.390, 2238.0, 47.3075
14.015104197, 96.390, 2187.0, 46.7654
14.041364762, 96.390, 2141.0, 46.2709
14.067625327, 96.390, 2206.0, 46.9681
14.093885893, 96.390, 2069.0, 45.4863
14.120146458, 96.390, 2045.0, 45.2217
14.146407023, 96.390, 2167.0, 46.5510
14.172667589, 96.390, 2206.0, 46.9681
14.198928154, 96.390, 2230.0, 47.2229
14.225188719, 96.390, 2186.0, 46.7547
14.251449285, 96.390, 2317.0, 48.1352
14.277709850, 96.390, 2428.0, 49.2747
14.303970416, 96.390, 2500.0, 50.0000
14.330230981, 96.390, 2776.0, 52.6878
14.356491546, 96.390, 3082.0, 55.5158
14.382752112, 96.390, 3378.0, 58.1206
14.409012677, 96.390, 3022.0, 54.9727
14.435273242, 96.390, 2597.0, 50.9608
14.461533808, 96.390, 2225.0, 47.1699
14.487794373, 96.390, 2150.0, 46.3681
14.514054938, 96.390, 2109.0, 45.9239
14.540315504, 96.390, 2026.0, 45.0111
14.566576069, 96.390, 2090.0, 45.7165
14.592836634, 96.390, 2036.0, 45.1221
14.619097200, 96.390, 2069.0, 45.4863
14.645357765, 96.390, 2106.0, 45.8912
14.671618331, 96.390, 1981.0, 44.5084
14.697878896, 96.390, 1967.0, 44.3509
14.724139461, 96.390, 1922.0, 43.8406
14.750400027, 96.390, 2000.0, 44.7214
14.776660592, 96.390, 2071.0, 45.5082
14.802921157, 96.390, 1965.0, 44.3283
14.829181723, 96.390, 1908.0, 43.6807
14.855442288, 96.390, 1934.0, 43.9773
14.881702853, 96.390, 2037.0, 45.1331
14.907963419, 96.390, 2046.0, 45.2327
14.934223984, 96.390, 2024.0, 44.9889
14.960484549, 96.390, 2028.0, 45.0333
14.986745115, 96.390, 2056.0, 45.3431
15.013005680, 96.390, 2036.0, 45.1221
15.039266245, 96.390, 2061.0, 45.3982
15.065526811, 96.390, 2063.0, 45.4203
15.091787376, 96.390, 2116.0, 46.0000
15.118047942, 96.390, 2075.0, 45.5522
15.144308507, 96.390, 2121.0, 46.0543
15.170569072, 96.390, 2093.0, 45.7493
15.196829638, 96.390, 2083.0, 45.6399
15.223090203, 96.390, 2096.0, 45.7821
15.249350768, 96.390, 2016.0, 44.8999
15.275611334, 96.390, 2070.0, 45.4973
15.301871899, 96.390, 1991.0, 44.6206
15.328132464, 96.390, 1981.0, 44.5084
15.354393030, 96.390, 1955.0, 44.2154
15.380653595, 96.390, 1989.0, 44.5982
15.406914160, 96.390, 2042.0, 45.1885
15.433174726, 96.390, 2010.0, 44.8330
15.459435291, 96.390, 1984.0, 44.5421
15.485695857, 96.390, 1924.0, 43.8634
15.511956422, 96.390, 1992.0, 44.6318
15.538216987, 96.390, 2021.0, 44.9555
15.564477553, 96.390, 1949.0, 44.1475
15.590738118, 96.390, 2051.0, 45.2880
15.616998683, 96.390, 1949.0, 44.1475
15.643259249, 96.390, 2034.0, 45.0999
15.669519814, 96.390, 1987.0, 44.5758
15.695780379, 96.390, 1843.0, 42.9302
15.722040945, 96.390, 1922.0, 43.8406
15.748301510, 96.390, 1961.0, 44.2832
15.774562075, 96.390, 1949.0, 44.1475
15.800822641, 96.390, 1914.0, 43.7493
15.827083206, 96.390, 1965.0, 44.3283
15.853343771, 96.390, 2089.0, 45.7056
15.879604337, 96.390, 1901.0, 43.6005
15.905864902, 96.390, 1955.0, 44.2154
15.932125468, 96.390, 2038.0, 45.1442
15.958386033, 96.390, 2146.0, 46.3249
15.984646598, 96.390, 2240.0, 47.3286
16.010907164, 96.390, 2296.0, 47.9166
16.037167729, 96.390, 2566.0, 50.6557
16.063428294, 96.390, 2758.0, 52.5167
16.089688860, 96.390, 3234.0, 56.8683
16.115949425, 96.390, 3636.0, 60.2993
16.142209990, 96.390, 4272.0, 65.3605
16.168470556, 96.390, 3845.0, 62.0081
16.194731121, 96.390, 3325.0, 57.6628
16.220991686, 96.390, 2531.0, 50.3090
16.247252252, 96.390, 2191.0, 46.8081
16.273512817, 96.390, 2163.0, 46.5081
16.299773382, 96.390, 2040.0, 45.1664
16.326033948, 96.390, 2028.0, 45.0333
16.352294513, 96.390, 2038.0, 45.1442
16.378555079, 96.390, 1991.0, 44.6206
16.404815644, 96.390, 2057.0, 45.3542
16.431076209, 96.390, 1996.0, 44.6766
16.457336775, 96.390, 1977.0, 44.4635
16.483597340, 96.390, 1948.0, 44.1362
16.509857905, 96.390, 2049.0, 45.2659
16.536118471, 96.390, 2071.0, 45.5082
16.562379036, 96.390, 1940.0, 44.0454
16.588639601, 96.390, 2026.0, 45.0111
16.614900167, 96.390, 2097.0, 45.7930
16.641160732, 96.390, 2087.0, 45.6837
16.667421297, 96.390, 2031.0, 45.0666
16.693681863, 96.390, 2104.0, 45.8694
16.719942428, 96.390, 2052.0, 45.2990
16.746202994, 96.390, 2042.0, 45.1885
16.772463559, 96.390, 2141.0, 46.2709
16.798724124, 96.390, 2138.0, 46.2385
16.824984690, 96.390, 2177.0, 46.6583
16.851245255, 96.390, 2035.0, 45.1110
16.877505820, 96.390, 2168.0, 46.5618
16.903766386, 96.390, 2147.0, 46.3357
16.930026951, 96.390, 2075.0, 45.5522
16.956287516, 96.390, 2209.0, 47.0000
16.982548082, 96.390, 2236.0, 47.2864
17.008808647, 96.390, 2136.0, 46.2169
17.035069212, 96.390, 2185.0, 46.7440
17.061329778, 96.390, 2187.0, 46.7654
17.087590343, 96.390, 2170.0, 46.5833
17.113850908, 96.390, 2166.0, 46.5403
17.140111474, 96.390, 2212.0, 47.0319
17.166372039, 96.390, 2210.0, 47.0106
17.192632605, 96.390, 2195.0, 46.8508
17.218893170, 96.390, 2249.0, 47.4236
17.245153735, 96.390, 2270.0, 47.6445
17.271414301, 96.390, 2309.0, 48.0521
17.297674866, 96.390, 2283.0, 47.7807
17.323935431, 96.390, 2217.0, 47.0850
17.350195997, 96.390, 2310.0, 48.0625
17.376456562, 96.390, 2373.0, 48.7134
17.402717127, 96.390, 2415.0, 49.1426
17.428977693, 96.390, 2415.0, 49.1426
17.455238258, 96.390, 2462.0, 49.6185
17.481498823, 96.390, 2470.0, 49.6991
17.507759389, 96.390, 2614.0, 51.1273
17.534019954, 96.390, 2594.0, 50.9313
17.560280520, 96.390, 2473.0, 49.7293
17.586541085, 96.390, 2488.0, 49.8799
17.612801650, 96.390, 2358.0, 48.5592
17.639062216, 96.390, 2446.0, 49.4571
17.665322781, 96.390, 2374.0, 48.7237
17.691583346, 96.390, 2365.0, 48.6313
17.717843912, 96.390, 2467.0, 49.6689
17.744104477, 96.390, 2292.0, 47.8748
17.770365042, 96.390, 2339.0, 48.3632
17.796625608, 96.390, 2254.0, 47.4763
17.822886173, 96.390, 2263.0, 47.5710
17.849146738, 96.390, 2224.0, 47.1593
17.875407304, 96.390, 2280.0, 47.7493
17.901667869, 96.390, 2092.0, 45.7384
17.927928434, 96.390, 2153.0, 46.4004
17.954189000, 96.390, 2158.0, 46.4543
17.980449565, 96.390, 2155.0, 46.4220
18.006710131, 96.390, 2201.0, 46.9148
18.032970696, 96.390, 2178.0, 46.6690
18.059231261, 96.390, 2151.0, 46.3789
18.085491827, 96.390, 2104.0, 45.8694
18.111752392, 96.390, 2088.0, 45.6946
18.138012957, 96.390, 2143.0, 46.2925
18.164273523, 96.390, 2146.0, 46.3249
18.190534088, 96.390, 2066.0, 45.4533
18.216794653, 96.390, 1954.0, 44.2041
18.243055219, 96.390, 2036.0, 45.1221
18.269315784, 96.390, 2074.0, 45.5412
18.295576349, 96.390, 2136.0, 46.2169
18.321836915, 96.390, 2146.0, 46.3249
18.348097480, 96.390, 2102.0, 45.8476
18.374358046, 96.390, 2122.0, 46.0652
18.400618611, 96.390, 2190.0, 46.7974
18.426879176, 96.390, 2136.0, 46.2169
18.453139742, 96.390, 2109.0, 45.9239
18.479400307, 96.390, 2099.0, 45.8148
18.505660872, 96.390, 2082.0, 45.6289
18.531921438, 96.390, 2064.0, 45.4313
18.558182003, 96.390, 2031.0, 45.0666
18.584442568, 96.390, 1966.0, 44.3396
18.610703134, 96.390, 2061.0, 45.3982
18.636963699, 96.390, 2099.0, 45.8148
18.663224264, 96.390, 2062.0, 45.4093
18.689484830, 96.390, 2070.0, 45.4973
18.715745395, 96.390, 2042.0, 45.1885
18.742005960, 96.390, 2091.0, 45.7275
18.768266526, 96.390, 2122.0, 46.0652
18.794527091, 96.390, 2073.0, 45.5302
18.820787657, 96.390, 2057.0, 45.3542
18.847048222, 96.390, 2072.0, 45.5192
18.873308787, 96.390, 2223.0, 47.1487
18.899569353, 96.390, 2175.0, 46.6369
18.925829918, 96.390, 2171.0, 46.5940
18.952090483, 96.390, 2091.0, 45.7275
18.978351049, 96.390, 2112.0, 45.9565
19.004611614, 96.390, 2114.0, 45.9783
19.030872179, 96.390, 2043.0, 45.1996
19.057132745, 96.390, 2073.0, 45.5302
19.083393310, 96.390, 2052.0, 45.2990
19.109653875, 96.390, 2037.0, 45.1331
19.135914441, 96.390, 2000.0, 44.7214
19.162175006, 96.390, 2067.0, 45.4643
19.188435572, 96.390, 2061.0, 45.3982
19.214696137, 96.390, 1982.0, 44.5197
19.240956702, 96.390, 2040.0, 45.1664
19.267217268, 96.390, 2085.0, 45.6618
19.293477833, 96.390, 1981.0, 44.5084
19.319738398, 96.390, 2022.0, 44.9667
19.345998964, 96.390, 2068.0, 45.4753
19.372259529, 96.390, 2020.0, 44.9444
19.398520094, 96.390, 2076.0, 45.5631
19.424780660, 96.390, 2028.0, 45.0333
19.451041225, 96.390, 2063.0, 45.4203
19.477301790, 96.390, 2105.0, 45.8803
19.503562356, 96.390, 2068.0, 45.4753
19.529822921, 96.390, 2045.0, 45.2217
19.556083486, 96.390, 2027.0, 45.0222
19.582344052, 96.390, 2062.0, 45.4093
19.608604617, 96.390, 2065.0, 45.4423
19.634865183, 96.390, 2121.0, 46.0543
19.661125748, 96.390, 2181.0, 46.7012
19.687386313, 96.390, 2048.0, 45.2548
19.713646879, 96.390, 2025.0, 45.0000
19.739907444, 96.390, 2134.0, 46.1952
19.766168009, 96.390, 2067.0, 45.4643
19.792428575, 96.390, 2113.0, 45.9674
19.818689140, 96.390, 2179.0, 46.6798
19.844949705, 96.390, 2221.0, 47.1275
19.871210271, 96.390, 2274.0, 47.6865
19.897470836, 96.390, 2444.0, 49.4368
19.923731401, 96.390, 2596.0, 50.9510
19.949991967, 96.390, 2981.0, 54.5985
19.976252532, 96.390, 3371.0, 58.0603
20.002513098, 96.390, 3758.0, 61.3025
20.028773663, 96.390, 4071.0, 63.8044
20.055034228, 96.390, 4351.0, 65.9621
20.081294794, 96.390, 4586.0, 67.7200
20.107555359, 96.390, 5158.0, 71.8192
20.133815924, 96.390, 5836.0, 76.3937
20.160076490, 96.390, 6705.0, 81.8841
20.186337055, 96.390, 6846.0, 82.7406
20.212597620, 96.390, 5633.0, 75.0533
20.238858186, 96.390, 4591.0, 67.7569
20.265118751, 96.390, 3412.0, 58.4123
20.291379316, 96.390, 2704.0, 52.0000
20.317639882, 96.390, 2498.0, 49.9800
20.343900447, 96.390, 2449.0, 49.4874
20.370161012, 96.390, 2263.0, 47.5710
20.396421578, 96.390, 2127.0, 46.1194
20.422682143, 96.390, 2084.0, 45.6508
20.448942709, 96.390, 2067.0, 45.4643
20.475203274, 96.390, 1972.0, 44.4072
20.501463839, 96.390, 2024.0, 44.9889
20.527724405, 96.390, 2039.0, 45.1553
20.553984970, 96.390, 2007.0, 44.7996
20.580245535, 96.390, 2033.0, 45.0888
20.606506101, 96.390, 2013.0, 44.8665
20.632766666, 96.390, 2028.0, 45.0333
20.659027231, 96.390, 1958.0, 44.2493
20.685287797, 96.390, 1905.0, 43.6463
20.711548362, 96.390, 1978.0, 44.4747
20.737808927, 96.390, 1958.0, 44.2493
20.764069493, 96.390, 1943.0, 44.0795
20.790330058, 96.390, 1986.0, 44.5646
20.816590623, 96.390, 2049.0, 45.2659
20.842851189, 96.390, 1939.0, 44.0341
20.869111754, 96.390, 1929.0, 43.9204
20.895372320, 96.390, 1964.0, 44.3170
20.921632885, 96.390, 1967.0, 44.3509
20.947893450, 96.390, 1892.0, 43.4971
20.974154016, 96.390, 1984.0, 44.5421
21.000414581, 96.390, 2008.0, 44.8107
21.026675146, 96.390, 1958.0, 44.2493
21.052935712, 96.390, 1956.0, 44.2267
21.079196277, 96.390, 1987.0, 44.5758
21.105456842, 96.390, 2055.0, 45.3321
21.131717408, 96.390, 1995.0, 44.6654
21.157977973, 96.390, 2032.0, 45.0777
21.184238538, 96.390, 2076.0, 45.5631
21.210499104, 96.390, 2092.0, 45.7384
21.236759669, 96.390, 2112.0, 45.9565
21.263020235, 96.390, 2239.0, 47.3181
21.289280800, 96.390, 2112.0, 45.9565
21.315541365, 96.390, 2119.0, 46.0326
21.341801931, 96.390, 2145.0, 46.3141
21.368062496, 96.390, 2160.0, 46.4758
21.394323061, 96.390, 2166.0, 46.5403
21.420583627, 96.390, 2135.0, 46.2061
21.446844192, 96.390, 2045.0, 45.2217
21.473104757, 96.390, 2010.0, 44.8330
21.499365323, 96.390, 1971.0, 44.3959
21.525625888, 96.390, 1989.0, 44.5982
21.551886453, 96.390, 1960.0, 44.2719
21.578147019, 96.390, 1963.0, 44.3058
21.604407584, 96.390, 2008.0, 44.8107
21.630668149, 96.390, 2041.0, 45.1774
21.656928715, 96.390, 1907.0, 43.6692
21.683189280, 96.390, 1997.0, 44.6878
21.709449846, 96.390, 2050.0, 45.2769
21.735710411, 96.390, 1964.0, 44.3170
21.761970976, 96.390, 1976.0, 44.4522
21.788231542, 96.390, 2046.0, 45.2327
21.814492107, 96.390, 1966.0, 44.3396
21.840752672, 96.390, 2048.0, 45.2548
21.867013238, 96.390, 2055.0, 45.3321
21.893273803, 96.390, 2021.0, 44.9555
21.919534368, 96.390, 2054.0, 45.3211
21.945794934, 96.390, 2107.0, 45.9021
21.972055499, 96.390, 1994.0, 44.6542
21.998316064, 96.390, 2019.0, 44.9333
22.024576630, 96.390, 2015.0, 44.8888
22.050837195, 96.390, 2091.0, 45.7275
22.077097761, 96.390, 2094.0, 45.7602
22.103358326, 96.390, 1912.0, 43.7264
22.129618891, 96.390, 2021.0, 44.9555
22.155879457, 96.390, 2001.0, 44.7325
22.182140022, 96.390, 2031.0, 45.0666
22.208400587, 96.390, 1949.0, 44.1475
22.234661153, 96.390, 1987.0, 44.5758
22.260921718, 96.390, 1983.0, 44.5309
22.287182283, 96.390, 2087.0, 45.6837
22.313442849, 96.390, 2073.0, 45.5302
22.339703414, 96.390, 1995.0, 44.6654
22.365963979, 96.390, 2055.0, 45.3321
22.392224545, 96.390, 2076.0, 45.5631
22.418485110, 96.390, 2033.0, 45.0888
22.444745675, 96.390, 2083.0, 45.6399
22.471006241, 96.390, 2082.0, 45.6289
22.497266806, 96.390, 2036.0, 45.1221
22.523527372, 96.390, 2088.0, 45.6946
22.549787937, 96.390, 2123.0, 46.0760
22.576048502, 96.390, 2045.0, 45.2217
22.602309068, 96.390, 2013.0, 44.8665
22.628569633, 96.390, 2056.0, 45.3431
22.654830198, 96.390, 2035.0, 45.1110
22.681090764, 96.390, 2050.0, 45.2769
22.707351329, 96.390, 2011.0, 44.8442
22.733611894, 96.390, 2005.0, 44.7772
22.759872460, 96.390, 2005.0, 44.7772
22.786133025, 96.390, 2024.0, 44.9889
22.812393590, 96.390, 1896.0, 43.5431
22.838654156, 96.390, 2014.0, 44.8776
22.864914721, 96.390, 1935.0, 43.9886
22.891175287, 96.390, 2023.0, 44.9778
22.917435852, 96.390, 2002.0, 44.7437
22.943696417, 96.390, 1961.0, 44.2832
22.969956983, 96.390, 2052.0, 45.2990
22.996217548, 96.390, 1980.0, 44.4972
23.022478113, 96.390, 2059.0, 45.3762
23.048738679, 96.390, 2062.0, 45.4093
23.074999244, 96.390, 2099.0, 45.8148
23.101259809, 96.390, 2032.0, 45.0777
23.127520375, 96.390, 1937.0, 44.0114
23.153780940, 96.390, 2109.0, 45.9239
23.180041505, 96.390, 1959.0, 44.2606
23.206302071, 96.390, 2062.0, 45.4093
23.232562636, 96.390, 1924.0, 43.8634
23.258823201, 96.390, 2007.0, 44.7996
23.285083767, 96.390, 1971.0, 44.3959
23.311344332, 96.390, 2058.0, 45.3652
23.337604898, 96.390, 1998.0, 44.6990
23.363865463, 96.390, 1939.0, 44.0341
23.390126028, 96.390, 1932.0, 43.9545
23.416386594, 96.390, 1896.0, 43.5431
23.442647159, 96.390, 2052.0, 45.2990
23.468907724, 96.390, 1923.0, 43.8520
23.495168290, 96.390, 1953.0, 44.1928
23.521428855, 96.390, 2020.0, 44.9444
23.547689420, 96.390, 1948.0, 44.1362
23.573949986, 96.390, 2000.0, 44.7214
23.600210551, 96.390, 1920.0, 43.8178
23.626471116, 96.390, 1981.0, 44.5084
23.652731682, 96.390, 1925.0, 43.8748
23.678992247, 96.390, 2013.0, 44.8665
23.705252813, 96.390, 1992.0, 44.6318
23.731513378, 96.390, 1998.0, 44.6990
23.757773943, 96.390, 2082.0, 45.6289
23.784034509, 96.390, 2149.0, 46.3573
23.810295074, 96.390, 2238.0, 47.3075
23.836555639, 96.390, 2381.0, 48.7955
23.862816205, 96.390, 2694.0, 51.9038
23.889076770, 96.390, 2748.0, 52.4214
23.915337335, 96.390, 3084.0, 55.5338
23.941597901, 96.390, 2923.0, 54.0648
23.967858466, 96.390, 3020.0, 54.9545
23.994119031, 96.390, 3444.0, 58.6856
24.020379597, 96.390, 3766.0, 61.3677
24.046640162, 96.390, 4400.0, 66.3325
24.072900727, 96.390, 4517.0, 67.2086
24.099161293, 96.390, 3660.0, 60.4979
24.125421858, 96.390, 3256.0, 57.0614
24.151682424, 96.390, 2742.0, 52.3641
24.177942989, 96.390, 2312.0, 48.0833
24.204203554, 96.390, 2058.0, 45.3652
24.230464120, 96.390, 2018.0, 44.9222
24.256724685, 96.390, 1958.0, 44.2493
24.282985250, 96.390, 1914.0, 43.7493
24.309245816, 96.390, 2015.0, 44.8888
24.335506381, 96.390, 1943.0, 44.0795
24.361766946, 96.390, 1932.0, 43.9545
24.388027512, 96.390, 1864.0, 43.1741
24.414288077, 96.390, 1944.0, 44.0908
24.440548642, 96.390, 1953.0, 44.1928
24.466809208, 96.390, 2020.0, 44.9444
24.493069773, 96.390, 1914.0, 43.7493
24.519330338, 96.390, 1991.0, 44.6206
24.545590904, 96.390, 1969.0, 44.3734
24.571851469, 96.390, 1924.0, 43.8634
24.598112035, 96.390, 1914.0, 43.7493
24.624372600, 96.390, 1874.0, 43.2897
24.650633165, 96.390, 1879.0, 43.3474
24.676893731, 96.390, 1982.0, 44.5197
24.703154296, 96.390, 1844.0, 42.9418
24.729414861, 96.390, 1865.0, 43.1856
24.755675427, 96.390, 1904.0, 43.6348
24.781935992, 96.390, 1814.0, 42.5911
24.808196557, 96.390, 1956.0, 44.2267
24.834457123, 96.390, 1907.0, 43.6692
24.860717688, 96.390, 1868.0, 43.2204
24.886978253, 96.390, 1845.0, 42.9535
24.913238819, 96.390, 1786.0, 42.2611
24.939499384, 96.390, 1777.0, 42.1545
24.965759950, 96.390, 1776.0, 42.1426
24.992020515, 96.390, 1809.0, 42.5323
25.018281080, 96.390, 1789.0, 42.2966
25.044541646, 96.390, 1863.0, 43.1625
25.070802211, 96.390, 1750.0, 41.8330
25.097062776, 96.390, 1902.0, 43.6119
25.123323342, 96.390, 1752.0, 41.8569
25.149583907, 96.390, 1764.0, 42.0000
25.175844472, 96.390, 1731.0, 41.6053
25.202105038, 96.390, 1764.0, 42.0000
25.228365603, 96.390, 1791.0, 42.3202
25.254626168, 96.390, 1721.0, 41.4849
25.280886734, 96.390, 1787.0, 42.2729
25.307147299, 96.390, 1776.0, 42.1426
25.333407864, 96.390, 1788.0, 42.2847
25.359668430, 96.390, 1860.0, 43.1277
25.385928995, 96.390, 1894.0, 43.5201
25.412189561, 96.390, 1966.0, 44.3396
25.438450126, 96.390, 2089.0, 45.7056
25.464710691, 96.390, 2173.0, 46.6154
25.490971257, 96.390, 2274.0, 47.6865
25.517231822, 96.390, 2341.0, 48.3839
25.543492387, 96.390, 2342.0, 48.3942
25.569752953, 96.390, 2202.0, 46.9255
25.596013518, 96.390, 1942.0, 44.0681
25.622274083, 96.390, 1862.0, 43.1509
25.648534649, 96.390, 1851.0, 43.0232
25.674795214, 96.390, 1862.0, 43.1509
25.701055779, 96.390, 1904.0, 43.6348
25.727316345, 96.390, 2181.0, 46.7012
25.753576910, 96.390, 2231.0, 47.2335
25.779837476, 96.390, 2680.0, 51.7687
25.806098041, 96.390, 2519.0, 50.1896
25.832358606, 96.390, 2272.0, 47.6655
25.858619172, 96.390, 2272.0, 47.6655
25.884879737, 96.390, 2139.0, 46.2493
25.911140302, 96.390, 1815.0, 42.6028
25.937400868, 96.390, 1821.0, 42.6732
25.963661433, 96.390, 1731.0, 41.6053
25.989921998, 96.390, 1680.0, 40.9878
26.016182564, 96.390, 1776.0, 42.1426
26.042443129, 96.390, 1693.0, 41.1461
26.068703694, 96.390, 1724.0, 41.5211
26.094964260, 96.390, 1711.0, 41.3642
26.121224825, 96.390, 1739.0, 41.7013
26.147485390, 96.390, 1790.0, 42.3084
26.173745956, 96.390, 1810.0, 42.5441
26.200006521, 96.390, 1850.0, 43.0116
26.226267087, 96.390, 1838.0, 42.8719
26.252527652, 96.390, 1906.0, 43.6578
26.278788217, 96.390, 2135.0, 46.2061
26.305048783, 96.390, 2230.0, 47.2229
26.331309348, 96.390, 2332.0, 48.2908
26.357569913, 96.390, 2432.0, 49.3153
26.383830479, 96.390, 2419.0, 49.1833
26.410091044, 96.390, 2426.0, 49.2544
26.436351609, 96.390, 2359.0, 48.5695
26.462612175, 96.390, 2127.0, 46.1194
26.488872740, 96.390, 2167.0, 46.5510
26.515133305, 96.390, 2121.0, 46.0543
26.541393871, 96.390, 2068.0, 45.4753
26.567654436, 96.390, 1852.0, 43.0349
26.593915002, 96.390, 1964.0, 44.3170
26.620175567, 96.390, 1953.0, 44.1928
26.646436132, 96.390, 1987.0, 44.5758
26.672696698, 96.390, 1948.0, 44.1362
26.698957263, 96.390, 1923.0, 43.8520
26.725217828, 96.390, 1845.0, 42.9535
26.751478394, 96.390, 1934.0, 43.9773
26.777738959, 96.390, 1920.0, 43.8178
26.803999524, 96.390, 1953.0, 44.1928
26.830260090, 96.390, 1952.0, 44.1814
26.856520655, 96.390, 1905.0, 43.6463
26.882781220, 96.390, 1946.0, 44.1135
26.909041786, 96.390, 2011.0, 44.8442
26.935302351, 96.390, 1823.0, 42.6966
26.961562916, 96.390, 1882.0, 43.3820
26.987823482, 96.390, 1962.0, 44.2945
27.014084047, 96.390, 1910.0, 43.7035
27.040344613, 96.390, 1790.0, 42.3084
27.066605178, 96.390, 1985.0, 44.5533
27.092865743, 96.390, 1855.0, 43.0697
27.119126309, 96.390, 1903.0, 43.6234
27.145386874, 96.390, 1939.0, 44.0341
27.171647439, 96.390, 1864.0, 43.1741
27.197908005, 96.390, 1968.0, 44.3621
27.224168570, 96.390, 2034.0, 45.0999
27.250429135, 96.390, 2019.0, 44.9333
27.276689701, 96.390, 2118.0, 46.0217
27.302950266, 96.390, 2044.0, 45.2106
27.329210831, 96.390, 1931.0, 43.9431
27.355471397, 96.390, 1890.0, 43.4741
27.381731962, 96.390, 1893.0, 43.5086
27.407992528, 96.390, 1742.0, 41.7373
27.434253093, 96.390, 1818.0, 42.6380
27.460513658, 96.390, 1759.0, 41.9404
27.486774224, 96.390, 1743.0, 41.7493
27.513034789, 96.390, 1753.0, 41.8688
27.539295354, 96.390, 1780.0, 42.1900
27.565555920, 96.390, 1688.0, 41.0853
27.591816485, 96.390, 1663.0, 40.7799
27.618077050, 96.390, 1699.0, 41.2189
27.644337616, 96.390, 1652.0, 40.6448
27.670598181, 96.390, 1670.0, 40.8656
27.696858746, 96.390, 1685.0, 41.0488
27.723119312, 96.390, 1693.0, 41.1461
27.749379877, 96.390, 1722.0, 41.4970
27.775640442, 96.390, 1675.0, 40.9268
27.801901008, 96.390, 1765.0, 42.0119
27.828161573, 96.390, 1717.0, 41.4367
27.854422139, 96.390, 1672.0, 40.8901
27.880682704, 96.390, 1631.0, 40.3856
27.906943269, 96.390, 1632.0, 40.3980
27.933203835, 96.390, 1776.0, 42.1426
27.959464400, 96.390, 1786.0, 42.2611
27.985724965, 96.390, 1748.0, 41.8091
28.011985531, 96.390, 1694.0, 41.1582
28.038246096, 96.390, 1770.0, 42.0714
28.064506661, 96.390, 1689.0, 41.0974
28.090767227, 96.390, 1683.0, 41.0244
28.117027792, 96.390, 1681.0, 41.0000
28.143288357, 96.390, 1666.0, 40.8167
28.169548923, 96.390, 1655.0, 40.6817
28.195809488, 96.390, 1681.0, 41.0000
28.222070054, 96.390, 1654.0, 40.6694
28.248330619, 96.390, 1702.0, 41.2553
28.274591184, 96.390, 1789.0, 42.2966
28.300851750, 96.390, 1681.0, 41.0000
28.327112315, 96.390, 1693.0, 41.1461
28.353372880, 96.390, 1580.0, 39.7492
28.379633446, 96.390, 1705.0, 41.2916
28.405894011, 96.390, 1719.0, 41.4608
28.432154576, 96.390, 1613.0, 40.1622
28.458415142, 96.390, 1679.0, 40.9756
28.484675707, 96.390, 1672.0, 40.8901
28.510936272, 96.390, 1676.0, 40.9390
28.537196838, 96.390, 1744.0, 41.7612
28.563457403, 96.390, 1702.0, 41.2553
28.589717968, 96.390, 1776.0, 42.1426
28.615978534, 96.390, 1863.0, 43.1625
28.642239099, 96.390, 1882.0, 43.3820
28.668499665, 96.390, 1980.0, 44.4972
28.694760230, 96.390, 1981.0, 44.5084
28.721020795, 96.390, 2012.0, 44.8553
28.747281361, 96.390, 1929.0, 43.9204
28.773541926, 96.390, 1817.0, 42.6263
28.799802491, 96.390, 1833.0, 42.8135
28.826063057, 96.390, 1699.0, 41.2189
28.852323622, 96.390, 1887.0, 43.4396
28.878584187, 96.390, 1789.0, 42.2966
28.904844753, 96.390, 1902.0, 43.6119
28.931105318, 96.390, 2095.0, 45.7712
28.957365883, 96.390, 2276.0, 47.7074
28.983626449, 96.390, 2447.0, 49.4672
29.009887014, 96.390, 2700.0, 51.9615
29.036147579, 96.390, 2840.0, 53.2917
29.062408145, 96.390, 2617.0, 51.1566
29.088668710, 96.390, 2415.0, 49.1426
29.114929276, 96.390, 2239.0, 47.3181
29.141189841, 96.390, 1962.0, 44.2945
29.167450406, 96.390, 1807.0, 42.5088
29.193710972, 96.390, 1811.0, 42.5558
29.219971537, 96.390, 1698.0, 41.2068
29.246232102, 96.390, 1685.0, 41.0488
29.272492668, 96.390, 1710.0, 41.3521
29.298753233, 96.390, 1657.0, 40.7063
29.325013798, 96.390, 1716.0, 41.4246
29.351274364, 96.390, 1701.0, 41.2432
29.377534929, 96.390, 1847.0, 42.9767
29.403795494, 96.390, 1906.0, 43.6578
29.430056060, 96.390, 1894.0, 43.5201
29.456316625, 96.390, 2127.0, 46.1194
29.482577191, 96.390, 2218.0, 47.0956
29.508837756, 96.390, 2141.0, 46.2709
29.535098321, 96.390, 2186.0, 46.7547
29.561358887, 96.390, 2130.0, 46.1519
29.587619452, 96.390, 2025.0, 45.0000
29.613880017, 96.390, 2085.0, 45.6618
29.640140583, 96.390, 2184.0, 46.7333
29.666401148, 96.390, 2290.0, 47.8539
29.692661713, 96.390, 2264.0, 47.5815
29.718922279, 96.390, 2202.0, 46.9255
29.745182844, 96.390, 2082.0, 45.6289
29.771443409, 96.390, 2052.0, 45.2990
29.797703975, 96.390, 1941.0, 44.0568
29.823964540, 96.390, 1864.0, 43.1741
29.850225105, 96.390, 1901.0, 43.6005
29.876485671, 96.390, 1974.0, 44.4297
29.902746236, 96.390, 2121.0, 46.0543
29.929006802, 96.390, 2259.0, 47.5289
29.955267367, 96.390, 2269.0, 47.6340
29.981527932, 96.390, 2221.0, 47.1275
30.007788498, 96.390, 2175.0, 46.6369
30.034049063, 96.390, 2145.0, 46.3141
30.060309628, 96.390, 1984.0, 44.5421
30.086570194, 96.390, 1923.0, 43.8520
30.112830759, 96.390, 1915.0, 43.7607
30.139091324, 96.390, 1828.0, 42.7551
30.165351890, 96.390, 1708.0, 41.3280
30.191612455, 96.390, 1839.0, 42.8836
30.217873020, 96.390, 1822.0, 42.6849
30.244133586, 96.390, 1764.0, 42.0000
30.270394151, 96.390, 1781.0, 42.2019
30.296654717, 96.390, 1814.0, 42.5911
30.322915282, 96.390, 1793.0, 42.3438
30.349175847, 96.390, 1792.0, 42.3320
30.375436413, 96.390, 1788.0, 42.2847
30.401696978, 96.390, 1915.0, 43.7607
30.427957543, 96.390, 1854.0, 43.0581
30.454218109, 96.390, 1908.0, 43.6807
30.480478674, 96.390, 1953.0, 44.1928
30.506739239, 96.390, 1996.0, 44.6766
30.532999805, 96.390, 2183.0, 46.7226
30.559260370, 96.390, 2155.0, 46.4220
30.585520935, 96.390, 2086.0, 45.6727
30.611781501, 96.390, 2027.0, 45.0222
30.638042066, 96.390, 1952.0, 44.1814
30.664302631, 96.390, 1840.0, 42.8952
30.690563197, 96.390, 1862.0, 43.1509
30.716823762, 96.390, 1892.0, 43.4971
30.743084328, 96.390, 1782.0, 42.2137
30.769344893, 96.390, 1730.0, 41.5933
30.795605458, 96.390, 1753.0, 41.8688
30.821866024, 96.390, 1858.0, 43.1045
30.848126589, 96.390, 1840.0, 42.8952
30.874387154, 96.390, 1707.0, 41.3159
30.900647720, 96.390, 1710.0, 41.3521
30.926908285, 96.390, 1756.0, 41.9047
30.953168850, 96.390, 1721.0, 41.4849
30.979429416, 96.390, 1753.0, 41.8688
31.005689981, 96.390, 1738.0, 41.6893
31.031950546, 96.390, 1836.0, 42.8486
31.058211112, 96.390, 1872.0, 43.2666
31.084471677, 96.390, 1800.0, 42.4264
31.110732243, 96.390, 1724.0, 41.5211
31.136992808, 96.390, 1869.0, 43.2319
31.163253373, 96.390, 1814.0, 42.5911
31.189513939, 96.390, 1846.0, 42.9651
31.215774504, 96.390, 1711.0, 41.3642
31.242035069, 96.390, 1747.0, 41.7971
31.268295635, 96.390, 1726.0, 41.5452
31.294556200, 96.390, 1653.0, 40.6571
31.320816765, 96.390, 1745.0, 41.7732
31.347077331, 96.390, 1709.0, 41.3401
31.373337896, 96.390, 1732.0, 41.6173
31.399598461, 96.390, 1767.0, 42.0357
31.425859027, 96.390, 1773.0, 42.1070
31.452119592, 96.390, 1866.0, 43.1972
31.478380157, 96.390, 2019.0, 44.9333
31.504640723, 96.390, 2121.0, 46.0543
31.530901288, 96.390, 2255.0, 47.4868
31.557161854, 96.390, 2537.0, 50.3686
31.583422419, 96.390, 2940.0, 54.2218
31.609682984, 96.390, 3312.0, 57.5500
31.635943550, 96.390, 3494.0, 59.1101
31.662204115, 96.390, 3121.0, 55.8659
31.688464680, 96.390, 2791.0, 52.8299
31.714725246, 96.390, 2755.0, 52.4881
31.740985811, 96.390, 2483.0, 49.8297
31.767246376, 96.390, 2297.0, 47.9270
31.793506942, 96.390, 2169.0, 46.5725
31.819767507, 96.390, 2252.0, 47.4552
31.846028072, 96.390, 2334.0, 48.3115
31.872288638, 96.390, 2555.0, 50.5470
31.898549203, 96.390, 2726.0, 52.2111
31.924809769, 96.390, 2909.0, 53.9351
31.951070334, 96.390, 2722.0, 52.1728
31.977330899, 96.390, 2500.0, 50.0000
32.003591465, 96.390, 2378.0, 48.7647
32.029852030, 96.390, 2316.0, 48.1248
32.056112595, 96.390, 2206.0, 46.9681
32.082373161, 96.390, 2100.0, 45.8258
32.108633726, 96.390, 2162.0, 46.4973
32.134894291, 96.390, 2395.0, 48.9387
32.161154857, 96.390, 2569.0, 50.6853
32.187415422, 96.390, 2757.0, 52.5071
32.213675987, 96.390, 2988.0, 54.6626
32.239936553, 96.390, 2880.0, 53.6656
32.266197118, 96.390, 2525.0, 50.2494
32.292457683, 96.390, 2466.0, 49.6588
32.318718249, 96.390, 2465.0, 49.6488
32.344978814, 96.390, 2094.0, 45.7602
32.371239380, 96.390, 1940.0, 44.0454
32.397499945, 96.390, 1831.0, 42.7902
32.423760510, 96.390, 1803.0, 42.4617
32.450021076, 96.390, 1878.0, 43.3359
32.476281641, 96.390, 1876.0, 43.3128
32.502542206, 96.390, 1954.0, 44.2041
32.528802772, 96.390, 2052.0, 45.2990
32.555063337, 96.390, 2106.0, 45.8912
32.581323902, 96.390, 2407.0, 49.0612
32.607584468, 96.390, 2546.0, 50.4579
32.633845033, 96.390, 2906.0, 53.9073
32.660105598, 96.390, 3016.0, 54.9181
32.686366164, 96.390, 2910.0, 53.9444
32.712626729, 96.390, 2859.0, 53.4696
32.738887295, 96.390, 2753.0, 52.4690
32.765147860, 96.390, 2548.0, 50.4777
32.791408425, 96.390, 2367.0, 48.6518
32.817668991, 96.390, 2402.0, 49.0102
32.843929556, 96.390, 2422.0, 49.2138
32.870190121, 96.390, 2332.0, 48.2908
32.896450687, 96.390, 2325.0, 48.2183
32.922711252, 96.390, 2246.0, 47.3920
32.948971817, 96.390, 2385.0, 48.8365
32.975232383, 96.390, 2250.0, 47.4342
33.001492948, 96.390, 2480.0, 49.7996
33.027753513, 96.390, 2764.0, 52.5738
33.054014079, 96.390, 3159.0, 56.2050
33.080274644, 96.390, 3593.0, 59.9416
33.106535209, 96.390, 3871.0, 62.2174
33.132795775, 96.390, 3784.0, 61.5142
33.159056340, 96.390, 3573.0, 59.7746
33.185316906, 96.390, 3350.0, 57.8792
33.211577471, 96.390, 3024.0, 54.9909
33.237838036, 96.390, 2747.0, 52.4118
33.264098602, 96.390, 2419.0, 49.1833
33.290359167, 96.390, 2389.0, 48.8774
33.316619732, 96.390, 2340.0, 48.3735
33.342880298, 96.390, 2231.0, 47.2335
33.369140863, 96.390, 2004.0, 44.7661
33.395401428, 96.390, 1945.0, 44.1022
33.421661994, 96.390, 1919.0, 43.8064
33.447922559, 96.390, 1917.0, 43.7836
33.474183124, 96.390, 1871.0, 43.2551
33.500443690, 96.390, 1969.0, 44.3734
33.526704255, 96.390, 1997.0, 44.6878
33.552964820, 96.390, 1982.0, 44.5197
33.579225386, 96.390, 1945.0, 44.1022
33.605485951, 96.390, 1920.0, 43.8178
33.631746517, 96.390, 1974.0, 44.4297
33.658007082, 96.390, 1926.0, 43.8862
33.684267647, 96.390, 1878.0, 43.3359
33.710528213, 96.390, 1848.0, 42.9884
33.736788778, 96.390, 1878.0, 43.3359
33.763049343, 96.390, 1949.0, 44.1475
33.789309909, 96.390, 2007.0, 44.7996
33.815570474, 96.390, 2042.0, 45.1885
33.841831039, 96.390, 1941.0, 44.0568
33.868091605, 96.390, 2130.0, 46.1519
33.894352170, 96.390, 2057.0, 45.3542
33.920612735, 96.390, 2258.0, 47.5184
33.946873301, 96.390, 2391.0, 48.8979
33.973133866, 96.390, 2438.0, 49.3761
33.999394432, 96.390, 2517.0, 50.1697
34.025654997, 96.390, 2890.0, 53.7587
34.051915562, 96.390, 3242.0, 56.9386
34.078176128, 96.390, 3446.0, 58.7026
34.104436693, 96.390, 4154.0, 64.4515
34.130697258, 96.390, 3413.0, 58.4209
34.156957824, 96.390, 2761.0, 52.5452
34.183218389, 96.390, 2880.0, 53.6656
34.209478954, 96.390, 2703.0, 51.9904
34.235739520, 96.390, 2164.0, 46.5188
34.262000085, 96.390, 2106.0, 45.8912
34.288260650, 96.390, 2015.0, 44.8888
34.314521216, 96.390, 2167.0, 46.5510
34.340781781, 96.390, 2082.0, 45.6289
34.367042346, 96.390, 2013.0, 44.8665
34.393302912, 96.390, 1914.0, 43.7493
34.419563477, 96.390, 1876.0, 43.3128
34.445824043, 96.390, 1809.0, 42.5323
34.472084608, 96.390, 1831.0, 42.7902
34.498345173, 96.390, 1859.0, 43.1161
34.524605739, 96.390, 1860.0, 43.1277
34.550866304, 96.390, 1761.0, 41.9643
34.577126869, 96.390, 1766.0, 42.0238
34.603387435, 96.390, 1766.0, 42.0238
34.629648000, 96.390, 1760.0, 41.9524
34.655908565, 96.390, 1730.0, 41.5933
34.682169131, 96.390, 1796.0, 42.3792
34.708429696, 96.390, 1672.0, 40.8901
34.734690261, 96.390, 1836.0, 42.8486
34.760950827, 96.390, 1699.0, 41.2189
34.787211392, 96.390, 1677.0, 40.9512
34.813471958, 96.390, 1711.0, 41.3642
34.839732523, 96.390, 1694.0, 41.1582
34.865993088, 96.390, 1691.0, 41.1218
34.892253654, 96.390, 1711.0, 41.3642
34.918514219, 96.390, 1694.0, 41.1582
34.944774784, 96.390, 1630.0, 40.3733
34.971035350, 96.390, 1779.0, 42.1782
34.997295915, 96.390, 1707.0, 41.3159
35.023556480, 96.390, 1708.0, 41.3280
35.049817046, 96.390, 1695.0, 41.1704
35.076077611, 96.390, 1612.0, 40.1497
35.102338176, 96.390, 1691.0, 41.1218
35.128598742, 96.390, 1717.0, 41.4367
35.154859307, 96.390, 1676.0, 40.9390
35.181119872, 96.390, 1840.0, 42.8952
35.207380438, 96.390, 1914.0, 43.7493
35.233641003, 96.390, 2153.0, 46.4004
35.259901569, 96.390, 2539.0, 50.3885
35.286162134, 96.390, 2762.0, 52.5547
35.312422699, 96.390, 2775.0, 52.6783
35.338683265, 96.390, 2849.0, 53.3760
35.364943830, 96.390, 2774.0, 52.6688
35.391204395, 96.390, 2534.0, 50.3389
35.417464961, 96.390, 2369.0, 48.6724
35.443725526, 96.390, 2155.0, 46.4220
35.469986091, 96.390, 1924.0, 43.8634
35.496246657, 96.390, 1835.0, 42.8369
35.522507222, 96.390, 1713.0, 41.3884
35.548767787, 96.390, 1601.0, 40.0125
35.575028353, 96.390, 1613.0, 40.1622
35.601288918, 96.390, 1586.0, 39.8246
35.627549484, 96.390, 1499.0, 38.7169
35.653810049, 96.390, 1649.0, 40.6079
35.680070614, 96.390, 1536.0, 39.1918
35.706331180, 96.390, 1684.0, 41.0366
35.732591745, 96.390, 1658.0, 40.7185
35.758852310, 96.390, 1605.0, 40.0625
35.785112876, 96.390, 1585.0, 39.8121
35.811373441, 96.390, 1534.0, 39.1663
35.837634006, 96.390, 1551.0, 39.3827
35.863894572, 96.390, 1588.0, 39.8497
35.890155137, 96.390, 1562.0, 39.5221
35.916415702, 96.390, 1597.0, 39.9625
35.942676268, 96.390, 1494.0, 38.6523
35.968936833, 96.390, 1513.0, 38.8973
35.995197398, 96.390, 1464.0, 38.2623
36.021457964, 96.390, 1525.0, 39.0512
36.047718529, 96.390, 1500.0, 38.7298
36.073979095, 96.390, 1457.0, 38.1707
36.100239660, 96.390, 1454.0, 38.1314
36.126500225, 96.390, 1419.0, 37.6696
36.152760791, 96.390, 1514.0, 38.9102
36.179021356, 96.390, 1370.0, 37.0135
36.205281921, 96.390, 1442.0, 37.9737
36.231542487, 96.390, 1381.0, 37.1618
36.257803052, 96.390, 1498.0, 38.7040
36.284063617, 96.390, 1443.0, 37.9868
36.310324183, 96.390, 1469.0, 38.3275
36.336584748, 96.390, 1513.0, 38.8973
36.362845313, 96.390, 1562.0, 39.5221
36.389105879, 96.390, 1463.0, 38.2492
36.415366444, 96.390, 1537.0, 39.2046
36.441627010, 96.390, 1512.0, 38.8844
36.467887575, 96.390, 1530.0, 39.1152
36.494148140, 96.390, 1575.0, 39.6863
36.520408706, 96.390, 1592.0, 39.8999
36.546669271, 96.390, 1584.0, 39.7995
36.572929836, 96.390, 1780.0, 42.1900
36.599190402, 96.390, 1986.0, 44.5646
36.625450967, 96.390, 2055.0, 45.3321
36.651711532, 96.390, 1908.0, 43.6807
36.677972098, 96.390, 1962.0, 44.2945
36.704232663, 96.390, 1925.0, 43.8748
36.730493228, 96.390, 1765.0, 42.0119
36.756753794, 96.390, 1620.0, 40.2492
36.783014359, 96.390, 1617.0, 40.2119
36.809274924, 96.390, 1487.0, 38.5616
36.835535490, 96.390, 1456.0, 38.1576
36.861796055, 96.390, 1355.0, 36.8103
36.888056621, 96.390, 1302.0, 36.0832
36.914317186, 96.390, 1338.0, 36.5787
36.940577751, 96.390, 1309.0, 36.1801
36.966838317, 96.390, 1284.0, 35.8329
36.993098882, 96.390, 1253.0, 35.3977
37.019359447, 96.390, 1367.0, 36.9730
37.045620013, 96.390, 1266.0, 35.5809
37.071880578, 96.390, 1317.0, 36.2905
37.098141143, 96.390, 1291.0, 35.9305
37.124401709, 96.390, 1352.0, 36.7696
37.150662274, 96.390, 1291.0, 35.9305
37.176922839, 96.390, 1334.0, 36.5240
37.203183405, 96.390, 1347.0, 36.7015
37.229443970, 96.390, 1250.0, 35.3553
37.255704535, 96.390, 1361.0, 36.8917
37.281965101, 96.390, 1264.0, 35.5528
37.308225666, 96.390, 1335.0, 36.5377
37.334486232, 96.390, 1228.0, 35.0428
37.360746797, 96.390, 1309.0, 36.1801
37.387007362, 96.390, 1322.0, 36.3593
37.413267928, 96.390, 1280.0, 35.7771
37.439528493, 96.390, 1310.0, 36.1939
37.465789058, 96.390, 1221.0, 34.9428
37.492049624, 96.390, 1230.0, 35.0714
37.518310189, 96.390, 1280.0, 35.7771
37.544570754, 96.390, 1183.0, 34.3948
37.570831320, 96.390, 1238.0, 35.1852
37.597091885, 96.390, 1251.0, 35.3695
37.623352450, 96.390, 1218.0, 34.8999
37.649613016, 96.390, 1183.0, 34.3948
37.675873581, 96.390, 1264.0, 35.5528
37.702134147, 96.390, 1322.0, 36.3593
37.728394712, 96.390, 1389.0, 37.2693
37.754655277, 96.390, 1360.0, 36.8782
37.780915843, 96.390, 1293.0, 35.9583
37.807176408, 96.390, 1244.0, 35.2704
37.833436973, 96.390, 1231.0, 35.0856
37.859697539, 96.390, 1198.0, 34.6121
37.885958104, 96.390, 1204.0, 34.6987
37.912218669, 96.390, 1201.0, 34.6554
37.938479235, 96.390, 1140.0, 33.7639
37.964739800, 96.390, 1118.0, 33.4365
37.991000365, 96.390, 1124.0, 33.5261
38.017260931, 96.390, 1105.0, 33.2415
38.043521496, 96.390, 1093.0, 33.0606
38.069782061, 96.390, 1106.0, 33.2566
38.096042627, 96.390, 1087.0, 32.9697
38.122303192, 96.390, 1084.0, 32.9242
38.148563758, 96.390, 1120.0, 33.4664
38.174824323, 96.390, 1155.0, 33.9853
38.201084888, 96.390, 1162.0, 34.0881
38.227345454, 96.390, 1176.0, 34.2929
38.253606019, 96.390, 1193.0, 34.5398
38.279866584, 96.390, 1267.0, 35.5949
38.306127150, 96.390, 1281.0, 35.7911
38.332387715, 96.390, 1289.0, 35.9026
38.358648280, 96.390, 1357.0, 36.8375
38.384908846, 96.390, 1397.0, 37.3765
38.411169411, 96.390, 1509.0, 38.8458
38.437429976, 96.390, 1499.0, 38.7169
38.463690542, 96.390, 1496.0, 38.6782
38.489951107, 96.390, 1536.0, 39.1918
38.516211673, 96.390, 1489.0, 38.5876
38.542472238, 96.390, 1510.0, 38.8587
38.568732803, 96.390, 1579.0, 39.7366
38.594993369, 96.390, 1652.0, 40.6448
38.621253934, 96.390, 1748.0, 41.8091
38.647514499, 96.390, 1706.0, 41.3038
38.673775065, 96.390, 1585.0, 39.8121
38.700035630, 96.390, 1559.0, 39.4842
38.726296195, 96.390, 1527.0, 39.0768
38.752556761, 96.390, 1444.0, 38.0000
38.778817326, 96.390, 1382.0, 37.1753
38.805077891, 96.390, 1337.0, 36.5650
38.831338457, 96.390, 1375.0, 37.0810
38.857599022, 96.390, 1218.0, 34.8999
38.883859587, 96.390, 1191.0, 34.5109
38.910120153, 96.390, 1243.0, 35.2562
38.936380718, 96.390, 1188.0, 34.4674
38.962641284, 96.390, 1195.0, 34.5688
38.988901849, 96.390, 1275.0, 35.7071
39.015162414, 96.390, 1186.0, 34.4384
39.041422980, 96.390, 1155.0, 33.9853
39.067683545, 96.390, 1174.0, 34.2637
39.093944110, 96.390, 1108.0, 33.2866
39.120204676, 96.390, 1168.0, 34.1760
39.146465241, 96.390, 1207.0, 34.7419
39.172725806, 96.390, 1208.0, 34.7563
39.198986372, 96.390, 1256.0, 35.4401
39.225246937, 96.390, 1240.0, 35.2136
39.251507502, 96.390, 1328.0, 36.4417
39.277768068, 96.390, 1509.0, 38.8458
39.304028633, 96.390, 1459.0, 38.1969
39.330289199, 96.390, 1385.0, 37.2156
39.356549764, 96.390, 1503.0, 38.7685
39.382810329, 96.390, 1334.0, 36.5240
39.409070895, 96.390, 1288.0, 35.8887
39.435331460, 96.390, 1236.0, 35.1568
39.461592025, 96.390, 1233.0, 35.1141
39.487852591, 96.390, 1249.0, 35.3412
39.514113156, 96.390, 1324.0, 36.3868
39.540373721, 96.390, 1460.0, 38.2099
39.566634287, 96.390, 1545.0, 39.3065
39.592894852, 96.390, 1488.0, 38.5746
39.619155417, 96.390, 1447.0, 38.0395
39.645415983, 96.390, 1398.0, 37.3898
39.671676548, 96.390, 1364.0, 36.9324
39.697937113, 96.390, 1320.0, 36.3318
39.724197679, 96.390, 1290.0, 35.9166
39.750458244, 96.390, 1332.0, 36.4966
39.776718810, 96.390, 1296.0, 36.0000
39.802979375, 96.390, 1348.0, 36.7151
39.829239940, 96.390, 1458.0, 38.1838
39.855500506, 96.390, 1421.0, 37.6962
39.881761071, 96.390, 1396.0, 37.3631
39.908021636, 96.390, 1335.0, 36.5377
39.934282202, 96.390, 1264.0, 35.5528
39.960542767, 96.390, 1279.0, 35.7631
39.986803332, 96.390, 1254.0, 35.4119
40.013063898, 96.390, 1160.0, 34.0588
40.039324463, 96.390, 1138.0, 33.7343
40.065585028, 96.390, 1148.0, 33.8821
40.091845594, 96.390, 1126.0, 33.5559
40.118106159, 96.390, 1095.0, 33.0908
40.144366725, 96.390, 1091.0, 33.0303
40.170627290, 96.390, 1141.0, 33.7787
40.196887855, 96.390, 1050.0, 32.4037
40.223148421, 96.390, 1070.0, 32.7109
40.249408986, 96.390, 1072.0, 32.7414
40.275669551, 96.390, 1030.0, 32.0936
40.301930117, 96.390, 1020.0, 31.9374
40.328190682, 96.390, 980.0, 31.3050
40.354451247, 96.390, 1029.0, 32.0780
40.380711813, 96.390, 942.0, 30.6920
40.406972378, 96.390, 995.0, 31.5436
40.433232943, 96.390, 984.0, 31.3688
40.459493509, 96.390, 1003.0, 31.6702
40.485754074, 96.390, 971.0, 31.1609
40.512014639, 96.390, 995.0, 31.5436
40.538275205, 96.390, 942.0, 30.6920
40.564535770, 96.390, 1060.0, 32.5576
40.590796336, 96.390, 917.0, 30.2820
40.617056901, 96.390, 1008.0, 31.7490
40.643317466, 96.390, 990.0, 31.4643
40.669578032, 96.390, 962.0, 31.0161
40.695838597, 96.390, 1048.0, 32.3728
40.722099162, 96.390, 1041.0, 32.2645
40.748359728, 96.390, 999.0, 31.6070
40.774620293, 96.390, 989.0, 31.4484
40.800880858, 96.390, 1027.0, 32.0468
40.827141424, 96.390, 1052.0, 32.4345
40.853401989, 96.390, 1024.0, 32.0000
40.879662554, 96.390, 1071.0, 32.7261
40.905923120, 96.390, 996.0, 31.5595
40.932183685, 96.390, 1074.0, 32.7719
40.958444251, 96.390, 1028.0, 32.0624
40.984704816, 96.390, 984.0, 31.3688
41.010965381, 96.390, 1126.0, 33.5559
41.037225947, 96.390, 1086.0, 32.9545
41.063486512, 96.390, 1055.0, 32.4808
41.089747077, 96.390, 1155.0, 33.9853
41.116007643, 96.390, 1073.0, 32.7567
41.142268208, 96.390, 1021.0, 31.9531
41.168528773, 96.390, 991.0, 31.4802
41.194789339, 96.390, 1021.0, 31.9531
41.221049904, 96.390, 979.0, 31.2890
41.247310469, 96.390, 994.0, 31.5278
41.273571035, 96.390, 1004.0, 31.6860
41.299831600, 96.390, 945.0, 30.7409
41.326092165, 96.390, 960.0, 30.9839
41.352352731, 96.390, 968.0, 31.1127
41.378613296, 96.390, 995.0, 31.5436
41.404873862, 96.390, 937.0, 30.6105
41.431134427, 96.390, 1000.0, 31.6228
41.457394992, 96.390, 962.0, 31.0161
41.483655558, 96.390, 997.0, 31.5753
41.509916123, 96.390, 871.0, 29.5127
41.536176688, 96.390, 1005.0, 31.7017
41.562437254, 96.390, 970.0, 31.1448
41.588697819, 96.390, 1049.0, 32.3883
41.614958384, 96.390, 985.0, 31.3847
41.641218950, 96.390, 1005.0, 31.7017
41.667479515, 96.390, 1027.0, 32.0468
41.693740080, 96.390, 1079.0, 32.8481
41.720000646, 96.390, 1121.0, 33.4813
41.746261211, 96.390, 1082.0, 32.8938
41.772521776, 96.390, 1179.0, 34.3366
41.798782342, 96.390, 1107.0, 33.2716
41.825042907, 96.390, 1028.0, 32.0624
41.851303473, 96.390, 1051.0, 32.4191
41.877564038, 96.390, 1081.0, 32.8786
41.903824603, 96.390, 1001.0, 31.6386
41.930085169, 96.390, 1022.0, 31.9687
41.956345734, 96.390, 953.0, 30.8707
41.982606299, 96.390, 969.0, 31.1288
42.008866865, 96.390, 969.0, 31.1288
42.035127430, 96.390, 1058.0, 32.5269
42.061387995, 96.390, 997.0, 31.5753
42.087648561, 96.390, 1144.0, 33.8231
42.113909126, 96.390, 1150.0, 33.9116
42.140169691, 96.390, 1161.0, 34.0735
42.166430257, 96.390, 1079.0, 32.8481
42.192690822, 96.390, 1075.0, 32.7872
42.218951388, 96.390, 1067.0, 32.6650
42.245211953, 96.390, 1078.0, 32.8329
42.271472518, 96.390, 1056.0, 32.4962
42.297733084, 96.390, 1060.0, 32.5576
42.323993649, 96.390, 960.0, 30.9839
42.350254214, 96.390, 922.0, 30.3645
42.376514780, 96.390, 1006.0, 31.7175
42.402775345, 96.390, 941.0, 30.6757
42.429035910, 96.390, 955.0, 30.9031
42.455296476, 96.390, 947.0, 30.7734
42.481557041, 96.390, 978.0, 31.2730
42.507817606, 96.390, 1094.0, 33.0757
42.534078172, 96.390, 1074.0, 32.7719
42.560338737, 96.390, 1084.0, 32.9242
42.586599302, 96.390, 1086.0, 32.9545
42.612859868, 96.390, 1081.0, 32.8786
42.639120433, 96.390, 1091.0, 33.0303
42.665380999, 96.390, 1152.0, 33.9411
42.691641564, 96.390, 1195.0, 34.5688
42.717902129, 96.390, 1311.0, 36.2077
42.744162695, 96.390, 1286.0, 35.8608
42.770423260, 96.390, 1111.0, 33.3317
42.796683825, 96.390, 1043.0, 32.2955
42.822944391, 96.390, 1098.0, 33.1361
42.849204956, 96.390, 1026.0, 32.0312
42.875465521, 96.390, 1048.0, 32.3728
42.901726087, 96.390, 1023.0, 31.9844
42.927986652, 96.390, 947.0, 30.7734
42.954247217, 96.390, 1034.0, 32.1559
42.980507783, 96.390, 950.0, 30.8221
43.006768348, 96.390, 962.0, 31.0161
43.033028914, 96.390, 967.0, 31.0966
43.059289479, 96.390, 961.0, 31.0000
43.085550044, 96.390, 909.0, 30.1496
43.111810610, 96.390, 1007.0, 31.7333
43.138071175, 96.390, 988.0, 31.4325
43.164331740, 96.390, 1005.0, 31.7017
43.190592306, 96.390, 1013.0, 31.8277
43.216852871, 96.390, 1045.0, 32.3265
43.243113436, 96.390, 1132.0, 33.6452
43.269374002, 96.390, 1131.0, 33.6303
43.295634567, 96.390, 1076.0, 32.8024
43.321895132, 96.390, 1086.0, 32.9545
43.348155698, 96.390, 1076.0, 32.8024
43.374416263, 96.390, 1075.0, 32.7872
43.400676828, 96.390, 1111.0, 33.3317
43.426937394, 96.390, 1064.0, 32.6190
43.453197959, 96.390, 1002.0, 31.6544
43.479458525, 96.390, 1063.0, 32.6037
43.505719090, 96.390, 1040.0, 32.2490
43.531979655, 96.390, 1158.0, 34.0294
43.558240221, 96.390, 1028.0, 32.0624
43.584500786, 96.390, 1115.0, 33.3916
43.610761351, 96.390, 1129.0, 33.6006
43.637021917, 96.390, 1092.0, 33.0454
43.663282482, 96.390, 1158.0, 34.0294
43.689543047, 96.390, 1034.0, 32.1559
43.715803613, 96.390, 1048.0, 32.3728
43.742064178, 96.390, 1103.0, 33.2114
43.768324743, 96.390, 1055.0, 32.4808
43.794585309, 96.390, 1020.0, 31.9374
43.820845874, 96.390, 1078.0, 32.8329
43.847106440, 96.390, 1056.0, 32.4962
43.873367005, 96.390, 1043.0, 32.2955
43.899627570, 96.390, 1039.0, 32.2335
43.925888136, 96.390, 1018.0, 31.9061
43.952148701, 96.390, 1042.0, 32.2800
43.978409266, 96.390, 976.0, 31.2410
44.004669832, 96.390, 957.0, 30.9354
44.030930397, 96.390, 959.0, 30.9677
44.057190962, 96.390, 974.0, 31.2090
44.083451528, 96.390, 944.0, 30.7246
44.109712093, 96.390, 965.0, 31.0644
44.135972658, 96.390, 915.0, 30.2490
44.162233224, 96.390, 1002.0, 31.6544
44.188493789, 96.390, 964.0, 31.0483
44.214754354, 96.390, 977.0, 31.2570
44.241014920, 96.390, 941.0, 30.6757
44.267275485, 96.390, 936.0, 30.5941
44.293536051, 96.390, 997.0, 31.5753
44.319796616, 96.390, 933.0, 30.5450
44.346057181, 96.390, 947.0, 30.7734
44.372317747, 96.390, 929.0, 30.4795
44.398578312, 96.390, 966.0, 31.0805
44.424838877, 96.390, 938.0, 30.6268
44.451099443, 96.390, 946.0, 30.7571
44.477360008, 96.390, 958.0, 30.9516
44.503620573, 96.390, 955.0, 30.9031
44.529881139, 96.390, 966.0, 31.0805
44.556141704, 96.390, 964.0, 31.0483
44.582402269, 96.390, 972.0, 31.1769
44.608662835, 96.390, 941.0, 30.6757
44.634923400, 96.390, 969.0, 31.1288
44.661183966, 96.390, 987.0, 31.4166
44.687444531, 96.390, 917.0, 30.2820
44.713705096, 96.390, 963.0, 31.0322
44.739965662, 96.390, 985.0, 31.3847
44.766226227, 96.390, 1000.0, 31.6228
44.792486792, 96.390, 995.0, 31.5436
44.818747358, 96.390, 1023.0, 31.9844
44.845007923, 96.390, 1008.0, 31.7490
44.871268488, 96.390, 959.0, 30.9677
44.897529054, 96.390, 998.0, 31.5911
44.923789619, 96.390, 1057.0, 32.5115
44.950050184, 96.390, 1158.0, 34.0294
44.976310750, 96.390, 1212.0, 34.8138
45.002571315, 96.390, 1217.0, 34.8855
45.028831880, 96.390, 1340.0, 36.6060
45.055092446, 96.390, 1245.0, 35.2846
45.081353011, 96.390, 1134.0, 33.6749
45.107613577, 96.390, 1173.0, 34.2491
45.133874142, 96.390, 1137.0, 33.7194
45.160134707, 96.390, 1079.0, 32.8481
45.186395273, 96.390, 1007.0, 31.7333
45.212655838, 96.390, 931.0, 30.5123
45.238916403, 96.390, 973.0, 31.1929
45.265176969, 96.390, 884.0, 29.7321
45.291437534, 96.390, 928.0, 30.4631
45.317698099, 96.390, 891.0, 29.8496
45.343958665, 96.390, 884.0, 29.7321
45.370219230, 96.390, 917.0, 30.2820
45.396479795, 96.390, 913.0, 30.2159
45.422740361, 96.390, 870.0, 29.4958
45.449000926, 96.390, 890.0, 29.8329
45.475261492, 96.390, 890.0, 29.8329
45.501522057, 96.390, 919.0, 30.3150
45.527782622, 96.390, 875.0, 29.5804
45.554043188, 96.390, 916.0, 30.2655
45.580303753, 96.390, 875.0, 29.5804
45.606564318, 96.390, 906.0, 30.0998
45.632824884, 96.390, 923.0, 30.3809
45.659085449, 96.390, 892.0, 29.8664
45.685346014, 96.390, 964.0, 31.0483
45.711606580, 96.390, 924.0, 30.3974
45.737867145, 96.390, 968.0, 31.1127
45.764127710, 96.390, 866.0, 29.4279
45.790388276, 96.390, 951.0, 30.8383
45.816648841, 96.390, 989.0, 31.4484
45.842909406, 96.390, 922.0, 30.3645
45.869169972, 96.390, 918.0, 30.2985
45.895430537, 96.390, 911.0, 30.1828
45.921691103, 96.390, 997.0, 31.5753
45.947951668, 96.390, 914.0, 30.2324
45.974212233, 96.390, 957.0, 30.9354
46.000472799, 96.390, 1033.0, 32.1403
46.026733364, 96.390, 984.0, 31.3688
46.052993929, 96.390, 1028.0, 32.0624
46.079254495, 96.390, 956.0, 30.9192
46.105515060, 96.390, 911.0, 30.1828
46.131775625, 96.390, 944.0, 30.7246
46.158036191, 96.390, 1020.0, 31.9374
46.184296756, 96.390, 967.0, 31.0966
46.210557321, 96.390, 952.0, 30.8545
46.236817887, 96.390, 960.0, 30.9839
46.263078452, 96.390, 968.0, 31.1127
46.289339017, 96.390, 915.0, 30.2490
46.315599583, 96.390, 1015.0, 31.8591
46.341860148, 96.390, 967.0, 31.0966
46.368120714, 96.390, 969.0, 31.1288
46.394381279, 96.390, 1048.0, 32.3728
46.420641844, 96.390, 939.0, 30.6431
46.446902410, 96.390, 1112.0, 33.3467
46.473162975, 96.390, 1054.0, 32.4654
46.499423540, 96.390, 1114.0, 33.3766
46.525684106, 96.390, 1076.0, 32.8024
46.551944671, 96.390, 1189.0, 34.4819
46.578205236, 96.390, 1173.0, 34.2491
46.604465802, 96.390, 1206.0, 34.7275
46.630726367, 96.390, 1230.0, 35.0714
46.656986932, 96.390, 1295.0, 35.9861
46.683247498, 96.390, 1236.0, 35.1568
46.709508063, 96.390, 1162.0, 34.0881
46.735768629, 96.390, 1151.0, 33.9264
46.762029194, 96.390, 1161.0, 34.0735
46.788289759, 96.390, 1092.0, 33.0454
46.814550325, 96.390, 1125.0, 33.5410
46.840810890, 96.390, 1072.0, 32.7414
46.867071455, 96.390, 1049.0, 32.3883
46.893332021, 96.390, 966.0, 31.0805
46.919592586, 96.390, 957.0, 30.9354
46.945853151, 96.390, 926.0, 30.4302
46.972113717, 96.390, 979.0, 31.2890
46.998374282, 96.390, 946.0, 30.7571
47.024634847, 96.390, 964.0, 31.0483
47.050895413, 96.390, 1003.0, 31.6702
47.077155978, 96.390, 1069.0, 32.6956
47.103416543, 96.390, 995.0, 31.5436
47.129677109, 96.390, 1063.0, 32.6037
47.155937674, 96.390, 1104.0, 33.2265
47.182198240, 96.390, 1139.0, 33.7491
47.208458805, 96.390, 1191.0, 34.5109
47.234719370, 96.390, 1140.0, 33.7639
47.260979936, 96.390, 1225.0, 35.0000
47.287240501, 96.390, 1157.0, 34.0147
47.313501066, 96.390, 1172.0, 34.2345
47.339761632, 96.390, 1194.0, 34.5543
47.366022197, 96.390, 1141.0, 33.7787
47.392282762, 96.390, 1129.0, 33.6006
47.418543328, 96.390, 1220.0, 34.9285
47.444803893, 96.390, 1187.0, 34.4529
47.471064458, 96.390, 1234.0, 35.1283
47.497325024, 96.390, 1346.0, 36.6879
47.523585589, 96.390, 1283.0, 35.8190
47.549846155, 96.390, 1317.0, 36.2905
47.576106720, 96.390, 1255.0, 35.4260
47.602367285, 96.390, 1266.0, 35.5809
47.628627851, 96.390, 1182.0, 34.3802
47.654888416, 96.390, 1174.0, 34.2637
47.681148981, 96.390, 1088.0, 32.9848
47.707409547, 96.390, 1106.0, 33.2566
47.733670112, 96.390, 984.0, 31.3688
47.759930677, 96.390, 989.0, 31.4484
47.786191243, 96.390, 959.0, 30.9677
47.812451808, 96.390, 984.0, 31.3688
47.838712373, 96.390, 995.0, 31.5436
47.864972939, 96.390, 925.0, 30.4138
47.891233504, 96.390, 888.0, 29.7993
47.917494069, 96.390, 961.0, 31.0000
47.943754635, 96.390, 949.0, 30.8058
47.970015200, 96.390, 930.0, 30.4959
47.996275766, 96.390, 942.0, 30.6920
48.022536331, 96.390, 904.0, 30.0666
48.048796896, 96.390, 942.0, 30.6920
48.075057462, 96.390, 892.0, 29.8664
48.101318027, 96.390, 906.0, 30.0998
48.127578592, 96.390, 859.0, 29.3087
48.153839158, 96.390, 911.0, 30.1828
48.180099723, 96.390, 863.0, 29.3769
48.206360288, 96.390, 864.0, 29.3939
48.232620854, 96.390, 864.0, 29.3939
48.258881419, 96.390, 927.0, 30.4467
48.285141984, 96.390, 862.0, 29.3598
48.311402550, 96.390, 880.0, 29.6648
48.337663115, 96.390, 881.0, 29.6816
48.363923681, 96.390, 912.0, 30.1993
48.390184246, 96.390, 846.0, 29.0861
48.416444811, 96.390, 859.0, 29.3087
48.442705377, 96.390, 924.0, 30.3974
48.468965942, 96.390, 879.0, 29.6479
48.495226507, 96.390, 931.0, 30.5123
48.521487073, 96.390, 801.0, 28.3019
48.547747638, 96.390, 908.0, 30.1330
48.574008203, 96.390, 876.0, 29.5973
48.600268769, 96.390, 870.0, 29.4958
48.626529334, 96.390, 922.0, 30.3645
48.652789899, 96.390, 917.0, 30.2820
48.679050465, 96.390, 951.0, 30.8383
48.705311030, 96.390, 930.0, 30.4959
48.731571595, 96.390, 885.0, 29.7489
48.757832161, 96.390, 924.0, 30.3974
48.784092726, 96.390, 939.0, 30.6431
48.810353292, 96.390, 928.0, 30.4631
48.836613857, 96.390, 942.0, 30.6920
48.862874422, 96.390, 922.0, 30.3645
48.889134988, 96.390, 900.0, 30.0000
48.915395553, 96.390, 958.0, 30.9516
48.941656118, 96.390, 853.0, 29.2062
48.967916684, 96.390, 888.0, 29.7993
48.994177249, 96.390, 819.0, 28.6182
49.020437814, 96.390, 895.0, 29.9166
49.046698380, 96.390, 876.0, 29.5973
49.072958945, 96.390, 871.0, 29.5127
49.099219510, 96.390, 940.0, 30.6594
49.125480076, 96.390, 995.0, 31.5436
49.151740641, 96.390, 920.0, 30.3315
49.178001207, 96.390, 912.0, 30.1993
49.204261772, 96.390, 852.0, 29.1890
49.230522337, 96.390, 877.0, 29.6142
49.256782903, 96.390, 851.0, 29.1719
49.283043468, 96.390, 886.0, 29.7658
49.309304033, 96.390, 859.0, 29.3087
49.335564599, 96.390, 841.0, 29.0000
49.361825164, 96.390, 730.0, 27.0185
49.388085729, 96.390, 798.0, 28.2489
49.414346295, 96.390, 778.0, 27.8927
49.440606860, 96.390, 804.0, 28.3549
49.466867425, 96.390, 799.0, 28.2666
49.493127991, 96.390, 784.0, 28.0000
49.519388556, 96.390, 758.0, 27.5318
49.545649121, 96.390, 762.0, 27.6043
49.571909687, 96.390, 761.0, 27.5862
49.598170252, 96.390, 770.0, 27.7489
49.624430818, 96.390, 858.0, 29.2916
49.650691383, 96.390, 796.0, 28.2135
49.676951948, 96.390, 854.0, 29.2233
49.703212514, 96.390, 880.0, 29.6648
49.729473079, 96.390, 830.0, 28.8097
49.755733644, 96.390, 852.0, 29.1890
49.781994210, 96.390, 844.0, 29.0517
49.808254775, 96.390, 862.0, 29.3598
49.834515340, 96.390, 790.0, 28.1069
49.860775906, 96.390, 831.0, 28.8271
49.887036471, 96.390, 821.0, 28.6531
49.913297036, 96.390, 737.0, 27.1477
49.939557602, 96.390, 799.0, 28.2666
49.965818167, 96.390, 790.0, 28.1069
49.992078733, 96.390, 791.0, 28.1247
50.018339298, 96.390, 780.0, 27.9285
50.044599863, 96.390, 776.0, 27.8568
50.070860429, 96.390, 764.0, 27.6405
50.097120994, 96.390, 773.0, 27.8029
50.123381559, 96.390, 803.0, 28.3373
50.149642125, 96.390, 812.0, 28.4956
50.175902690, 96.390, 784.0, 28.0000
50.202163255, 96.390, 814.0, 28.5307
50.228423821, 96.390, 808.0, 28.4253
50.254684386, 96.390, 801.0, 28.3019
50.280944951, 96.390, 857.0, 29.2746
50.307205517, 96.390, 798.0, 28.2489
50.333466082, 96.390, 854.0, 29.2233
50.359726647, 96.390, 841.0, 29.0000
50.385987213, 96.390, 768.0, 27.7128
50.412247778, 96.390, 852.0, 29.1890
50.438508344, 96.390, 841.0, 29.0000
50.464768909, 96.390, 913.0, 30.2159
50.491029474, 96.390, 845.0, 29.0689
50.517290040, 96.390, 932.0, 30.5287
50.543550605, 96.390, 888.0, 29.7993
50.569811170, 96.390, 944.0, 30.7246
50.596071736, 96.390, 1022.0, 31.9687
50.622332301, 96.390, 1004.0, 31.6860
50.648592866, 96.390, 944.0, 30.7246
50.674853432, 96.390, 948.0, 30.7896
50.701113997, 96.390, 925.0, 30.4138
50.727374562, 96.390, 898.0, 29.9666
50.753635128, 96.390, 850.0, 29.1548
50.779895693, 96.390, 871.0, 29.5127
50.806156258, 96.390, 825.0, 28.7228
50.832416824, 96.390, 856.0, 29.2575
50.858677389, 96.390, 815.0, 28.5482
50.884937955, 96.390, 817.0, 28.5832
50.911198520, 96.390, 807.0, 28.4077
50.937459085, 96.390, 778.0, 27.8927
50.963719651, 96.390, 707.0, 26.5895
50.989980216, 96.390, 749.0, 27.3679
51.016240781, 96.390, 742.0, 27.2397
51.042501347, 96.390, 753.0, 27.4408
51.068761912, 96.390, 690.0, 26.2679
51.095022477, 96.390, 713.0, 26.7021
51.121283043, 96.390, 721.0, 26.8514
51.147543608, 96.390, 756.0, 27.4955
51.173804173, 96.390, 745.0, 27.2947
51.200064739, 96.390, 739.0, 27.1846
51.226325304, 96.390, 726.0, 26.9444
51.252585870, 96.390, 721.0, 26.8514
51.278846435, 96.390, 726.0, 26.9444
51.305107000, 96.390, 699.0, 26.4386
51.331367566, 96.390, 698.0, 26.4197
51.357628131, 96.390, 689.0, 26.2488
51.383888696, 96.390, 712.0, 26.6833
51.410149262, 96.390, 701.0, 26.4764
51.436409827, 96.390, 699.0, 26.4386
51.462670392, 96.390, 701.0, 26.4764
51.488930958, 96.390, 767.0, 27.6948
51.515191523, 96.390, 746.0, 27.3130
51.541452088, 96.390, 718.0, 26.7955
51.567712654, 96.390, 750.0, 27.3861
51.593973219, 96.390, 745.0, 27.2947
51.620233784, 96.390, 786.0, 28.0357
51.646494350, 96.390, 801.0, 28.3019
51.672754915, 96.390, 762.0, 27.6043
51.699015481, 96.390, 816.0, 28.5657
51.725276046, 96.390, 847.0, 29.1033
51.751536611, 96.390, 923.0, 30.3809
51.777797177, 96.390, 817.0, 28.5832
51.804057742, 96.390, 776.0, 27.8568
51.830318307, 96.390, 825.0, 28.7228
51.856578873, 96.390, 863.0, 29.3769
51.882839438, 96.390, 811.0, 28.4781
51.909100003, 96.390, 806.0, 28.3901
51.935360569, 96.390, 915.0, 30.2490
51.961621134, 96.390, 1009.0, 31.7648
51.987881699, 96.390, 1141.0, 33.7787
52.014142265, 96.390, 1110.0, 33.3167
52.040402830, 96.390, 1014.0, 31.8434
52.066663396, 96.390, 923.0, 30.3809
52.092923961, 96.390, 939.0, 30.6431
52.119184526, 96.390, 983.0, 31.3528
52.145445092, 96.390, 878.0, 29.6311
52.171705657, 96.390, 833.0, 28.8617
52.197966222, 96.390, 807.0, 28.4077
52.224226788, 96.390, 820.0, 28.6356
52.250487353, 96.390, 732.0, 27.0555
52.276747918, 96.390, 736.0, 27.1293
52.303008484, 96.390, 667.0, 25.8263
52.329269049, 96.390, 767.0, 27.6948
52.355529614, 96.390, 700.0, 26.4575
52.381790180, 96.390, 788.0, 28.0713
52.408050745, 96.390, 716.0, 26.7582
52.434311310, 96.390, 751.0, 27.4044
52.460571876, 96.390, 716.0, 26.7582
52.486832441, 96.390, 757.0, 27.5136
52.513093007, 96.390, 719.0, 26.8142
52.539353572, 96.390, 716.0, 26.7582
52.565614137, 96.390, 757.0, 27.5136
52.591874703, 96.390, 724.0, 26.9072
52.618135268, 96.390, 734.0, 27.0924
52.644395833, 96.390, 806.0, 28.3901
52.670656399, 96.390, 805.0, 28.3725
52.696916964, 96.390, 839.0, 28.9655
52.723177529, 96.390, 856.0, 29.2575
52.749438095, 96.390, 803.0, 28.3373
52.775698660, 96.390, 815.0, 28.5482
52.801959225, 96.390, 845.0, 29.0689
52.828219791, 96.390, 831.0, 28.8271
52.854480356, 96.390, 875.0, 29.5804
52.880740922, 96.390, 849.0, 29.1376
52.907001487, 96.390, 939.0, 30.6431
52.933262052, 96.390, 854.0, 29.2233
52.959522618, 96.390, 890.0, 29.8329
52.985783183, 96.390, 900.0, 30.0000
53.012043748, 96.390, 1037.0, 32.2025
53.038304314, 96.390, 923.0, 30.3809
53.064564879, 96.390, 936.0, 30.5941
53.090825444, 96.390, 917.0, 30.2820
53.117086010, 96.390, 838.0, 28.9482
53.143346575, 96.390, 884.0, 29.7321
53.169607140, 96.390, 849.0, 29.1376
53.195867706, 96.390, 874.0, 29.5635
53.222128271, 96.390, 883.0, 29.7153
53.248388836, 96.390, 796.0, 28.2135
53.274649402, 96.390, 743.0, 27.2580
53.300909967, 96.390, 725.0, 26.9258
53.327170533, 96.390, 731.0, 27.0370
53.353431098, 96.390, 795.0, 28.1957
53.379691663, 96.390, 711.0, 26.6646
53.405952229, 96.390, 735.0, 27.1109
53.432212794, 96.390, 741.0, 27.2213
53.458473359, 96.390, 795.0, 28.1957
53.484733925, 96.390, 800.0, 28.2843
53.510994490, 96.390, 739.0, 27.1846
53.537255055, 96.390, 741.0, 27.2213
53.563515621, 96.390, 750.0, 27.3861
53.589776186, 96.390, 720.0, 26.8328
53.616036751, 96.390, 729.0, 27.0000
53.642297317, 96.390, 758.0, 27.5318
53.668557882, 96.390, 750.0, 27.3861
53.694818448, 96.390, 765.0, 27.6586
53.721079013, 96.390, 716.0, 26.7582
53.747339578, 96.390, 689.0, 26.2488
53.773600144, 96.390, 739.0, 27.1846
53.799860709, 96.390, 707.0, 26.5895
53.826121274, 96.390, 733.0, 27.0740
53.852381840, 96.390, 740.0, 27.2029
53.878642405, 96.390, 759.0, 27.5500
53.904902970, 96.390, 763.0, 27.6225
53.931163536, 96.390, 802.0, 28.3196
53.957424101, 96.390, 796.0, 28.2135
53.983684666, 96.390, 757.0, 27.5136
54.009945232, 96.390, 787.0, 28.0535
54.036205797, 96.390, 790.0, 28.1069
54.062466362, 96.390, 759.0, 27.5500
54.088726928, 96.390, 788.0, 28.0713
54.114987493, 96.390, 777.0, 27.8747
54.141248059, 96.390, 793.0, 28.1603
54.167508624, 96.390, 807.0, 28.4077
54.193769189, 96.390, 754.0, 27.4591
54.220029755, 96.390, 793.0, 28.1603
54.246290320, 96.390, 780.0, 27.9285
54.272550885, 96.390, 809.0, 28.4429
54.298811451, 96.390, 819.0, 28.6182
54.325072016, 96.390, 819.0, 28.6182
54.351332581, 96.390, 825.0, 28.7228
54.377593147, 96.390, 750.0, 27.3861
54.403853712, 96.390, 860.0, 29.3258
54.430114277, 96.390, 874.0, 29.5635
54.456374843, 96.390, 859.0, 29.3087
54.482635408, 96.390, 892.0, 29.8664
54.508895973, 96.390, 915.0, 30.2490
54.535156539, 96.390, 848.0, 29.1204
54.561417104, 96.390, 865.0, 29.4109
54.587677670, 96.390, 866.0, 29.4279
54.613938235, 96.390, 820.0, 28.6356
54.640198800, 96.390, 837.0, 28.9310
54.666459366, 96.390, 832.0, 28.8444
54.692719931, 96.390, 813.0, 28.5132
54.718980496, 96.390, 842.0, 29.0172
54.745241062, 96.390, 815.0, 28.5482
54.771501627, 96.390, 789.0, 28.0891
54.797762192, 96.390, 782.0, 27.9643
54.824022758, 96.390, 819.0, 28.6182
54.850283323, 96.390, 862.0, 29.3598
54.876543888, 96.390, 967.0, 31.0966
54.902804454, 96.390, 947.0, 30.7734
54.929065019, 96.390, 866.0, 29.4279
54.955325585, 96.390, 837.0, 28.9310
54.981586150, 96.390, 854.0, 29.2233
55.007846715, 96.390, 856.0, 29.2575
55.034107281, 96.390, 822.0, 28.6705
55.060367846, 96.390, 877.0, 29.6142
55.086628411, 96.390, 780.0, 27.9285
55.112888977, 96.390, 777.0, 27.8747
55.139149542, 96.390, 779.0, 27.9106
55.165410107, 96.390, 762.0, 27.6043
55.191670673, 96.390, 775.0, 27.8388
55.217931238, 96.390, 752.0, 27.4226
55.244191803, 96.390, 748.0, 27.3496
55.270452369, 96.390, 734.0, 27.0924
55.296712934, 96.390, 729.0, 27.0000
55.322973499, 96.390, 765.0, 27.6586
55.349234065, 96.390, 815.0, 28.5482
55.375494630, 96.390, 744.0, 27.2764
55.401755196, 96.390, 720.0, 26.8328
55.428015761, 96.390, 736.0, 27.1293
55.454276326, 96.390, 673.0, 25.9422
55.480536892, 96.390, 722.0, 26.8701
55.506797457, 96.390, 711.0, 26.6646
55.533058022, 96.390, 727.0, 26.9629
55.559318588, 96.390, 675.0, 25.9808
55.585579153, 96.390, 695.0, 26.3629
55.611839718, 96.390, 682.0, 26.1151
55.638100284, 96.390, 673.0, 25.9422
55.664360849, 96.390, 649.0, 25.4755
55.690621414, 96.390, 637.0, 25.2389
55.716881980, 96.390, 702.0, 26.4953
55.743142545, 96.390, 647.0, 25.4362
55.769403111, 96.390, 638.0, 25.2587
55.795663676, 96.390, 724.0, 26.9072
55.821924241, 96.390, 658.0, 25.6515
55.848184807, 96.390, 690.0, 26.2679
55.874445372, 96.390, 716.0, 26.7582
55.900705937, 96.390, 726.0, 26.9444
55.926966503, 96.390, 697.0, 26.4008
55.953227068, 96.390, 667.0, 25.8263
55.979487633, 96.390, 698.0, 26.4197
56.005748199, 96.390, 699.0, 26.4386
56.032008764, 96.390, 695.0, 26.3629
56.058269329, 96.390, 690.0, 26.2679
56.084529895, 96.390, 729.0, 27.0000
56.110790460, 96.390, 749.0, 27.3679
56.137051025, 96.390, 700.0, 26.4575
56.163311591, 96.390, 757.0, 27.5136
56.189572156, 96.390, 784.0, 28.0000
56.215832722, 96.390, 719.0, 26.8142
56.242093287, 96.390, 683.0, 26.1343
56.268353852, 96.390, 669.0, 25.8650
56.294614418, 96.390, 706.0, 26.5707
56.320874983, 96.390, 681.0, 26.0960
56.347135548, 96.390, 701.0, 26.4764
56.373396114, 96.390, 643.0, 25.3574
56.399656679, 96.390, 648.0, 25.4558
56.425917244, 96.390, 671.0, 25.9037
56.452177810, 96.390, 613.0, 24.7588
56.478438375, 96.390, 710.0, 26.6458
56.504698940, 96.390, 623.0, 24.9600
56.530959506, 96.390, 697.0, 26.4008
56.557220071, 96.390, 676.0, 26.0000
56.583480637, 96.390, 711.0, 26.6646
56.609741202, 96.390, 646.0, 25.4165
56.636001767, 96.390, 686.0, 26.1916
56.662262333, 96.390, 726.0, 26.9444
56.688522898, 96.390, 711.0, 26.6646
56.714783463, 96.390, 706.0, 26.5707
56.741044029, 96.390, 722.0, 26.8701
56.767304594, 96.390, 739.0, 27.1846
56.793565159, 96.390, 709.0, 26.6271
56.819825725, 96.390, 688.0, 26.2298
56.846086290, 96.390, 665.0, 25.7876
56.872346855, 96.390, 687.0, 26.2107
56.898607421, 96.390, 674.0, 25.9615
56.924867986, 96.390, 621.0, 24.9199
56.951128551, 96.390, 688.0, 26.2298
56.977389117, 96.390, 668.0, 25.8457
57.003649682, 96.390, 676.0, 26.0000
57.029910248, 96.390, 644.0, 25.3772
57.056170813, 96.390, 635.0, 25.1992
57.082431378, 96.390, 646.0, 25.4165
57.108691944, 96.390, 635.0, 25.1992
57.134952509, 96.390, 738.0, 27.1662
57.161213074, 96.390, 677.0, 26.0192
57.187473640, 96.390, 662.0, 25.7294
57.213734205, 96.390, 715.0, 26.7395
57.239994770, 96.390, 706.0, 26.5707
57.266255336, 96.390, 678.0, 26.0384
57.292515901, 96.390, 703.0, 26.5141
57.318776466, 96.390, 680.0, 26.0768
57.345037032, 96.390, 704.0, 26.5330
57.371297597, 96.390, 677.0, 26.0192
57.397558163, 96.390, 674.0, 25.9615
57.423818728, 96.390, 694.0, 26.3439
57.450079293, 96.390, 704.0, 26.5330
57.476339859, 96.390, 651.0, 25.5147
57.502600424, 96.390, 662.0, 25.7294
57.528860989, 96.390, 683.0, 26.1343
57.555121555, 96.390, 661.0, 25.7099
57.581382120, 96.390, 717.0, 26.7769
57.607642685, 96.390, 709.0, 26.6271
57.633903251, 96.390, 653.0, 25.5539
57.660163816, 96.390, 702.0, 26.4953
57.686424381, 96.390, 727.0, 26.9629
57.712684947, 96.390, 753.0, 27.4408
57.738945512, 96.390, 760.0, 27.5681
57.765206077, 96.390, 827.0, 28.7576
57.791466643, 96.390, 905.0, 30.0832
57.817727208, 96.390, 948.0, 30.7896
57.843987774, 96.390, 900.0, 30.0000
57.870248339, 96.390, 910.0, 30.1662
57.896508904, 96.390, 844.0, 29.0517
57.922769470, 96.390, 851.0, 29.1719
57.949030035, 96.390, 812.0, 28.4956
57.975290600, 96.390, 815.0, 28.5482
58.001551166, 96.390, 743.0, 27.2580
58.027811731, 96.390, 759.0, 27.5500
58.054072296, 96.390, 708.0, 26.6083
58.080332862, 96.390, 685.0, 26.1725
58.106593427, 96.390, 661.0, 25.7099
58.132853992, 96.390, 668.0, 25.8457
58.159114558, 96.390, 644.0, 25.3772
58.185375123, 96.390, 629.0, 25.0799
58.211635689, 96.390, 636.0, 25.2190
58.237896254, 96.390, 682.0, 26.1151
58.264156819, 96.390, 657.0, 25.6320
58.290417385, 96.390, 658.0, 25.6515
58.316677950, 96.390, 646.0, 25.4165
58.342938515, 96.390, 608.0, 24.6577
58.369199081, 96.390, 639.0, 25.2784
58.395459646, 96.390, 565.0, 23.7697
58.421720211, 96.390, 582.0, 24.1247
58.447980777, 96.390, 630.0, 25.0998
58.474241342, 96.390, 594.0, 24.3721
58.500501907, 96.390, 613.0, 24.7588
58.526762473, 96.390, 645.0, 25.3969
58.553023038, 96.390, 649.0, 25.4755
58.579283603, 96.390, 599.0, 24.4745
58.605544169, 96.390, 640.0, 25.2982
58.631804734, 96.390, 641.0, 25.3180
58.658065300, 96.390, 611.0, 24.7184
58.684325865, 96.390, 658.0, 25.6515
58.710586430, 96.390, 612.0, 24.7386
58.736846996, 96.390, 671.0, 25.9037
58.763107561, 96.390, 671.0, 25.9037
58.789368126, 96.390, 655.0, 25.5930
58.815628692, 96.390, 647.0, 25.4362
58.841889257, 96.390, 716.0, 26.7582
58.868149822, 96.390, 737.0, 27.1477
58.894410388, 96.390, 756.0, 27.4955
58.920670953, 96.390, 703.0, 26.5141
58.946931518, 96.390, 773.0, 27.8029
58.973192084, 96.390, 681.0, 26.0960
58.999452649, 96.390, 695.0, 26.3629
59.025713214, 96.390, 683.0, 26.1343
59.051973780, 96.390, 700.0, 26.4575
59.078234345, 96.390, 786.0, 28.0357
59.104494911, 96.390, 736.0, 27.1293
59.130755476, 96.390, 693.0, 26.3249
59.157016041, 96.390, 730.0, 27.0185
59.183276607, 96.390, 706.0, 26.5707
59.209537172, 96.390, 716.0, 26.7582
59.235797737, 96.390, 700.0, 26.4575
59.262058303, 96.390, 683.0, 26.1343
59.288318868, 96.390, 716.0, 26.7582
59.314579433, 96.390, 650.0, 25.4951
59.340839999, 96.390, 691.0, 26.2869
59.367100564, 96.390, 744.0, 27.2764
59.393361129, 96.390, 697.0, 26.4008
59.419621695, 96.390, 736.0, 27.1293
59.445882260, 96.390, 670.0, 25.8844
59.472142826, 96.390, 675.0, 25.9808
59.498403391, 96.390, 672.0, 25.9230
59.524663956, 96.390, 691.0, 26.2869
59.550924522, 96.390, 686.0, 26.1916
59.577185087, 96.390, 659.0, 25.6710
59.603445652, 96.390, 677.0, 26.0192
59.629706218, 96.390, 720.0, 26.8328
59.655966783, 96.390, 680.0, 26.0768
59.682227348, 96.390, 733.0, 27.0740
59.708487914, 96.390, 721.0, 26.8514
59.734748479, 96.390, 748.0, 27.3496
59.761009044, 96.390, 732.0, 27.0555
59.787269610, 96.390, 703.0, 26.5141
59.813530175, 96.390, 701.0, 26.4764
59.839790740, 96.390, 687.0, 26.2107
59.866051306, 96.390, 686.0, 26.1916
59.892311871, 96.390, 669.0, 25.8650
59.918572437, 96.390, 656.0, 25.6125
59.944833002, 96.390, 691.0, 26.2869
59.971093567, 96.390, 700.0, 26.4575
59.997354133, 96.390, 693.0, 26.3249
60.023614698, 96.390, 615.0, 24.7992
60.049875263, 96.390, 654.0, 25.5734
60.076135829, 96.390, 656.0, 25.6125
60.102396394, 96.390, 683.0, 26.1343
60.128656959, 96.390, 649.0, 25.4755
60.154917525, 96.390, 678.0, 26.0384
60.181178090, 96.390, 685.0, 26.1725
60.207438655, 96.390, 669.0, 25.8650
60.233699221, 96.390, 611.0, 24.7184
60.259959786, 96.390, 669.0, 25.8650
60.286220352, 96.390, 634.0, 25.1794
60.312480917, 96.390, 606.0, 24.6171
60.338741482, 96.390, 692.0, 26.3059
60.365002048, 96.390, 680.0, 26.0768
60.391262613, 96.390, 706.0, 26.5707
60.417523178, 96.390, 676.0, 26.0000
60.443783744, 96.390, 669.0, 25.8650
60.470044309, 96.390, 689.0, 26.2488
60.496304874, 96.390, 671.0, 25.9037
60.522565440, 96.390, 636.0, 25.2190
60.548826005, 96.390, 660.0, 25.6905
60.575086570, 96.390, 630.0, 25.0998
60.601347136, 96.390, 668.0, 25.8457
60.627607701, 96.390, 722.0, 26.8701
60.653868266, 96.390, 715.0, 26.7395
60.680128832, 96.390, 667.0, 25.8263
60.706389397, 96.390, 626.0, 25.0200
60.732649963, 96.390, 690.0, 26.2679
60.758910528, 96.390, 748.0, 27.3496
60.785171093, 96.390, 685.0, 26.1725
60.811431659, 96.390, 710.0, 26.6458
60.837692224, 96.390, 690.0, 26.2679
60.863952789, 96.390, 707.0, 26.5895
60.890213355, 96.390, 705.0, 26.5518
60.916473920, 96.390, 654.0, 25.5734
60.942734485, 96.390, 660.0, 25.6905
60.968995051, 96.390, 660.0, 25.6905
60.995255616, 96.390, 712.0, 26.6833
61.021516181, 96.390, 679.0, 26.0576
61.047776747, 96.390, 717.0, 26.7769
61.074037312, 96.390, 726.0, 26.9444
61.100297878, 96.390, 731.0, 27.0370
61.126558443, 96.390, 701.0, 26.4764
61.152819008, 96.390, 783.0, 27.9821
61.179079574, 96.390, 810.0, 28.4605
61.205340139, 96.390, 743.0, 27.2580
61.231600704, 96.390, 766.0, 27.6767
61.257861270, 96.390, 745.0, 27.2947
61.284121835, 96.390, 734.0, 27.0924
61.310382400, 96.390, 742.0, 27.2397
61.336642966, 96.390, 753.0, 27.4408
61.362903531, 96.390, 734.0, 27.0924
61.389164096, 96.390, 723.0, 26.8887
61.415424662, 96.390, 753.0, 27.4408
61.441685227, 96.390, 701.0, 26.4764
61.467945792, 96.390, 752.0, 27.4226
61.494206358, 96.390, 687.0, 26.2107
61.520466923, 96.390, 803.0, 28.3373
61.546727489, 96.390, 713.0, 26.7021
61.572988054, 96.390, 679.0, 26.0576
61.599248619, 96.390, 700.0, 26.4575
61.625509185, 96.390, 690.0, 26.2679
61.651769750, 96.390, 794.0, 28.1780
61.678030315, 96.390, 789.0, 28.0891
61.704290881, 96.390, 726.0, 26.9444
61.730551446, 96.390, 750.0, 27.3861
61.756812011, 96.390, 718.0, 26.7955
61.783072577, 96.390, 718.0, 26.7955
61.809333142, 96.390, 734.0, 27.0924
61.835593707, 96.390, 768.0, 27.7128
61.861854273, 96.390, 715.0, 26.7395
61.888114838, 96.390, 721.0, 26.8514
61.914375404, 96.390, 709.0, 26.6271
61.940635969, 96.390, 667.0, 25.8263
61.966896534, 96.390, 685.0, 26.1725
61.993157100, 96.390, 697.0, 26.4008
62.019417665, 96.390, 718.0, 26.7955
62.045678230, 96.390, 686.0, 26.1916
62.071938796, 96.390, 665.0, 25.7876
62.098199361, 96.390, 665.0, 25.7876
62.124459926, 96.390, 665.0, 25.7876
62.150720492, 96.390, 649.0, 25.4755
62.176981057, 96.390, 681.0, 26.0960
62.203241622, 96.390, 709.0, 26.6271
62.229502188, 96.390, 704.0, 26.5330
62.255762753, 96.390, 663.0, 25.7488
62.282023318, 96.390, 661.0, 25.7099
62.308283884, 96.390, 701.0, 26.4764
62.334544449, 96.390, 716.0, 26.7582
62.360805015, 96.390, 678.0, 26.0384
62.387065580, 96.390, 661.0, 25.7099
62.413326145, 96.390, 673.0, 25.9422
62.439586711, 96.390, 659.0, 25.6710
62.465847276, 96.390, 660.0, 25.6905
62.492107841, 96.390, 686.0, 26.1916
62.518368407, 96.390, 618.0, 24.8596
62.544628972, 96.390, 621.0, 24.9199
62.570889537, 96.390, 646.0, 25.4165
62.597150103, 96.390, 643.0, 25.3574
62.623410668, 96.390, 696.0, 26.3818
62.649671233, 96.390, 664.0, 25.7682
62.675931799, 96.390, 633.0, 25.1595
62.702192364, 96.390, 657.0, 25.6320
62.728452930, 96.390, 681.0, 26.0960
62.754713495, 96.390, 733.0, 27.0740
62.780974060, 96.390, 734.0, 27.0924
62.807234626, 96.390, 707.0, 26.5895
62.833495191, 96.390, 680.0, 26.0768
62.859755756, 96.390, 711.0, 26.6646
62.886016322, 96.390, 721.0, 26.8514
62.912276887, 96.390, 758.0, 27.5318
62.938537452, 96.390, 694.0, 26.3439
62.964798018, 96.390, 715.0, 26.7395
62.991058583, 96.390, 707.0, 26.5895
63.017319148, 96.390, 641.0, 25.3180
63.043579714, 96.390, 697.0, 26.4008
63.069840279, 96.390, 694.0, 26.3439
63.096100844, 96.390, 660.0, 25.6905
63.122361410, 96.390, 668.0, 25.8457
63.148621975, 96.390, 653.0, 25.5539
63.174882541, 96.390, 620.0, 24.8998
63.201143106, 96.390, 616.0, 24.8193
63.227403671, 96.390, 569.0, 23.8537
63.253664237, 96.390, 605.0, 24.5967
63.279924802, 96.390, 579.0, 24.0624
63.306185367, 96.390, 620.0, 24.8998
63.332445933, 96.390, 614.0, 24.7790
63.358706498, 96.390, 536.0, 23.1517
63.384967063, 96.390, 629.0, 25.0799
63.411227629, 96.390, 624.0, 24.9800
63.437488194, 96.390, 588.0, 24.2487
63.463748759, 96.390, 623.0, 24.9600
63.490009325, 96.390, 566.0, 23.7908
63.516269890, 96.390, 574.0, 23.9583
63.542530455, 96.390, 583.0, 24.1454
63.568791021, 96.390, 604.0, 24.5764
63.595051586, 96.390, 606.0, 24.6171
63.621312152, 96.390, 627.0, 25.0400
63.647572717, 96.390, 615.0, 24.7992
63.673833282, 96.390, 664.0, 25.7682
63.700093848, 96.390, 623.0, 24.9600
63.726354413, 96.390, 639.0, 25.2784
63.752614978, 96.390, 603.0, 24.5561
63.778875544, 96.390, 671.0, 25.9037
63.805136109, 96.390, 606.0, 24.6171
63.831396674, 96.390, 627.0, 25.0400
63.857657240, 96.390, 628.0, 25.0599
63.883917805, 96.390, 602.0, 24.5357
63.910178370, 96.390, 644.0, 25.3772
63.936438936, 96.390, 622.0, 24.9399
63.962699501, 96.390, 637.0, 25.2389
63.988960067, 96.390, 591.0, 24.3105
64.015220632, 96.390, 649.0, 25.4755
64.041481197, 96.390, 596.0, 24.4131
64.067741763, 96.390, 601.0, 24.5153
64.094002328, 96.390, 630.0, 25.0998
64.120262893, 96.390, 628.0, 25.0599
64.146523459, 96.390, 621.0, 24.9199
64.172784024, 96.390, 601.0, 24.5153
64.199044589, 96.390, 647.0, 25.4362
64.225305155, 96.390, 581.0, 24.1039
64.251565720, 96.390, 605.0, 24.5967
64.277826285, 96.390, 600.0, 24.4949
64.304086851, 96.390, 591.0, 24.3105
64.330347416, 96.390, 600.0, 24.4949
64.356607981, 96.390, 563.0, 23.7276
64.382868547, 96.390, 561.0, 23.6854
64.409129112, 96.390, 562.0, 23.7065
64.435389678, 96.390, 607.0, 24.6374
64.461650243, 96.390, 580.0, 24.0832
64.487910808, 96.390, 609.0, 24.6779
64.514171374, 96.390, 599.0, 24.4745
64.540431939, 96.390, 593.0, 24.3516
64.566692504, 96.390, 589.0, 24.2693
64.592953070, 96.390, 599.0, 24.4745
64.619213635, 96.390, 623.0, 24.9600
64.645474200, 96.390, 630.0, 25.0998
64.671734766, 96.390, 613.0, 24.7588
64.697995331, 96.390, 593.0, 24.3516
64.724255896, 96.390, 605.0, 24.5967
64.750516462, 96.390, 589.0, 24.2693
64.776777027, 96.390, 617.0, 24.8395
64.803037593, 96.390, 568.0, 23.8328
64.829298158, 96.390, 589.0, 24.2693
64.855558723, 96.390, 570.0, 23.8747
64.881819289, 96.390, 593.0, 24.3516
64.908079854, 96.390, 570.0, 23.8747
64.934340419, 96.390, 566.0, 23.7908
64.960600985, 96.390, 583.0, 24.1454
64.986861550, 96.390, 611.0, 24.7184
