[Measurement conditions]
Sample identification,Corner10Feb22_Act12Feb23_B1_1000M_NaOH_LS0133_Num157
Comment - 1,"Configuration=Stage for Flat Samples/Holders, Owner=nmw10, Creation date=9/21/2022 10:06:30 AM"
Comment - 2,"Goniometer=Theta/Theta; Minimum step size 2Theta:0.0001; Minimum step size Omega:0.0001"
Comment - 3,"Sample stage=Stage for flat samples/holders"
Comment - 4,"Diffractometer system=EMPYREAN"
Comment - 5,"Measurement program=X:\XRD\Cement\Zerobackground scan.xrdmp, Created identifier={98A3B11C-88F9-4AA6-982C-73314A311EF5}, Created by=Titus Reed, Id=tmr79, Creation date=10/26/2021 3:01:47 PM"
Anode material,Cu
K-Alpha1 wavelength,1.5405980
K-Alpha2 wavelength,1.5444260
Ratio K-Alpha2/K-Alpha1,0.500
Divergence slit,Fixed,0.25
Monochromator used,NO
Generator voltage, 45
Tube current, 40
File date and time,15/Mar/2023 20:17
Unit cell,
h k l, 0 0 0
Scan axis,Gonio
Scan range,4.994599997,64.999991833
Scan step size,0.0262606
No. of points, 2285
Scan type,CONTINUOUS
Time per step,96.390
[Scan points]
Angle, TimePerStep, Intensity, ESD
5.007730280, 96.390, 5020.0, 70.8520
5.033990845, 96.390, 4957.0, 70.4060
5.060251411, 96.390, 5021.0, 70.8590
5.086511976, 96.390, 4991.0, 70.6470
5.112772541, 96.390, 4861.0, 69.7209
5.139033107, 96.390, 4972.0, 70.5124
5.165293672, 96.390, 5011.0, 70.7884
5.191554237, 96.390, 4887.0, 69.9071
5.217814803, 96.390, 4824.0, 69.4550
5.244075368, 96.390, 4936.0, 70.2567
5.270335934, 96.390, 4688.0, 68.4690
5.296596499, 96.390, 4752.0, 68.9348
5.322857064, 96.390, 4800.0, 69.2820
5.349117630, 96.390, 4751.0, 68.9275
5.375378195, 96.390, 4718.0, 68.6877
5.401638760, 96.390, 4606.0, 67.8675
5.427899326, 96.390, 4557.0, 67.5056
5.454159891, 96.390, 4473.0, 66.8805
5.480420456, 96.390, 4516.0, 67.2012
5.506681022, 96.390, 4485.0, 66.9701
5.532941587, 96.390, 4410.0, 66.4078
5.559202152, 96.390, 4291.0, 65.5057
5.585462718, 96.390, 4461.0, 66.7907
5.611723283, 96.390, 4352.0, 65.9697
5.637983849, 96.390, 4386.0, 66.2269
5.664244414, 96.390, 4184.0, 64.6838
5.690504979, 96.390, 4374.0, 66.1362
5.716765545, 96.390, 4333.0, 65.8255
5.743026110, 96.390, 4307.0, 65.6277
5.769286675, 96.390, 4259.0, 65.2610
5.795547241, 96.390, 4262.0, 65.2840
5.821807806, 96.390, 4274.0, 65.3758
5.848068371, 96.390, 4268.0, 65.3299
5.874328937, 96.390, 4289.0, 65.4905
5.900589502, 96.390, 4255.0, 65.2304
5.926850067, 96.390, 4151.0, 64.4283
5.953110633, 96.390, 4212.0, 64.8999
5.979371198, 96.390, 4102.0, 64.0469
6.005631763, 96.390, 4234.0, 65.0692
6.031892329, 96.390, 4106.0, 64.0781
6.058152894, 96.390, 4316.0, 65.6963
6.084413460, 96.390, 4139.0, 64.3351
6.110674025, 96.390, 4107.0, 64.0859
6.136934590, 96.390, 4015.0, 63.3640
6.163195156, 96.390, 4119.0, 64.1794
6.189455721, 96.390, 4025.0, 63.4429
6.215716286, 96.390, 4045.0, 63.6003
6.241976852, 96.390, 4025.0, 63.4429
6.268237417, 96.390, 3969.0, 63.0000
6.294497982, 96.390, 4042.0, 63.5767
6.320758548, 96.390, 4045.0, 63.6003
6.347019113, 96.390, 3917.0, 62.5859
6.373279678, 96.390, 3832.0, 61.9032
6.399540244, 96.390, 3918.0, 62.5939
6.425800809, 96.390, 3949.0, 62.8411
6.452061375, 96.390, 3956.0, 62.8967
6.478321940, 96.390, 4007.0, 63.3009
6.504582505, 96.390, 4011.0, 63.3325
6.530843071, 96.390, 3957.0, 62.9047
6.557103636, 96.390, 3987.0, 63.1427
6.583364201, 96.390, 3988.0, 63.1506
6.609624767, 96.390, 3985.0, 63.1269
6.635885332, 96.390, 3974.0, 63.0397
6.662145897, 96.390, 4036.0, 63.5295
6.688406463, 96.390, 3959.0, 62.9206
6.714667028, 96.390, 3881.0, 62.2977
6.740927593, 96.390, 3962.0, 62.9444
6.767188159, 96.390, 3914.0, 62.5620
6.793448724, 96.390, 3942.0, 62.7853
6.819709289, 96.390, 4035.0, 63.5216
6.845969855, 96.390, 4065.0, 63.7574
6.872230420, 96.390, 3998.0, 63.2297
6.898490986, 96.390, 3993.0, 63.1902
6.924751551, 96.390, 3931.0, 62.6977
6.951012116, 96.390, 4000.0, 63.2456
6.977272682, 96.390, 4120.0, 64.1872
7.003533247, 96.390, 4091.0, 63.9609
7.029793812, 96.390, 4156.0, 64.4670
7.056054378, 96.390, 4211.0, 64.8922
7.082314943, 96.390, 4133.0, 64.2884
7.108575508, 96.390, 4306.0, 65.6201
7.134836074, 96.390, 4475.0, 66.8954
7.161096639, 96.390, 4323.0, 65.7495
7.187357204, 96.390, 4787.0, 69.1881
7.213617770, 96.390, 4534.0, 67.3350
7.239878335, 96.390, 4751.0, 68.9275
7.266138900, 96.390, 4746.0, 68.8912
7.292399466, 96.390, 4845.0, 69.6060
7.318660031, 96.390, 4929.0, 70.2068
7.344920597, 96.390, 4910.0, 70.0714
7.371181162, 96.390, 5061.0, 71.1407
7.397441727, 96.390, 5404.0, 73.5119
7.423702293, 96.390, 5279.0, 72.6567
7.449962858, 96.390, 5307.0, 72.8492
7.476223423, 96.390, 5394.0, 73.4439
7.502483989, 96.390, 5648.0, 75.1532
7.528744554, 96.390, 5725.0, 75.6637
7.555005119, 96.390, 5778.0, 76.0132
7.581265685, 96.390, 6028.0, 77.6402
7.607526250, 96.390, 6088.0, 78.0256
7.633786815, 96.390, 5909.0, 76.8700
7.660047381, 96.390, 6080.0, 77.9744
7.686307946, 96.390, 6098.0, 78.0897
7.712568512, 96.390, 6121.0, 78.2368
7.738829077, 96.390, 6136.0, 78.3326
7.765089642, 96.390, 5958.0, 77.1881
7.791350208, 96.390, 5879.0, 76.6746
7.817610773, 96.390, 5375.0, 73.3144
7.843871338, 96.390, 5454.0, 73.8512
7.870131904, 96.390, 5045.0, 71.0282
7.896392469, 96.390, 4868.0, 69.7711
7.922653034, 96.390, 4715.0, 68.6659
7.948913600, 96.390, 4551.0, 67.4611
7.975174165, 96.390, 4430.0, 66.5582
8.001434730, 96.390, 4094.0, 63.9844
8.027695296, 96.390, 4043.0, 63.5846
8.053955861, 96.390, 3922.0, 62.6259
8.080216426, 96.390, 3881.0, 62.2977
8.106476992, 96.390, 3751.0, 61.2454
8.132737557, 96.390, 3654.0, 60.4483
8.158998123, 96.390, 3537.0, 59.4727
8.185258688, 96.390, 3581.0, 59.8415
8.211519253, 96.390, 3703.0, 60.8523
8.237779819, 96.390, 3493.0, 59.1016
8.264040384, 96.390, 3447.0, 58.7112
8.290300949, 96.390, 3472.0, 58.9237
8.316561515, 96.390, 3453.0, 58.7622
8.342822080, 96.390, 3409.0, 58.3866
8.369082645, 96.390, 3405.0, 58.3524
8.395343211, 96.390, 3463.0, 58.8473
8.421603776, 96.390, 3343.0, 57.8187
8.447864341, 96.390, 3314.0, 57.5674
8.474124907, 96.390, 3306.0, 57.4978
8.500385472, 96.390, 3169.0, 56.2939
8.526646038, 96.390, 3244.0, 56.9561
8.552906603, 96.390, 3241.0, 56.9298
8.579167168, 96.390, 3245.0, 56.9649
8.605427734, 96.390, 3188.0, 56.4624
8.631688299, 96.390, 3152.0, 56.1427
8.657948864, 96.390, 3190.0, 56.4801
8.684209430, 96.390, 3189.0, 56.4712
8.710469995, 96.390, 3145.0, 56.0803
8.736730560, 96.390, 3186.0, 56.4447
8.762991126, 96.390, 3152.0, 56.1427
8.789251691, 96.390, 3151.0, 56.1338
8.815512256, 96.390, 3136.0, 56.0000
8.841772822, 96.390, 3098.0, 55.6597
8.868033387, 96.390, 3188.0, 56.4624
8.894293952, 96.390, 3139.0, 56.0268
8.920554518, 96.390, 3102.0, 55.6956
8.946815083, 96.390, 3077.0, 55.4707
8.973075649, 96.390, 3113.0, 55.7943
8.999336214, 96.390, 3153.0, 56.1516
9.025596779, 96.390, 3072.0, 55.4256
9.051857345, 96.390, 3075.0, 55.4527
9.078117910, 96.390, 3203.0, 56.5951
9.104378475, 96.390, 3212.0, 56.6745
9.130639041, 96.390, 3169.0, 56.2939
9.156899606, 96.390, 3259.0, 57.0877
9.183160171, 96.390, 3236.0, 56.8859
9.209420737, 96.390, 3283.0, 57.2975
9.235681302, 96.390, 3304.0, 57.4804
9.261941867, 96.390, 3355.0, 57.9224
9.288202433, 96.390, 3431.0, 58.5747
9.314462998, 96.390, 3654.0, 60.4483
9.340723564, 96.390, 3597.0, 59.9750
9.366984129, 96.390, 3805.0, 61.6847
9.393244694, 96.390, 3978.0, 63.0714
9.419505260, 96.390, 4357.0, 66.0076
9.445765825, 96.390, 4708.0, 68.6149
9.472026390, 96.390, 4826.0, 69.4694
9.498286956, 96.390, 4972.0, 70.5124
9.524547521, 96.390, 4559.0, 67.5204
9.550808086, 96.390, 4456.0, 66.7533
9.577068652, 96.390, 3962.0, 62.9444
9.603329217, 96.390, 3622.0, 60.1831
9.629589782, 96.390, 3421.0, 58.4893
9.655850348, 96.390, 3237.0, 56.8946
9.682110913, 96.390, 3131.0, 55.9553
9.708371478, 96.390, 3125.0, 55.9017
9.734632044, 96.390, 3028.0, 55.0273
9.760892609, 96.390, 2932.0, 54.1479
9.787153175, 96.390, 2868.0, 53.5537
9.813413740, 96.390, 2879.0, 53.6563
9.839674305, 96.390, 2803.0, 52.9434
9.865934871, 96.390, 2816.0, 53.0660
9.892195436, 96.390, 2709.0, 52.0481
9.918456001, 96.390, 2822.0, 53.1225
9.944716567, 96.390, 2860.0, 53.4790
9.970977132, 96.390, 2858.0, 53.4603
9.997237697, 96.390, 2798.0, 52.8961
10.023498263, 96.390, 2751.0, 52.4500
10.049758828, 96.390, 2721.0, 52.1632
10.076019393, 96.390, 2790.0, 52.8205
10.102279959, 96.390, 2717.0, 52.1249
10.128540524, 96.390, 2706.0, 52.0192
10.154801090, 96.390, 2786.0, 52.7826
10.181061655, 96.390, 2663.0, 51.6043
10.207322220, 96.390, 2741.0, 52.3546
10.233582786, 96.390, 2734.0, 52.2877
10.259843351, 96.390, 2723.0, 52.1824
10.286103916, 96.390, 2645.0, 51.4296
10.312364482, 96.390, 2682.0, 51.7880
10.338625047, 96.390, 2673.0, 51.7011
10.364885612, 96.390, 2703.0, 51.9904
10.391146178, 96.390, 2740.0, 52.3450
10.417406743, 96.390, 2618.0, 51.1664
10.443667308, 96.390, 2654.0, 51.5170
10.469927874, 96.390, 2668.0, 51.6527
10.496188439, 96.390, 2656.0, 51.5364
10.522449004, 96.390, 2587.0, 50.8626
10.548709570, 96.390, 2704.0, 52.0000
10.574970135, 96.390, 2604.0, 51.0294
10.601230701, 96.390, 2592.0, 50.9117
10.627491266, 96.390, 2588.0, 50.8724
10.653751831, 96.390, 2505.0, 50.0500
10.680012397, 96.390, 2555.0, 50.5470
10.706272962, 96.390, 2722.0, 52.1728
10.732533527, 96.390, 2537.0, 50.3686
10.758794093, 96.390, 2605.0, 51.0392
10.785054658, 96.390, 2763.0, 52.5642
10.811315223, 96.390, 2632.0, 51.3030
10.837575789, 96.390, 2602.0, 51.0098
10.863836354, 96.390, 2675.0, 51.7204
10.890096919, 96.390, 2586.0, 50.8527
10.916357485, 96.390, 2559.0, 50.5866
10.942618050, 96.390, 2695.0, 51.9134
10.968878616, 96.390, 2608.0, 51.0686
10.995139181, 96.390, 2686.0, 51.8266
11.021399746, 96.390, 2673.0, 51.7011
11.047660312, 96.390, 2680.0, 51.7687
11.073920877, 96.390, 2632.0, 51.3030
11.100181442, 96.390, 2829.0, 53.1883
11.126442008, 96.390, 2895.0, 53.8052
11.152702573, 96.390, 2697.0, 51.9326
11.178963138, 96.390, 2848.0, 53.3667
11.205223704, 96.390, 2642.0, 51.4004
11.231484269, 96.390, 2587.0, 50.8626
11.257744834, 96.390, 2702.0, 51.9808
11.284005400, 96.390, 2679.0, 51.7591
11.310265965, 96.390, 2682.0, 51.7880
11.336526530, 96.390, 2567.0, 50.6656
11.362787096, 96.390, 2614.0, 51.1273
11.389047661, 96.390, 2519.0, 50.1896
11.415308227, 96.390, 2565.0, 50.6458
11.441568792, 96.390, 2617.0, 51.1566
11.467829357, 96.390, 2573.0, 50.7247
11.494089923, 96.390, 2645.0, 51.4296
11.520350488, 96.390, 2633.0, 51.3128
11.546611053, 96.390, 2549.0, 50.4876
11.572871619, 96.390, 2534.0, 50.3389
11.599132184, 96.390, 2739.0, 52.3355
11.625392749, 96.390, 2640.0, 51.3809
11.651653315, 96.390, 2574.0, 50.7346
11.677913880, 96.390, 2696.0, 51.9230
11.704174445, 96.390, 2701.0, 51.9711
11.730435011, 96.390, 2593.0, 50.9215
11.756695576, 96.390, 2662.0, 51.5946
11.782956141, 96.390, 2640.0, 51.3809
11.809216707, 96.390, 2809.0, 53.0000
11.835477272, 96.390, 2674.0, 51.7107
11.861737838, 96.390, 2761.0, 52.5452
11.887998403, 96.390, 2648.0, 51.4587
11.914258968, 96.390, 2732.0, 52.2685
11.940519534, 96.390, 2708.0, 52.0384
11.966780099, 96.390, 2723.0, 52.1824
11.993040664, 96.390, 2564.0, 50.6360
12.019301230, 96.390, 2573.0, 50.7247
12.045561795, 96.390, 2519.0, 50.1896
12.071822360, 96.390, 2569.0, 50.6853
12.098082926, 96.390, 2578.0, 50.7740
12.124343491, 96.390, 2473.0, 49.7293
12.150604056, 96.390, 2528.0, 50.2792
12.176864622, 96.390, 2495.0, 49.9500
12.203125187, 96.390, 2460.0, 49.5984
12.229385753, 96.390, 2430.0, 49.2950
12.255646318, 96.390, 2448.0, 49.4773
12.281906883, 96.390, 2397.0, 48.9592
12.308167449, 96.390, 2319.0, 48.1560
12.334428014, 96.390, 2386.0, 48.8467
12.360688579, 96.390, 2342.0, 48.3942
12.386949145, 96.390, 2416.0, 49.1528
12.413209710, 96.390, 2336.0, 48.3322
12.439470275, 96.390, 2332.0, 48.2908
12.465730841, 96.390, 2328.0, 48.2494
12.491991406, 96.390, 2368.0, 48.6621
12.518251971, 96.390, 2453.0, 49.5278
12.544512537, 96.390, 2335.0, 48.3218
12.570773102, 96.390, 2478.0, 49.7795
12.597033667, 96.390, 2395.0, 48.9387
12.623294233, 96.390, 2432.0, 49.3153
12.649554798, 96.390, 2523.0, 50.2295
12.675815364, 96.390, 2526.0, 50.2593
12.702075929, 96.390, 2517.0, 50.1697
12.728336494, 96.390, 2628.0, 51.2640
12.754597060, 96.390, 2625.0, 51.2348
12.780857625, 96.390, 2677.0, 51.7397
12.807118190, 96.390, 2608.0, 51.0686
12.833378756, 96.390, 2638.0, 51.3615
12.859639321, 96.390, 2435.0, 49.3457
12.885899886, 96.390, 2400.0, 48.9898
12.912160452, 96.390, 2493.0, 49.9300
12.938421017, 96.390, 2348.0, 48.4562
12.964681582, 96.390, 2380.0, 48.7852
12.990942148, 96.390, 2417.0, 49.1630
13.017202713, 96.390, 2452.0, 49.5177
13.043463279, 96.390, 2414.0, 49.1325
13.069723844, 96.390, 2525.0, 50.2494
13.095984409, 96.390, 2380.0, 48.7852
13.122244975, 96.390, 2407.0, 49.0612
13.148505540, 96.390, 2383.0, 48.8160
13.174766105, 96.390, 2510.0, 50.0999
13.201026671, 96.390, 2524.0, 50.2394
13.227287236, 96.390, 2523.0, 50.2295
13.253547801, 96.390, 2487.0, 49.8698
13.279808367, 96.390, 2481.0, 49.8096
13.306068932, 96.390, 2372.0, 48.7032
13.332329497, 96.390, 2552.0, 50.5173
13.358590063, 96.390, 2372.0, 48.7032
13.384850628, 96.390, 2333.0, 48.3011
13.411111193, 96.390, 2236.0, 47.2864
13.437371759, 96.390, 2338.0, 48.3529
13.463632324, 96.390, 2301.0, 47.9687
13.489892890, 96.390, 2315.0, 48.1144
13.516153455, 96.390, 2253.0, 47.4658
13.542414020, 96.390, 2316.0, 48.1248
13.568674586, 96.390, 2277.0, 47.7179
13.594935151, 96.390, 2248.0, 47.4131
13.621195716, 96.390, 2325.0, 48.2183
13.647456282, 96.390, 2265.0, 47.5920
13.673716847, 96.390, 2259.0, 47.5289
13.699977412, 96.390, 2175.0, 46.6369
13.726237978, 96.390, 2205.0, 46.9574
13.752498543, 96.390, 2201.0, 46.9148
13.778759108, 96.390, 2189.0, 46.7868
13.805019674, 96.390, 2259.0, 47.5289
13.831280239, 96.390, 2234.0, 47.2652
13.857540805, 96.390, 2245.0, 47.3814
13.883801370, 96.390, 2182.0, 46.7119
13.910061935, 96.390, 2139.0, 46.2493
13.936322501, 96.390, 2287.0, 47.8226
13.962583066, 96.390, 2167.0, 46.5510
13.988843631, 96.390, 2207.0, 46.9787
14.015104197, 96.390, 2183.0, 46.7226
14.041364762, 96.390, 2266.0, 47.6025
14.067625327, 96.390, 2181.0, 46.7012
14.093885893, 96.390, 2186.0, 46.7547
14.120146458, 96.390, 2278.0, 47.7284
14.146407023, 96.390, 2296.0, 47.9166
14.172667589, 96.390, 2271.0, 47.6550
14.198928154, 96.390, 2319.0, 48.1560
14.225188719, 96.390, 2308.0, 48.0416
14.251449285, 96.390, 2310.0, 48.0625
14.277709850, 96.390, 2312.0, 48.0833
14.303970416, 96.390, 2338.0, 48.3529
14.330230981, 96.390, 2288.0, 47.8330
14.356491546, 96.390, 2341.0, 48.3839
14.382752112, 96.390, 2280.0, 47.7493
14.409012677, 96.390, 2309.0, 48.0521
14.435273242, 96.390, 2334.0, 48.3115
14.461533808, 96.390, 2304.0, 48.0000
14.487794373, 96.390, 2374.0, 48.7237
14.514054938, 96.390, 2387.0, 48.8569
14.540315504, 96.390, 2393.0, 48.9183
14.566576069, 96.390, 2381.0, 48.7955
14.592836634, 96.390, 2355.0, 48.5283
14.619097200, 96.390, 2450.0, 49.4975
14.645357765, 96.390, 2521.0, 50.2096
14.671618331, 96.390, 2540.0, 50.3984
14.697878896, 96.390, 2496.0, 49.9600
14.724139461, 96.390, 2335.0, 48.3218
14.750400027, 96.390, 2463.0, 49.6286
14.776660592, 96.390, 2200.0, 46.9042
14.802921157, 96.390, 2283.0, 47.7807
14.829181723, 96.390, 2343.0, 48.4045
14.855442288, 96.390, 2268.0, 47.6235
14.881702853, 96.390, 2253.0, 47.4658
14.907963419, 96.390, 2239.0, 47.3181
14.934223984, 96.390, 2303.0, 47.9896
14.960484549, 96.390, 2309.0, 48.0521
14.986745115, 96.390, 2314.0, 48.1041
15.013005680, 96.390, 2350.0, 48.4768
15.039266245, 96.390, 2292.0, 47.8748
15.065526811, 96.390, 2359.0, 48.5695
15.091787376, 96.390, 2404.0, 49.0306
15.118047942, 96.390, 2422.0, 49.2138
15.144308507, 96.390, 2384.0, 48.8262
15.170569072, 96.390, 2463.0, 49.6286
15.196829638, 96.390, 2420.0, 49.1935
15.223090203, 96.390, 2408.0, 49.0714
15.249350768, 96.390, 2312.0, 48.0833
15.275611334, 96.390, 2373.0, 48.7134
15.301871899, 96.390, 2307.0, 48.0312
15.328132464, 96.390, 2182.0, 46.7119
15.354393030, 96.390, 2196.0, 46.8615
15.380653595, 96.390, 2222.0, 47.1381
15.406914160, 96.390, 2139.0, 46.2493
15.433174726, 96.390, 2120.0, 46.0435
15.459435291, 96.390, 2121.0, 46.0543
15.485695857, 96.390, 2068.0, 45.4753
15.511956422, 96.390, 2064.0, 45.4313
15.538216987, 96.390, 2075.0, 45.5522
15.564477553, 96.390, 2029.0, 45.0444
15.590738118, 96.390, 2115.0, 45.9891
15.616998683, 96.390, 2120.0, 46.0435
15.643259249, 96.390, 2070.0, 45.4973
15.669519814, 96.390, 2070.0, 45.4973
15.695780379, 96.390, 2068.0, 45.4753
15.722040945, 96.390, 2021.0, 44.9555
15.748301510, 96.390, 2046.0, 45.2327
15.774562075, 96.390, 2118.0, 46.0217
15.800822641, 96.390, 2060.0, 45.3872
15.827083206, 96.390, 2002.0, 44.7437
15.853343771, 96.390, 2115.0, 45.9891
15.879604337, 96.390, 2046.0, 45.2327
15.905864902, 96.390, 2140.0, 46.2601
15.932125468, 96.390, 2027.0, 45.0222
15.958386033, 96.390, 2095.0, 45.7712
15.984646598, 96.390, 2070.0, 45.4973
16.010907164, 96.390, 2072.0, 45.5192
16.037167729, 96.390, 2033.0, 45.0888
16.063428294, 96.390, 2016.0, 44.8999
16.089688860, 96.390, 1888.0, 43.4511
16.115949425, 96.390, 1964.0, 44.3170
16.142209990, 96.390, 2111.0, 45.9456
16.168470556, 96.390, 1961.0, 44.2832
16.194731121, 96.390, 1998.0, 44.6990
16.220991686, 96.390, 1866.0, 43.1972
16.247252252, 96.390, 1958.0, 44.2493
16.273512817, 96.390, 1948.0, 44.1362
16.299773382, 96.390, 1997.0, 44.6878
16.326033948, 96.390, 1989.0, 44.5982
16.352294513, 96.390, 1904.0, 43.6348
16.378555079, 96.390, 1946.0, 44.1135
16.404815644, 96.390, 1862.0, 43.1509
16.431076209, 96.390, 2009.0, 44.8219
16.457336775, 96.390, 1983.0, 44.5309
16.483597340, 96.390, 1983.0, 44.5309
16.509857905, 96.390, 1881.0, 43.3705
16.536118471, 96.390, 1899.0, 43.5775
16.562379036, 96.390, 1931.0, 43.9431
16.588639601, 96.390, 1977.0, 44.4635
16.614900167, 96.390, 1901.0, 43.6005
16.641160732, 96.390, 1964.0, 44.3170
16.667421297, 96.390, 1935.0, 43.9886
16.693681863, 96.390, 1916.0, 43.7721
16.719942428, 96.390, 1954.0, 44.2041
16.746202994, 96.390, 1934.0, 43.9773
16.772463559, 96.390, 1931.0, 43.9431
16.798724124, 96.390, 1954.0, 44.2041
16.824984690, 96.390, 1873.0, 43.2782
16.851245255, 96.390, 1927.0, 43.8976
16.877505820, 96.390, 1949.0, 44.1475
16.903766386, 96.390, 1863.0, 43.1625
16.930026951, 96.390, 1958.0, 44.2493
16.956287516, 96.390, 1853.0, 43.0465
16.982548082, 96.390, 1892.0, 43.4971
17.008808647, 96.390, 1799.0, 42.4146
17.035069212, 96.390, 1857.0, 43.0929
17.061329778, 96.390, 1831.0, 42.7902
17.087590343, 96.390, 1866.0, 43.1972
17.113850908, 96.390, 1886.0, 43.4281
17.140111474, 96.390, 1945.0, 44.1022
17.166372039, 96.390, 1848.0, 42.9884
17.192632605, 96.390, 1853.0, 43.0465
17.218893170, 96.390, 1837.0, 42.8602
17.245153735, 96.390, 1833.0, 42.8135
17.271414301, 96.390, 1772.0, 42.0951
17.297674866, 96.390, 1848.0, 42.9884
17.323935431, 96.390, 1827.0, 42.7434
17.350195997, 96.390, 1919.0, 43.8064
17.376456562, 96.390, 1887.0, 43.4396
17.402717127, 96.390, 1781.0, 42.2019
17.428977693, 96.390, 1886.0, 43.4281
17.455238258, 96.390, 1861.0, 43.1393
17.481498823, 96.390, 1851.0, 43.0232
17.507759389, 96.390, 1872.0, 43.2666
17.534019954, 96.390, 1893.0, 43.5086
17.560280520, 96.390, 1844.0, 42.9418
17.586541085, 96.390, 1845.0, 42.9535
17.612801650, 96.390, 1833.0, 42.8135
17.639062216, 96.390, 1914.0, 43.7493
17.665322781, 96.390, 1843.0, 42.9302
17.691583346, 96.390, 1800.0, 42.4264
17.717843912, 96.390, 1783.0, 42.2256
17.744104477, 96.390, 1835.0, 42.8369
17.770365042, 96.390, 1855.0, 43.0697
17.796625608, 96.390, 1832.0, 42.8019
17.822886173, 96.390, 1885.0, 43.4166
17.849146738, 96.390, 1870.0, 43.2435
17.875407304, 96.390, 1933.0, 43.9659
17.901667869, 96.390, 1883.0, 43.3935
17.927928434, 96.390, 1898.0, 43.5660
17.954189000, 96.390, 1917.0, 43.7836
17.980449565, 96.390, 1925.0, 43.8748
18.006710131, 96.390, 1982.0, 44.5197
18.032970696, 96.390, 2039.0, 45.1553
18.059231261, 96.390, 2075.0, 45.5522
18.085491827, 96.390, 2047.0, 45.2438
18.111752392, 96.390, 2041.0, 45.1774
18.138012957, 96.390, 2014.0, 44.8776
18.164273523, 96.390, 2022.0, 44.9667
18.190534088, 96.390, 2062.0, 45.4093
18.216794653, 96.390, 1959.0, 44.2606
18.243055219, 96.390, 2038.0, 45.1442
18.269315784, 96.390, 2024.0, 44.9889
18.295576349, 96.390, 1857.0, 43.0929
18.321836915, 96.390, 1873.0, 43.2782
18.348097480, 96.390, 1967.0, 44.3509
18.374358046, 96.390, 1926.0, 43.8862
18.400618611, 96.390, 1927.0, 43.8976
18.426879176, 96.390, 1896.0, 43.5431
18.453139742, 96.390, 1991.0, 44.6206
18.479400307, 96.390, 1883.0, 43.3935
18.505660872, 96.390, 1875.0, 43.3013
18.531921438, 96.390, 1835.0, 42.8369
18.558182003, 96.390, 1874.0, 43.2897
18.584442568, 96.390, 1864.0, 43.1741
18.610703134, 96.390, 1802.0, 42.4500
18.636963699, 96.390, 1868.0, 43.2204
18.663224264, 96.390, 1837.0, 42.8602
18.689484830, 96.390, 1801.0, 42.4382
18.715745395, 96.390, 1910.0, 43.7035
18.742005960, 96.390, 1843.0, 42.9302
18.768266526, 96.390, 1765.0, 42.0119
18.794527091, 96.390, 1784.0, 42.2374
18.820787657, 96.390, 1766.0, 42.0238
18.847048222, 96.390, 1831.0, 42.7902
18.873308787, 96.390, 1827.0, 42.7434
18.899569353, 96.390, 1887.0, 43.4396
18.925829918, 96.390, 1898.0, 43.5660
18.952090483, 96.390, 1799.0, 42.4146
18.978351049, 96.390, 1858.0, 43.1045
19.004611614, 96.390, 1906.0, 43.6578
19.030872179, 96.390, 1964.0, 44.3170
19.057132745, 96.390, 1969.0, 44.3734
19.083393310, 96.390, 1881.0, 43.3705
19.109653875, 96.390, 1943.0, 44.0795
19.135914441, 96.390, 1869.0, 43.2319
19.162175006, 96.390, 1891.0, 43.4856
19.188435572, 96.390, 1895.0, 43.5316
19.214696137, 96.390, 1830.0, 42.7785
19.240956702, 96.390, 1916.0, 43.7721
19.267217268, 96.390, 1917.0, 43.7836
19.293477833, 96.390, 1881.0, 43.3705
19.319738398, 96.390, 1896.0, 43.5431
19.345998964, 96.390, 1957.0, 44.2380
19.372259529, 96.390, 1880.0, 43.3590
19.398520094, 96.390, 1951.0, 44.1701
19.424780660, 96.390, 2014.0, 44.8776
19.451041225, 96.390, 1911.0, 43.7150
19.477301790, 96.390, 1935.0, 43.9886
19.503562356, 96.390, 1957.0, 44.2380
19.529822921, 96.390, 1879.0, 43.3474
19.556083486, 96.390, 1927.0, 43.8976
19.582344052, 96.390, 1994.0, 44.6542
19.608604617, 96.390, 1818.0, 42.6380
19.634865183, 96.390, 1919.0, 43.8064
19.661125748, 96.390, 1854.0, 43.0581
19.687386313, 96.390, 1804.0, 42.4735
19.713646879, 96.390, 1931.0, 43.9431
19.739907444, 96.390, 1832.0, 42.8019
19.766168009, 96.390, 1926.0, 43.8862
19.792428575, 96.390, 1975.0, 44.4410
19.818689140, 96.390, 1865.0, 43.1856
19.844949705, 96.390, 1975.0, 44.4410
19.871210271, 96.390, 1880.0, 43.3590
19.897470836, 96.390, 1995.0, 44.6654
19.923731401, 96.390, 1875.0, 43.3013
19.949991967, 96.390, 1874.0, 43.2897
19.976252532, 96.390, 2004.0, 44.7661
20.002513098, 96.390, 1963.0, 44.3058
20.028773663, 96.390, 2009.0, 44.8219
20.055034228, 96.390, 2026.0, 45.0111
20.081294794, 96.390, 1993.0, 44.6430
20.107555359, 96.390, 1997.0, 44.6878
20.133815924, 96.390, 2016.0, 44.8999
20.160076490, 96.390, 2036.0, 45.1221
20.186337055, 96.390, 2032.0, 45.0777
20.212597620, 96.390, 2038.0, 45.1442
20.238858186, 96.390, 2033.0, 45.0888
20.265118751, 96.390, 2026.0, 45.0111
20.291379316, 96.390, 2076.0, 45.5631
20.317639882, 96.390, 2164.0, 46.5188
20.343900447, 96.390, 2049.0, 45.2659
20.370161012, 96.390, 2111.0, 45.9456
20.396421578, 96.390, 2046.0, 45.2327
20.422682143, 96.390, 2069.0, 45.4863
20.448942709, 96.390, 1959.0, 44.2606
20.475203274, 96.390, 2028.0, 45.0333
20.501463839, 96.390, 2132.0, 46.1736
20.527724405, 96.390, 2101.0, 45.8367
20.553984970, 96.390, 2023.0, 44.9778
20.580245535, 96.390, 2060.0, 45.3872
20.606506101, 96.390, 2047.0, 45.2438
20.632766666, 96.390, 2071.0, 45.5082
20.659027231, 96.390, 2088.0, 45.6946
20.685287797, 96.390, 2102.0, 45.8476
20.711548362, 96.390, 2066.0, 45.4533
20.737808927, 96.390, 2097.0, 45.7930
20.764069493, 96.390, 1991.0, 44.6206
20.790330058, 96.390, 2029.0, 45.0444
20.816590623, 96.390, 1962.0, 44.2945
20.842851189, 96.390, 2011.0, 44.8442
20.869111754, 96.390, 2021.0, 44.9555
20.895372320, 96.390, 2054.0, 45.3211
20.921632885, 96.390, 1920.0, 43.8178
20.947893450, 96.390, 2046.0, 45.2327
20.974154016, 96.390, 1928.0, 43.9090
21.000414581, 96.390, 2002.0, 44.7437
21.026675146, 96.390, 1969.0, 44.3734
21.052935712, 96.390, 1998.0, 44.6990
21.079196277, 96.390, 1992.0, 44.6318
21.105456842, 96.390, 2006.0, 44.7884
21.131717408, 96.390, 1981.0, 44.5084
21.157977973, 96.390, 2040.0, 45.1664
21.184238538, 96.390, 2025.0, 45.0000
21.210499104, 96.390, 2016.0, 44.8999
21.236759669, 96.390, 2074.0, 45.5412
21.263020235, 96.390, 2135.0, 46.2061
21.289280800, 96.390, 2219.0, 47.1063
21.315541365, 96.390, 2253.0, 47.4658
21.341801931, 96.390, 2143.0, 46.2925
21.368062496, 96.390, 2195.0, 46.8508
21.394323061, 96.390, 2262.0, 47.5605
21.420583627, 96.390, 2228.0, 47.2017
21.446844192, 96.390, 2230.0, 47.2229
21.473104757, 96.390, 2185.0, 46.7440
21.499365323, 96.390, 2169.0, 46.5725
21.525625888, 96.390, 2140.0, 46.2601
21.551886453, 96.390, 2089.0, 45.7056
21.578147019, 96.390, 2113.0, 45.9674
21.604407584, 96.390, 1989.0, 44.5982
21.630668149, 96.390, 2123.0, 46.0760
21.656928715, 96.390, 2050.0, 45.2769
21.683189280, 96.390, 2032.0, 45.0777
21.709449846, 96.390, 1947.0, 44.1248
21.735710411, 96.390, 2043.0, 45.1996
21.761970976, 96.390, 2005.0, 44.7772
21.788231542, 96.390, 1972.0, 44.4072
21.814492107, 96.390, 1975.0, 44.4410
21.840752672, 96.390, 2031.0, 45.0666
21.867013238, 96.390, 2029.0, 45.0444
21.893273803, 96.390, 1955.0, 44.2154
21.919534368, 96.390, 1994.0, 44.6542
21.945794934, 96.390, 1972.0, 44.4072
21.972055499, 96.390, 1907.0, 43.6692
21.998316064, 96.390, 1973.0, 44.4185
22.024576630, 96.390, 1987.0, 44.5758
22.050837195, 96.390, 1932.0, 43.9545
22.077097761, 96.390, 1918.0, 43.7950
22.103358326, 96.390, 1911.0, 43.7150
22.129618891, 96.390, 1859.0, 43.1161
22.155879457, 96.390, 1880.0, 43.3590
22.182140022, 96.390, 1904.0, 43.6348
22.208400587, 96.390, 1852.0, 43.0349
22.234661153, 96.390, 1817.0, 42.6263
22.260921718, 96.390, 1878.0, 43.3359
22.287182283, 96.390, 1823.0, 42.6966
22.313442849, 96.390, 1884.0, 43.4051
22.339703414, 96.390, 1785.0, 42.2493
22.365963979, 96.390, 1821.0, 42.6732
22.392224545, 96.390, 1797.0, 42.3910
22.418485110, 96.390, 1822.0, 42.6849
22.444745675, 96.390, 1766.0, 42.0238
22.471006241, 96.390, 1831.0, 42.7902
22.497266806, 96.390, 1859.0, 43.1161
22.523527372, 96.390, 1821.0, 42.6732
22.549787937, 96.390, 1850.0, 43.0116
22.576048502, 96.390, 1738.0, 41.6893
22.602309068, 96.390, 1977.0, 44.4635
22.628569633, 96.390, 1829.0, 42.7668
22.654830198, 96.390, 1887.0, 43.4396
22.681090764, 96.390, 1847.0, 42.9767
22.707351329, 96.390, 1867.0, 43.2088
22.733611894, 96.390, 1837.0, 42.8602
22.759872460, 96.390, 1786.0, 42.2611
22.786133025, 96.390, 1812.0, 42.5676
22.812393590, 96.390, 1844.0, 42.9418
22.838654156, 96.390, 1803.0, 42.4617
22.864914721, 96.390, 1967.0, 44.3509
22.891175287, 96.390, 1861.0, 43.1393
22.917435852, 96.390, 1857.0, 43.0929
22.943696417, 96.390, 1911.0, 43.7150
22.969956983, 96.390, 1827.0, 42.7434
22.996217548, 96.390, 1807.0, 42.5088
23.022478113, 96.390, 1797.0, 42.3910
23.048738679, 96.390, 1870.0, 43.2435
23.074999244, 96.390, 1868.0, 43.2204
23.101259809, 96.390, 1874.0, 43.2897
23.127520375, 96.390, 1945.0, 44.1022
23.153780940, 96.390, 1920.0, 43.8178
23.180041505, 96.390, 1899.0, 43.5775
23.206302071, 96.390, 1894.0, 43.5201
23.232562636, 96.390, 1949.0, 44.1475
23.258823201, 96.390, 1910.0, 43.7035
23.285083767, 96.390, 1922.0, 43.8406
23.311344332, 96.390, 1941.0, 44.0568
23.337604898, 96.390, 1964.0, 44.3170
23.363865463, 96.390, 1956.0, 44.2267
23.390126028, 96.390, 1978.0, 44.4747
23.416386594, 96.390, 2002.0, 44.7437
23.442647159, 96.390, 1975.0, 44.4410
23.468907724, 96.390, 1967.0, 44.3509
23.495168290, 96.390, 1902.0, 43.6119
23.521428855, 96.390, 2046.0, 45.2327
23.547689420, 96.390, 2039.0, 45.1553
23.573949986, 96.390, 1937.0, 44.0114
23.600210551, 96.390, 2063.0, 45.4203
23.626471116, 96.390, 2025.0, 45.0000
23.652731682, 96.390, 1931.0, 43.9431
23.678992247, 96.390, 1943.0, 44.0795
23.705252813, 96.390, 1964.0, 44.3170
23.731513378, 96.390, 1899.0, 43.5775
23.757773943, 96.390, 1896.0, 43.5431
23.784034509, 96.390, 1851.0, 43.0232
23.810295074, 96.390, 1963.0, 44.3058
23.836555639, 96.390, 1955.0, 44.2154
23.862816205, 96.390, 1877.0, 43.3244
23.889076770, 96.390, 1857.0, 43.0929
23.915337335, 96.390, 1921.0, 43.8292
23.941597901, 96.390, 1884.0, 43.4051
23.967858466, 96.390, 1879.0, 43.3474
23.994119031, 96.390, 1862.0, 43.1509
24.020379597, 96.390, 1830.0, 42.7785
24.046640162, 96.390, 1810.0, 42.5441
24.072900727, 96.390, 1728.0, 41.5692
24.099161293, 96.390, 1804.0, 42.4735
24.125421858, 96.390, 1793.0, 42.3438
24.151682424, 96.390, 1706.0, 41.3038
24.177942989, 96.390, 1745.0, 41.7732
24.204203554, 96.390, 1720.0, 41.4729
24.230464120, 96.390, 1732.0, 41.6173
24.256724685, 96.390, 1760.0, 41.9524
24.282985250, 96.390, 1806.0, 42.4971
24.309245816, 96.390, 1728.0, 41.5692
24.335506381, 96.390, 1752.0, 41.8569
24.361766946, 96.390, 1739.0, 41.7013
24.388027512, 96.390, 1676.0, 40.9390
24.414288077, 96.390, 1692.0, 41.1339
24.440548642, 96.390, 1761.0, 41.9643
24.466809208, 96.390, 1657.0, 40.7063
24.493069773, 96.390, 1675.0, 40.9268
24.519330338, 96.390, 1665.0, 40.8044
24.545590904, 96.390, 1676.0, 40.9390
24.571851469, 96.390, 1729.0, 41.5812
24.598112035, 96.390, 1691.0, 41.1218
24.624372600, 96.390, 1730.0, 41.5933
24.650633165, 96.390, 1721.0, 41.4849
24.676893731, 96.390, 1706.0, 41.3038
24.703154296, 96.390, 1634.0, 40.4228
24.729414861, 96.390, 1709.0, 41.3401
24.755675427, 96.390, 1664.0, 40.7922
24.781935992, 96.390, 1675.0, 40.9268
24.808196557, 96.390, 1712.0, 41.3763
24.834457123, 96.390, 1743.0, 41.7493
24.860717688, 96.390, 1598.0, 39.9750
24.886978253, 96.390, 1706.0, 41.3038
24.913238819, 96.390, 1737.0, 41.6773
24.939499384, 96.390, 1658.0, 40.7185
24.965759950, 96.390, 1731.0, 41.6053
24.992020515, 96.390, 1739.0, 41.7013
25.018281080, 96.390, 1728.0, 41.5692
25.044541646, 96.390, 1711.0, 41.3642
25.070802211, 96.390, 1789.0, 42.2966
25.097062776, 96.390, 1783.0, 42.2256
25.123323342, 96.390, 1773.0, 42.1070
25.149583907, 96.390, 1734.0, 41.6413
25.175844472, 96.390, 1742.0, 41.7373
25.202105038, 96.390, 1879.0, 43.3474
25.228365603, 96.390, 1817.0, 42.6263
25.254626168, 96.390, 1812.0, 42.5676
25.280886734, 96.390, 1763.0, 41.9881
25.307147299, 96.390, 1868.0, 43.2204
25.333407864, 96.390, 1829.0, 42.7668
25.359668430, 96.390, 1845.0, 42.9535
25.385928995, 96.390, 1796.0, 42.3792
25.412189561, 96.390, 1805.0, 42.4853
25.438450126, 96.390, 1837.0, 42.8602
25.464710691, 96.390, 1775.0, 42.1307
25.490971257, 96.390, 1854.0, 43.0581
25.517231822, 96.390, 1919.0, 43.8064
25.543492387, 96.390, 1823.0, 42.6966
25.569752953, 96.390, 1807.0, 42.5088
25.596013518, 96.390, 1917.0, 43.7836
25.622274083, 96.390, 1833.0, 42.8135
25.648534649, 96.390, 1888.0, 43.4511
25.674795214, 96.390, 1979.0, 44.4860
25.701055779, 96.390, 2010.0, 44.8330
25.727316345, 96.390, 1955.0, 44.2154
25.753576910, 96.390, 1952.0, 44.1814
25.779837476, 96.390, 2077.0, 45.5741
25.806098041, 96.390, 2031.0, 45.0666
25.832358606, 96.390, 2117.0, 46.0109
25.858619172, 96.390, 2053.0, 45.3100
25.884879737, 96.390, 2074.0, 45.5412
25.911140302, 96.390, 2100.0, 45.8258
25.937400868, 96.390, 2071.0, 45.5082
25.963661433, 96.390, 2013.0, 44.8665
25.989921998, 96.390, 2043.0, 45.1996
26.016182564, 96.390, 1980.0, 44.4972
26.042443129, 96.390, 1955.0, 44.2154
26.068703694, 96.390, 1934.0, 43.9773
26.094964260, 96.390, 1988.0, 44.5870
26.121224825, 96.390, 1802.0, 42.4500
26.147485390, 96.390, 1923.0, 43.8520
26.173745956, 96.390, 1932.0, 43.9545
26.200006521, 96.390, 1919.0, 43.8064
26.226267087, 96.390, 1916.0, 43.7721
26.252527652, 96.390, 1904.0, 43.6348
26.278788217, 96.390, 1809.0, 42.5323
26.305048783, 96.390, 1898.0, 43.5660
26.331309348, 96.390, 1924.0, 43.8634
26.357569913, 96.390, 1995.0, 44.6654
26.383830479, 96.390, 1946.0, 44.1135
26.410091044, 96.390, 1939.0, 44.0341
26.436351609, 96.390, 1912.0, 43.7264
26.462612175, 96.390, 1918.0, 43.7950
26.488872740, 96.390, 1957.0, 44.2380
26.515133305, 96.390, 2076.0, 45.5631
26.541393871, 96.390, 1867.0, 43.2088
26.567654436, 96.390, 2013.0, 44.8665
26.593915002, 96.390, 1975.0, 44.4410
26.620175567, 96.390, 1927.0, 43.8976
26.646436132, 96.390, 2054.0, 45.3211
26.672696698, 96.390, 1961.0, 44.2832
26.698957263, 96.390, 2008.0, 44.8107
26.725217828, 96.390, 1940.0, 44.0454
26.751478394, 96.390, 2072.0, 45.5192
26.777738959, 96.390, 2006.0, 44.7884
26.803999524, 96.390, 1908.0, 43.6807
26.830260090, 96.390, 1986.0, 44.5646
26.856520655, 96.390, 1942.0, 44.0681
26.882781220, 96.390, 1923.0, 43.8520
26.909041786, 96.390, 1855.0, 43.0697
26.935302351, 96.390, 1960.0, 44.2719
26.961562916, 96.390, 1998.0, 44.6990
26.987823482, 96.390, 1891.0, 43.4856
27.014084047, 96.390, 2000.0, 44.7214
27.040344613, 96.390, 1875.0, 43.3013
27.066605178, 96.390, 1971.0, 44.3959
27.092865743, 96.390, 1919.0, 43.8064
27.119126309, 96.390, 1997.0, 44.6878
27.145386874, 96.390, 2014.0, 44.8776
27.171647439, 96.390, 1974.0, 44.4297
27.197908005, 96.390, 1905.0, 43.6463
27.224168570, 96.390, 1960.0, 44.2719
27.250429135, 96.390, 2009.0, 44.8219
27.276689701, 96.390, 1956.0, 44.2267
27.302950266, 96.390, 1946.0, 44.1135
27.329210831, 96.390, 1934.0, 43.9773
27.355471397, 96.390, 1906.0, 43.6578
27.381731962, 96.390, 1856.0, 43.0813
27.407992528, 96.390, 1870.0, 43.2435
27.434253093, 96.390, 1997.0, 44.6878
27.460513658, 96.390, 1835.0, 42.8369
27.486774224, 96.390, 1911.0, 43.7150
27.513034789, 96.390, 1966.0, 44.3396
27.539295354, 96.390, 1783.0, 42.2256
27.565555920, 96.390, 1856.0, 43.0813
27.591816485, 96.390, 1945.0, 44.1022
27.618077050, 96.390, 1979.0, 44.4860
27.644337616, 96.390, 1887.0, 43.4396
27.670598181, 96.390, 1961.0, 44.2832
27.696858746, 96.390, 1958.0, 44.2493
27.723119312, 96.390, 1840.0, 42.8952
27.749379877, 96.390, 1916.0, 43.7721
27.775640442, 96.390, 1887.0, 43.4396
27.801901008, 96.390, 1908.0, 43.6807
27.828161573, 96.390, 1999.0, 44.7102
27.854422139, 96.390, 1915.0, 43.7607
27.880682704, 96.390, 1807.0, 42.5088
27.906943269, 96.390, 1852.0, 43.0349
27.933203835, 96.390, 1977.0, 44.4635
27.959464400, 96.390, 1999.0, 44.7102
27.985724965, 96.390, 1984.0, 44.5421
28.011985531, 96.390, 2005.0, 44.7772
28.038246096, 96.390, 2011.0, 44.8442
28.064506661, 96.390, 1972.0, 44.4072
28.090767227, 96.390, 1966.0, 44.3396
28.117027792, 96.390, 2029.0, 45.0444
28.143288357, 96.390, 2028.0, 45.0333
28.169548923, 96.390, 1934.0, 43.9773
28.195809488, 96.390, 1970.0, 44.3847
28.222070054, 96.390, 2019.0, 44.9333
28.248330619, 96.390, 2068.0, 45.4753
28.274591184, 96.390, 2079.0, 45.5961
28.300851750, 96.390, 2012.0, 44.8553
28.327112315, 96.390, 2080.0, 45.6070
28.353372880, 96.390, 2025.0, 45.0000
28.379633446, 96.390, 2104.0, 45.8694
28.405894011, 96.390, 2201.0, 46.9148
28.432154576, 96.390, 2076.0, 45.5631
28.458415142, 96.390, 2169.0, 46.5725
28.484675707, 96.390, 2121.0, 46.0543
28.510936272, 96.390, 2137.0, 46.2277
28.537196838, 96.390, 2164.0, 46.5188
28.563457403, 96.390, 2216.0, 47.0744
28.589717968, 96.390, 2251.0, 47.4447
28.615978534, 96.390, 2191.0, 46.8081
28.642239099, 96.390, 2237.0, 47.2969
28.668499665, 96.390, 2244.0, 47.3709
28.694760230, 96.390, 2276.0, 47.7074
28.721020795, 96.390, 2280.0, 47.7493
28.747281361, 96.390, 2327.0, 48.2390
28.773541926, 96.390, 2176.0, 46.6476
28.799802491, 96.390, 2358.0, 48.5592
28.826063057, 96.390, 2233.0, 47.2546
28.852323622, 96.390, 2200.0, 46.9042
28.878584187, 96.390, 2346.0, 48.4355
28.904844753, 96.390, 2396.0, 48.9490
28.931105318, 96.390, 2335.0, 48.3218
28.957365883, 96.390, 2325.0, 48.2183
28.983626449, 96.390, 2324.0, 48.2079
29.009887014, 96.390, 2327.0, 48.2390
29.036147579, 96.390, 2394.0, 48.9285
29.062408145, 96.390, 2378.0, 48.7647
29.088668710, 96.390, 2393.0, 48.9183
29.114929276, 96.390, 2356.0, 48.5386
29.141189841, 96.390, 2445.0, 49.4469
29.167450406, 96.390, 2456.0, 49.5580
29.193710972, 96.390, 2549.0, 50.4876
29.219971537, 96.390, 2438.0, 49.3761
29.246232102, 96.390, 2419.0, 49.1833
29.272492668, 96.390, 2510.0, 50.0999
29.298753233, 96.390, 2458.0, 49.5782
29.325013798, 96.390, 2634.0, 51.3225
29.351274364, 96.390, 2580.0, 50.7937
29.377534929, 96.390, 2520.0, 50.1996
29.403795494, 96.390, 2605.0, 51.0392
29.430056060, 96.390, 2581.0, 50.8035
29.456316625, 96.390, 2667.0, 51.6430
29.482577191, 96.390, 2597.0, 50.9608
29.508837756, 96.390, 2662.0, 51.5946
29.535098321, 96.390, 2704.0, 52.0000
29.561358887, 96.390, 2767.0, 52.6023
29.587619452, 96.390, 2716.0, 52.1153
29.613880017, 96.390, 2652.0, 51.4976
29.640140583, 96.390, 2702.0, 51.9808
29.666401148, 96.390, 2700.0, 51.9615
29.692661713, 96.390, 2740.0, 52.3450
29.718922279, 96.390, 2620.0, 51.1859
29.745182844, 96.390, 2680.0, 51.7687
29.771443409, 96.390, 2603.0, 51.0196
29.797703975, 96.390, 2675.0, 51.7204
29.823964540, 96.390, 2574.0, 50.7346
29.850225105, 96.390, 2446.0, 49.4571
29.876485671, 96.390, 2432.0, 49.3153
29.902746236, 96.390, 2505.0, 50.0500
29.929006802, 96.390, 2428.0, 49.2747
29.955267367, 96.390, 2411.0, 49.1019
29.981527932, 96.390, 2395.0, 48.9387
30.007788498, 96.390, 2401.0, 49.0000
30.034049063, 96.390, 2474.0, 49.7393
30.060309628, 96.390, 2480.0, 49.7996
30.086570194, 96.390, 2436.0, 49.3559
30.112830759, 96.390, 2484.0, 49.8397
30.139091324, 96.390, 2346.0, 48.4355
30.165351890, 96.390, 2463.0, 49.6286
30.191612455, 96.390, 2362.0, 48.6004
30.217873020, 96.390, 2402.0, 49.0102
30.244133586, 96.390, 2526.0, 50.2593
30.270394151, 96.390, 2385.0, 48.8365
30.296654717, 96.390, 2419.0, 49.1833
30.322915282, 96.390, 2440.0, 49.3964
30.349175847, 96.390, 2456.0, 49.5580
30.375436413, 96.390, 2449.0, 49.4874
30.401696978, 96.390, 2355.0, 48.5283
30.427957543, 96.390, 2436.0, 49.3559
30.454218109, 96.390, 2525.0, 50.2494
30.480478674, 96.390, 2462.0, 49.6185
30.506739239, 96.390, 2558.0, 50.5767
30.532999805, 96.390, 2614.0, 51.1273
30.559260370, 96.390, 2559.0, 50.5866
30.585520935, 96.390, 2589.0, 50.8822
30.611781501, 96.390, 2566.0, 50.6557
30.638042066, 96.390, 2495.0, 49.9500
30.664302631, 96.390, 2475.0, 49.7494
30.690563197, 96.390, 2589.0, 50.8822
30.716823762, 96.390, 2511.0, 50.1099
30.743084328, 96.390, 2449.0, 49.4874
30.769344893, 96.390, 2373.0, 48.7134
30.795605458, 96.390, 2365.0, 48.6313
30.821866024, 96.390, 2488.0, 49.8799
30.848126589, 96.390, 2284.0, 47.7912
30.874387154, 96.390, 2328.0, 48.2494
30.900647720, 96.390, 2305.0, 48.0104
30.926908285, 96.390, 2264.0, 47.5815
30.953168850, 96.390, 2308.0, 48.0416
30.979429416, 96.390, 2319.0, 48.1560
31.005689981, 96.390, 2264.0, 47.5815
31.031950546, 96.390, 2320.0, 48.1664
31.058211112, 96.390, 2362.0, 48.6004
31.084471677, 96.390, 2355.0, 48.5283
31.110732243, 96.390, 2364.0, 48.6210
31.136992808, 96.390, 2287.0, 47.8226
31.163253373, 96.390, 2351.0, 48.4871
31.189513939, 96.390, 2388.0, 48.8672
31.215774504, 96.390, 2312.0, 48.0833
31.242035069, 96.390, 2389.0, 48.8774
31.268295635, 96.390, 2387.0, 48.8569
31.294556200, 96.390, 2300.0, 47.9583
31.320816765, 96.390, 2408.0, 49.0714
31.347077331, 96.390, 2359.0, 48.5695
31.373337896, 96.390, 2408.0, 49.0714
31.399598461, 96.390, 2370.0, 48.6826
31.425859027, 96.390, 2307.0, 48.0312
31.452119592, 96.390, 2417.0, 49.1630
31.478380157, 96.390, 2321.0, 48.1768
31.504640723, 96.390, 2300.0, 47.9583
31.530901288, 96.390, 2221.0, 47.1275
31.557161854, 96.390, 2212.0, 47.0319
31.583422419, 96.390, 2267.0, 47.6130
31.609682984, 96.390, 2215.0, 47.0638
31.635943550, 96.390, 2292.0, 47.8748
31.662204115, 96.390, 2207.0, 46.9787
31.688464680, 96.390, 2207.0, 46.9787
31.714725246, 96.390, 2126.0, 46.1086
31.740985811, 96.390, 2217.0, 47.0850
31.767246376, 96.390, 2225.0, 47.1699
31.793506942, 96.390, 2199.0, 46.8935
31.819767507, 96.390, 2193.0, 46.8295
31.846028072, 96.390, 2212.0, 47.0319
31.872288638, 96.390, 2170.0, 46.5833
31.898549203, 96.390, 2107.0, 45.9021
31.924809769, 96.390, 2220.0, 47.1169
31.951070334, 96.390, 2270.0, 47.6445
31.977330899, 96.390, 2157.0, 46.4435
32.003591465, 96.390, 2179.0, 46.6798
32.029852030, 96.390, 2157.0, 46.4435
32.056112595, 96.390, 2166.0, 46.5403
32.082373161, 96.390, 2225.0, 47.1699
32.108633726, 96.390, 2216.0, 47.0744
32.134894291, 96.390, 2282.0, 47.7703
32.161154857, 96.390, 2265.0, 47.5920
32.187415422, 96.390, 2228.0, 47.2017
32.213675987, 96.390, 2380.0, 48.7852
32.239936553, 96.390, 2314.0, 48.1041
32.266197118, 96.390, 2295.0, 47.9062
32.292457683, 96.390, 2345.0, 48.4252
32.318718249, 96.390, 2251.0, 47.4447
32.344978814, 96.390, 2297.0, 47.9270
32.371239380, 96.390, 2324.0, 48.2079
32.397499945, 96.390, 2318.0, 48.1456
32.423760510, 96.390, 2288.0, 47.8330
32.450021076, 96.390, 2179.0, 46.6798
32.476281641, 96.390, 2270.0, 47.6445
32.502542206, 96.390, 2223.0, 47.1487
32.528802772, 96.390, 2219.0, 47.1063
32.555063337, 96.390, 2185.0, 46.7440
32.581323902, 96.390, 2127.0, 46.1194
32.607584468, 96.390, 2136.0, 46.2169
32.633845033, 96.390, 2084.0, 45.6508
32.660105598, 96.390, 2134.0, 46.1952
32.686366164, 96.390, 2111.0, 45.9456
32.712626729, 96.390, 2140.0, 46.2601
32.738887295, 96.390, 2137.0, 46.2277
32.765147860, 96.390, 2084.0, 45.6508
32.791408425, 96.390, 1997.0, 44.6878
32.817668991, 96.390, 2070.0, 45.4973
32.843929556, 96.390, 1954.0, 44.2041
32.870190121, 96.390, 2027.0, 45.0222
32.896450687, 96.390, 2076.0, 45.5631
32.922711252, 96.390, 2134.0, 46.1952
32.948971817, 96.390, 2044.0, 45.2106
32.975232383, 96.390, 1991.0, 44.6206
33.001492948, 96.390, 2018.0, 44.9222
33.027753513, 96.390, 2030.0, 45.0555
33.054014079, 96.390, 2055.0, 45.3321
33.080274644, 96.390, 2083.0, 45.6399
33.106535209, 96.390, 2043.0, 45.1996
33.132795775, 96.390, 2052.0, 45.2990
33.159056340, 96.390, 1963.0, 44.3058
33.185316906, 96.390, 1979.0, 44.4860
33.211577471, 96.390, 1925.0, 43.8748
33.237838036, 96.390, 2005.0, 44.7772
33.264098602, 96.390, 1949.0, 44.1475
33.290359167, 96.390, 2014.0, 44.8776
33.316619732, 96.390, 1978.0, 44.4747
33.342880298, 96.390, 1921.0, 43.8292
33.369140863, 96.390, 1938.0, 44.0227
33.395401428, 96.390, 1914.0, 43.7493
33.421661994, 96.390, 1936.0, 44.0000
33.447922559, 96.390, 2032.0, 45.0777
33.474183124, 96.390, 1942.0, 44.0681
33.500443690, 96.390, 2045.0, 45.2217
33.526704255, 96.390, 2068.0, 45.4753
33.552964820, 96.390, 1996.0, 44.6766
33.579225386, 96.390, 1950.0, 44.1588
33.605485951, 96.390, 2039.0, 45.1553
33.631746517, 96.390, 2101.0, 45.8367
33.658007082, 96.390, 2102.0, 45.8476
33.684267647, 96.390, 2108.0, 45.9130
33.710528213, 96.390, 2036.0, 45.1221
33.736788778, 96.390, 2112.0, 45.9565
33.763049343, 96.390, 2056.0, 45.3431
33.789309909, 96.390, 2062.0, 45.4093
33.815570474, 96.390, 2111.0, 45.9456
33.841831039, 96.390, 2033.0, 45.0888
33.868091605, 96.390, 1985.0, 44.5533
33.894352170, 96.390, 2177.0, 46.6583
33.920612735, 96.390, 2112.0, 45.9565
33.946873301, 96.390, 2045.0, 45.2217
33.973133866, 96.390, 2055.0, 45.3321
33.999394432, 96.390, 2017.0, 44.9110
34.025654997, 96.390, 2011.0, 44.8442
34.051915562, 96.390, 2088.0, 45.6946
34.078176128, 96.390, 1944.0, 44.0908
34.104436693, 96.390, 1965.0, 44.3283
34.130697258, 96.390, 2119.0, 46.0326
34.156957824, 96.390, 1944.0, 44.0908
34.183218389, 96.390, 1950.0, 44.1588
34.209478954, 96.390, 1875.0, 43.3013
34.235739520, 96.390, 1860.0, 43.1277
34.262000085, 96.390, 1866.0, 43.1972
34.288260650, 96.390, 1813.0, 42.5793
34.314521216, 96.390, 1803.0, 42.4617
34.340781781, 96.390, 1853.0, 43.0465
34.367042346, 96.390, 1769.0, 42.0595
34.393302912, 96.390, 1834.0, 42.8252
34.419563477, 96.390, 1770.0, 42.0714
34.445824043, 96.390, 1724.0, 41.5211
34.472084608, 96.390, 1810.0, 42.5441
34.498345173, 96.390, 1800.0, 42.4264
34.524605739, 96.390, 1699.0, 41.2189
34.550866304, 96.390, 1813.0, 42.5793
34.577126869, 96.390, 1728.0, 41.5692
34.603387435, 96.390, 1774.0, 42.1189
34.629648000, 96.390, 1760.0, 41.9524
34.655908565, 96.390, 1837.0, 42.8602
34.682169131, 96.390, 1790.0, 42.3084
34.708429696, 96.390, 1809.0, 42.5323
34.734690261, 96.390, 1877.0, 43.3244
34.760950827, 96.390, 1850.0, 43.0116
34.787211392, 96.390, 1876.0, 43.3128
34.813471958, 96.390, 1946.0, 44.1135
34.839732523, 96.390, 1833.0, 42.8135
34.865993088, 96.390, 1821.0, 42.6732
34.892253654, 96.390, 1904.0, 43.6348
34.918514219, 96.390, 1794.0, 42.3556
34.944774784, 96.390, 1780.0, 42.1900
34.971035350, 96.390, 1808.0, 42.5206
34.997295915, 96.390, 1795.0, 42.3674
35.023556480, 96.390, 1737.0, 41.6773
35.049817046, 96.390, 1761.0, 41.9643
35.076077611, 96.390, 1729.0, 41.5812
35.102338176, 96.390, 1722.0, 41.4970
35.128598742, 96.390, 1723.0, 41.5090
35.154859307, 96.390, 1641.0, 40.5093
35.181119872, 96.390, 1695.0, 41.1704
35.207380438, 96.390, 1638.0, 40.4722
35.233641003, 96.390, 1613.0, 40.1622
35.259901569, 96.390, 1552.0, 39.3954
35.286162134, 96.390, 1621.0, 40.2616
35.312422699, 96.390, 1569.0, 39.6106
35.338683265, 96.390, 1549.0, 39.3573
35.364943830, 96.390, 1592.0, 39.8999
35.391204395, 96.390, 1532.0, 39.1408
35.417464961, 96.390, 1489.0, 38.5876
35.443725526, 96.390, 1500.0, 38.7298
35.469986091, 96.390, 1517.0, 38.9487
35.496246657, 96.390, 1475.0, 38.4057
35.522507222, 96.390, 1383.0, 37.1887
35.548767787, 96.390, 1424.0, 37.7359
35.575028353, 96.390, 1437.0, 37.9078
35.601288918, 96.390, 1389.0, 37.2693
35.627549484, 96.390, 1406.0, 37.4967
35.653810049, 96.390, 1402.0, 37.4433
35.680070614, 96.390, 1408.0, 37.5233
35.706331180, 96.390, 1366.0, 36.9594
35.732591745, 96.390, 1351.0, 36.7560
35.758852310, 96.390, 1390.0, 37.2827
35.785112876, 96.390, 1263.0, 35.5387
35.811373441, 96.390, 1336.0, 36.5513
35.837634006, 96.390, 1256.0, 35.4401
35.863894572, 96.390, 1372.0, 37.0405
35.890155137, 96.390, 1330.0, 36.4692
35.916415702, 96.390, 1348.0, 36.7151
35.942676268, 96.390, 1347.0, 36.7015
35.968936833, 96.390, 1270.0, 35.6371
35.995197398, 96.390, 1377.0, 37.1080
36.021457964, 96.390, 1280.0, 35.7771
36.047718529, 96.390, 1276.0, 35.7211
36.073979095, 96.390, 1272.0, 35.6651
36.100239660, 96.390, 1264.0, 35.5528
36.126500225, 96.390, 1264.0, 35.5528
36.152760791, 96.390, 1231.0, 35.0856
36.179021356, 96.390, 1282.0, 35.8050
36.205281921, 96.390, 1288.0, 35.8887
36.231542487, 96.390, 1320.0, 36.3318
36.257803052, 96.390, 1243.0, 35.2562
36.284063617, 96.390, 1292.0, 35.9444
36.310324183, 96.390, 1287.0, 35.8748
36.336584748, 96.390, 1219.0, 34.9142
36.362845313, 96.390, 1282.0, 35.8050
36.389105879, 96.390, 1412.0, 37.5766
36.415366444, 96.390, 1226.0, 35.0143
36.441627010, 96.390, 1283.0, 35.8190
36.467887575, 96.390, 1252.0, 35.3836
36.494148140, 96.390, 1265.0, 35.5668
36.520408706, 96.390, 1313.0, 36.2353
36.546669271, 96.390, 1296.0, 36.0000
36.572929836, 96.390, 1222.0, 34.9571
36.599190402, 96.390, 1262.0, 35.5246
36.625450967, 96.390, 1315.0, 36.2629
36.651711532, 96.390, 1291.0, 35.9305
36.677972098, 96.390, 1256.0, 35.4401
36.704232663, 96.390, 1305.0, 36.1248
36.730493228, 96.390, 1370.0, 37.0135
36.756753794, 96.390, 1310.0, 36.1939
36.783014359, 96.390, 1284.0, 35.8329
36.809274924, 96.390, 1315.0, 36.2629
36.835535490, 96.390, 1305.0, 36.1248
36.861796055, 96.390, 1275.0, 35.7071
36.888056621, 96.390, 1334.0, 36.5240
36.914317186, 96.390, 1360.0, 36.8782
36.940577751, 96.390, 1286.0, 35.8608
36.966838317, 96.390, 1301.0, 36.0694
36.993098882, 96.390, 1203.0, 34.6843
37.019359447, 96.390, 1227.0, 35.0286
37.045620013, 96.390, 1276.0, 35.7211
37.071880578, 96.390, 1284.0, 35.8329
37.098141143, 96.390, 1304.0, 36.1109
37.124401709, 96.390, 1209.0, 34.7707
37.150662274, 96.390, 1229.0, 35.0571
37.176922839, 96.390, 1265.0, 35.5668
37.203183405, 96.390, 1238.0, 35.1852
37.229443970, 96.390, 1280.0, 35.7771
37.255704535, 96.390, 1217.0, 34.8855
37.281965101, 96.390, 1266.0, 35.5809
37.308225666, 96.390, 1164.0, 34.1174
37.334486232, 96.390, 1216.0, 34.8712
37.360746797, 96.390, 1241.0, 35.2278
37.387007362, 96.390, 1207.0, 34.7419
37.413267928, 96.390, 1205.0, 34.7131
37.439528493, 96.390, 1156.0, 34.0000
37.465789058, 96.390, 1182.0, 34.3802
37.492049624, 96.390, 1196.0, 34.5832
37.518310189, 96.390, 1142.0, 33.7935
37.544570754, 96.390, 1153.0, 33.9559
37.570831320, 96.390, 1123.0, 33.5112
37.597091885, 96.390, 1178.0, 34.3220
37.623352450, 96.390, 1184.0, 34.4093
37.649613016, 96.390, 1205.0, 34.7131
37.675873581, 96.390, 1140.0, 33.7639
37.702134147, 96.390, 1202.0, 34.6699
37.728394712, 96.390, 1180.0, 34.3511
37.754655277, 96.390, 1204.0, 34.6987
37.780915843, 96.390, 1171.0, 34.2199
37.807176408, 96.390, 1119.0, 33.4515
37.833436973, 96.390, 1147.0, 33.8674
37.859697539, 96.390, 1148.0, 33.8821
37.885958104, 96.390, 1179.0, 34.3366
37.912218669, 96.390, 1187.0, 34.4529
37.938479235, 96.390, 1175.0, 34.2783
37.964739800, 96.390, 1192.0, 34.5254
37.991000365, 96.390, 1182.0, 34.3802
38.017260931, 96.390, 1175.0, 34.2783
38.043521496, 96.390, 1182.0, 34.3802
38.069782061, 96.390, 1216.0, 34.8712
38.096042627, 96.390, 1156.0, 34.0000
38.122303192, 96.390, 1178.0, 34.3220
38.148563758, 96.390, 1150.0, 33.9116
38.174824323, 96.390, 1289.0, 35.9026
38.201084888, 96.390, 1178.0, 34.3220
38.227345454, 96.390, 1244.0, 35.2704
38.253606019, 96.390, 1169.0, 34.1906
38.279866584, 96.390, 1180.0, 34.3511
38.306127150, 96.390, 1222.0, 34.9571
38.332387715, 96.390, 1144.0, 33.8231
38.358648280, 96.390, 1151.0, 33.9264
38.384908846, 96.390, 1176.0, 34.2929
38.411169411, 96.390, 1120.0, 33.4664
38.437429976, 96.390, 1149.0, 33.8969
38.463690542, 96.390, 1165.0, 34.1321
38.489951107, 96.390, 1121.0, 33.4813
38.516211673, 96.390, 1092.0, 33.0454
38.542472238, 96.390, 1176.0, 34.2929
38.568732803, 96.390, 1184.0, 34.4093
38.594993369, 96.390, 1163.0, 34.1028
38.621253934, 96.390, 1163.0, 34.1028
38.647514499, 96.390, 1136.0, 33.7046
38.673775065, 96.390, 1154.0, 33.9706
38.700035630, 96.390, 1142.0, 33.7935
38.726296195, 96.390, 1117.0, 33.4215
38.752556761, 96.390, 1174.0, 34.2637
38.778817326, 96.390, 1119.0, 33.4515
38.805077891, 96.390, 1152.0, 33.9411
38.831338457, 96.390, 1087.0, 32.9697
38.857599022, 96.390, 1115.0, 33.3916
38.883859587, 96.390, 1091.0, 33.0303
38.910120153, 96.390, 1113.0, 33.3617
38.936380718, 96.390, 1069.0, 32.6956
38.962641284, 96.390, 1138.0, 33.7343
38.988901849, 96.390, 1118.0, 33.4365
39.015162414, 96.390, 1120.0, 33.4664
39.041422980, 96.390, 1131.0, 33.6303
39.067683545, 96.390, 1061.0, 32.5730
39.093944110, 96.390, 1167.0, 34.1614
39.120204676, 96.390, 1082.0, 32.8938
39.146465241, 96.390, 1072.0, 32.7414
39.172725806, 96.390, 1076.0, 32.8024
39.198986372, 96.390, 1138.0, 33.7343
39.225246937, 96.390, 1109.0, 33.3017
39.251507502, 96.390, 1108.0, 33.2866
39.277768068, 96.390, 1067.0, 32.6650
39.304028633, 96.390, 996.0, 31.5595
39.330289199, 96.390, 1064.0, 32.6190
39.356549764, 96.390, 1062.0, 32.5883
39.382810329, 96.390, 1081.0, 32.8786
39.409070895, 96.390, 1047.0, 32.3574
39.435331460, 96.390, 1068.0, 32.6803
39.461592025, 96.390, 1066.0, 32.6497
39.487852591, 96.390, 1036.0, 32.1870
39.514113156, 96.390, 1050.0, 32.4037
39.540373721, 96.390, 1030.0, 32.0936
39.566634287, 96.390, 1033.0, 32.1403
39.592894852, 96.390, 1045.0, 32.3265
39.619155417, 96.390, 1026.0, 32.0312
39.645415983, 96.390, 1013.0, 31.8277
39.671676548, 96.390, 1024.0, 32.0000
39.697937113, 96.390, 1119.0, 33.4515
39.724197679, 96.390, 1114.0, 33.3766
39.750458244, 96.390, 1068.0, 32.6803
39.776718810, 96.390, 1082.0, 32.8938
39.802979375, 96.390, 1061.0, 32.5730
39.829239940, 96.390, 1086.0, 32.9545
39.855500506, 96.390, 1085.0, 32.9393
39.881761071, 96.390, 993.0, 31.5119
39.908021636, 96.390, 994.0, 31.5278
39.934282202, 96.390, 1105.0, 33.2415
39.960542767, 96.390, 1119.0, 33.4515
39.986803332, 96.390, 1087.0, 32.9697
40.013063898, 96.390, 1085.0, 32.9393
40.039324463, 96.390, 1064.0, 32.6190
40.065585028, 96.390, 1123.0, 33.5112
40.091845594, 96.390, 1082.0, 32.8938
40.118106159, 96.390, 1030.0, 32.0936
40.144366725, 96.390, 1113.0, 33.3617
40.170627290, 96.390, 1049.0, 32.3883
40.196887855, 96.390, 1125.0, 33.5410
40.223148421, 96.390, 1033.0, 32.1403
40.249408986, 96.390, 1065.0, 32.6343
40.275669551, 96.390, 1000.0, 31.6228
40.301930117, 96.390, 1081.0, 32.8786
40.328190682, 96.390, 1014.0, 31.8434
40.354451247, 96.390, 970.0, 31.1448
40.380711813, 96.390, 1013.0, 31.8277
40.406972378, 96.390, 1050.0, 32.4037
40.433232943, 96.390, 985.0, 31.3847
40.459493509, 96.390, 1066.0, 32.6497
40.485754074, 96.390, 1009.0, 31.7648
40.512014639, 96.390, 982.0, 31.3369
40.538275205, 96.390, 1036.0, 32.1870
40.564535770, 96.390, 1052.0, 32.4345
40.590796336, 96.390, 1038.0, 32.2180
40.617056901, 96.390, 974.0, 31.2090
40.643317466, 96.390, 992.0, 31.4960
40.669578032, 96.390, 1043.0, 32.2955
40.695838597, 96.390, 975.0, 31.2250
40.722099162, 96.390, 1024.0, 32.0000
40.748359728, 96.390, 1007.0, 31.7333
40.774620293, 96.390, 984.0, 31.3688
40.800880858, 96.390, 977.0, 31.2570
40.827141424, 96.390, 976.0, 31.2410
40.853401989, 96.390, 1042.0, 32.2800
40.879662554, 96.390, 1026.0, 32.0312
40.905923120, 96.390, 998.0, 31.5911
40.932183685, 96.390, 1006.0, 31.7175
40.958444251, 96.390, 951.0, 30.8383
40.984704816, 96.390, 978.0, 31.2730
41.010965381, 96.390, 968.0, 31.1127
41.037225947, 96.390, 1000.0, 31.6228
41.063486512, 96.390, 950.0, 30.8221
41.089747077, 96.390, 973.0, 31.1929
41.116007643, 96.390, 954.0, 30.8869
41.142268208, 96.390, 977.0, 31.2570
41.168528773, 96.390, 968.0, 31.1127
41.194789339, 96.390, 1009.0, 31.7648
41.221049904, 96.390, 996.0, 31.5595
41.247310469, 96.390, 1016.0, 31.8748
41.273571035, 96.390, 971.0, 31.1609
41.299831600, 96.390, 1012.0, 31.8119
41.326092165, 96.390, 1024.0, 32.0000
41.352352731, 96.390, 953.0, 30.8707
41.378613296, 96.390, 1005.0, 31.7017
41.404873862, 96.390, 1042.0, 32.2800
41.431134427, 96.390, 1059.0, 32.5423
41.457394992, 96.390, 991.0, 31.4802
41.483655558, 96.390, 984.0, 31.3688
41.509916123, 96.390, 939.0, 30.6431
41.536176688, 96.390, 992.0, 31.4960
41.562437254, 96.390, 932.0, 30.5287
41.588697819, 96.390, 1027.0, 32.0468
41.614958384, 96.390, 969.0, 31.1288
41.641218950, 96.390, 964.0, 31.0483
41.667479515, 96.390, 1025.0, 32.0156
41.693740080, 96.390, 983.0, 31.3528
41.720000646, 96.390, 1022.0, 31.9687
41.746261211, 96.390, 1014.0, 31.8434
41.772521776, 96.390, 1001.0, 31.6386
41.798782342, 96.390, 1041.0, 32.2645
41.825042907, 96.390, 1107.0, 33.2716
41.851303473, 96.390, 1061.0, 32.5730
41.877564038, 96.390, 1019.0, 31.9218
41.903824603, 96.390, 1062.0, 32.5883
41.930085169, 96.390, 1050.0, 32.4037
41.956345734, 96.390, 1061.0, 32.5730
41.982606299, 96.390, 1088.0, 32.9848
42.008866865, 96.390, 1051.0, 32.4191
42.035127430, 96.390, 1067.0, 32.6650
42.061387995, 96.390, 1039.0, 32.2335
42.087648561, 96.390, 1027.0, 32.0468
42.113909126, 96.390, 1063.0, 32.6037
42.140169691, 96.390, 1029.0, 32.0780
42.166430257, 96.390, 1012.0, 31.8119
42.192690822, 96.390, 1056.0, 32.4962
42.218951388, 96.390, 1064.0, 32.6190
42.245211953, 96.390, 1096.0, 33.1059
42.271472518, 96.390, 968.0, 31.1127
42.297733084, 96.390, 1058.0, 32.5269
42.323993649, 96.390, 1053.0, 32.4500
42.350254214, 96.390, 1021.0, 31.9531
42.376514780, 96.390, 1057.0, 32.5115
42.402775345, 96.390, 1052.0, 32.4345
42.429035910, 96.390, 1006.0, 31.7175
42.455296476, 96.390, 1040.0, 32.2490
42.481557041, 96.390, 1016.0, 31.8748
42.507817606, 96.390, 1011.0, 31.7962
42.534078172, 96.390, 1079.0, 32.8481
42.560338737, 96.390, 1026.0, 32.0312
42.586599302, 96.390, 1085.0, 32.9393
42.612859868, 96.390, 999.0, 31.6070
42.639120433, 96.390, 1011.0, 31.7962
42.665380999, 96.390, 1034.0, 32.1559
42.691641564, 96.390, 1041.0, 32.2645
42.717902129, 96.390, 1055.0, 32.4808
42.744162695, 96.390, 994.0, 31.5278
42.770423260, 96.390, 1057.0, 32.5115
42.796683825, 96.390, 1019.0, 31.9218
42.822944391, 96.390, 1053.0, 32.4500
42.849204956, 96.390, 1083.0, 32.9090
42.875465521, 96.390, 1020.0, 31.9374
42.901726087, 96.390, 1066.0, 32.6497
42.927986652, 96.390, 1011.0, 31.7962
42.954247217, 96.390, 1005.0, 31.7017
42.980507783, 96.390, 1034.0, 32.1559
43.006768348, 96.390, 1114.0, 33.3766
43.033028914, 96.390, 1028.0, 32.0624
43.059289479, 96.390, 981.0, 31.3209
43.085550044, 96.390, 1019.0, 31.9218
43.111810610, 96.390, 1023.0, 31.9844
43.138071175, 96.390, 1022.0, 31.9687
43.164331740, 96.390, 1027.0, 32.0468
43.190592306, 96.390, 988.0, 31.4325
43.216852871, 96.390, 1035.0, 32.1714
43.243113436, 96.390, 999.0, 31.6070
43.269374002, 96.390, 972.0, 31.1769
43.295634567, 96.390, 973.0, 31.1929
43.321895132, 96.390, 1056.0, 32.4962
43.348155698, 96.390, 984.0, 31.3688
43.374416263, 96.390, 983.0, 31.3528
43.400676828, 96.390, 977.0, 31.2570
43.426937394, 96.390, 1033.0, 32.1403
43.453197959, 96.390, 983.0, 31.3528
43.479458525, 96.390, 999.0, 31.6070
43.505719090, 96.390, 1005.0, 31.7017
43.531979655, 96.390, 1027.0, 32.0468
43.558240221, 96.390, 1043.0, 32.2955
43.584500786, 96.390, 1013.0, 31.8277
43.610761351, 96.390, 967.0, 31.0966
43.637021917, 96.390, 990.0, 31.4643
43.663282482, 96.390, 1043.0, 32.2955
43.689543047, 96.390, 988.0, 31.4325
43.715803613, 96.390, 1018.0, 31.9061
43.742064178, 96.390, 1041.0, 32.2645
43.768324743, 96.390, 991.0, 31.4802
43.794585309, 96.390, 1051.0, 32.4191
43.820845874, 96.390, 1045.0, 32.3265
43.847106440, 96.390, 1045.0, 32.3265
43.873367005, 96.390, 930.0, 30.4959
43.899627570, 96.390, 1005.0, 31.7017
43.925888136, 96.390, 1042.0, 32.2800
43.952148701, 96.390, 1004.0, 31.6860
43.978409266, 96.390, 981.0, 31.3209
44.004669832, 96.390, 960.0, 30.9839
44.030930397, 96.390, 1002.0, 31.6544
44.057190962, 96.390, 1030.0, 32.0936
44.083451528, 96.390, 972.0, 31.1769
44.109712093, 96.390, 957.0, 30.9354
44.135972658, 96.390, 1052.0, 32.4345
44.162233224, 96.390, 971.0, 31.1609
44.188493789, 96.390, 1025.0, 32.0156
44.214754354, 96.390, 1020.0, 31.9374
44.241014920, 96.390, 1032.0, 32.1248
44.267275485, 96.390, 979.0, 31.2890
44.293536051, 96.390, 1042.0, 32.2800
44.319796616, 96.390, 1015.0, 31.8591
44.346057181, 96.390, 1004.0, 31.6860
44.372317747, 96.390, 1028.0, 32.0624
44.398578312, 96.390, 1002.0, 31.6544
44.424838877, 96.390, 1056.0, 32.4962
44.451099443, 96.390, 1024.0, 32.0000
44.477360008, 96.390, 1057.0, 32.5115
44.503620573, 96.390, 1050.0, 32.4037
44.529881139, 96.390, 1059.0, 32.5423
44.556141704, 96.390, 1022.0, 31.9687
44.582402269, 96.390, 1055.0, 32.4808
44.608662835, 96.390, 1092.0, 33.0454
44.634923400, 96.390, 1036.0, 32.1870
44.661183966, 96.390, 1057.0, 32.5115
44.687444531, 96.390, 1032.0, 32.1248
44.713705096, 96.390, 1032.0, 32.1248
44.739965662, 96.390, 1019.0, 31.9218
44.766226227, 96.390, 1040.0, 32.2490
44.792486792, 96.390, 1113.0, 33.3617
44.818747358, 96.390, 1033.0, 32.1403
44.845007923, 96.390, 1112.0, 33.3467
44.871268488, 96.390, 996.0, 31.5595
44.897529054, 96.390, 1029.0, 32.0780
44.923789619, 96.390, 1069.0, 32.6956
44.950050184, 96.390, 1041.0, 32.2645
44.976310750, 96.390, 975.0, 31.2250
45.002571315, 96.390, 1000.0, 31.6228
45.028831880, 96.390, 1006.0, 31.7175
45.055092446, 96.390, 1000.0, 31.6228
45.081353011, 96.390, 938.0, 30.6268
45.107613577, 96.390, 993.0, 31.5119
45.133874142, 96.390, 955.0, 30.9031
45.160134707, 96.390, 988.0, 31.4325
45.186395273, 96.390, 1038.0, 32.2180
45.212655838, 96.390, 931.0, 30.5123
45.238916403, 96.390, 949.0, 30.8058
45.265176969, 96.390, 952.0, 30.8545
45.291437534, 96.390, 967.0, 31.0966
45.317698099, 96.390, 1013.0, 31.8277
45.343958665, 96.390, 935.0, 30.5778
45.370219230, 96.390, 928.0, 30.4631
45.396479795, 96.390, 915.0, 30.2490
45.422740361, 96.390, 914.0, 30.2324
45.449000926, 96.390, 963.0, 31.0322
45.475261492, 96.390, 944.0, 30.7246
45.501522057, 96.390, 859.0, 29.3087
45.527782622, 96.390, 965.0, 31.0644
45.554043188, 96.390, 909.0, 30.1496
45.580303753, 96.390, 900.0, 30.0000
45.606564318, 96.390, 923.0, 30.3809
45.632824884, 96.390, 897.0, 29.9500
45.659085449, 96.390, 874.0, 29.5635
45.685346014, 96.390, 921.0, 30.3480
45.711606580, 96.390, 838.0, 28.9482
45.737867145, 96.390, 901.0, 30.0167
45.764127710, 96.390, 899.0, 29.9833
45.790388276, 96.390, 925.0, 30.4138
45.816648841, 96.390, 872.0, 29.5296
45.842909406, 96.390, 883.0, 29.7153
45.869169972, 96.390, 926.0, 30.4302
45.895430537, 96.390, 930.0, 30.4959
45.921691103, 96.390, 940.0, 30.6594
45.947951668, 96.390, 926.0, 30.4302
45.974212233, 96.390, 919.0, 30.3150
46.000472799, 96.390, 890.0, 29.8329
46.026733364, 96.390, 905.0, 30.0832
46.052993929, 96.390, 907.0, 30.1164
46.079254495, 96.390, 845.0, 29.0689
46.105515060, 96.390, 915.0, 30.2490
46.131775625, 96.390, 939.0, 30.6431
46.158036191, 96.390, 929.0, 30.4795
46.184296756, 96.390, 929.0, 30.4795
46.210557321, 96.390, 917.0, 30.2820
46.236817887, 96.390, 910.0, 30.1662
46.263078452, 96.390, 885.0, 29.7489
46.289339017, 96.390, 927.0, 30.4467
46.315599583, 96.390, 870.0, 29.4958
46.341860148, 96.390, 904.0, 30.0666
46.368120714, 96.390, 894.0, 29.8998
46.394381279, 96.390, 887.0, 29.7825
46.420641844, 96.390, 832.0, 28.8444
46.446902410, 96.390, 866.0, 29.4279
46.473162975, 96.390, 874.0, 29.5635
46.499423540, 96.390, 930.0, 30.4959
46.525684106, 96.390, 923.0, 30.3809
46.551944671, 96.390, 858.0, 29.2916
46.578205236, 96.390, 944.0, 30.7246
46.604465802, 96.390, 906.0, 30.0998
46.630726367, 96.390, 838.0, 28.9482
46.656986932, 96.390, 855.0, 29.2404
46.683247498, 96.390, 834.0, 28.8791
46.709508063, 96.390, 838.0, 28.9482
46.735768629, 96.390, 869.0, 29.4788
46.762029194, 96.390, 847.0, 29.1033
46.788289759, 96.390, 855.0, 29.2404
46.814550325, 96.390, 877.0, 29.6142
46.840810890, 96.390, 818.0, 28.6007
46.867071455, 96.390, 835.0, 28.8964
46.893332021, 96.390, 884.0, 29.7321
46.919592586, 96.390, 848.0, 29.1204
46.945853151, 96.390, 892.0, 29.8664
46.972113717, 96.390, 809.0, 28.4429
46.998374282, 96.390, 905.0, 30.0832
47.024634847, 96.390, 878.0, 29.6311
47.050895413, 96.390, 847.0, 29.1033
47.077155978, 96.390, 916.0, 30.2655
47.103416543, 96.390, 925.0, 30.4138
47.129677109, 96.390, 866.0, 29.4279
47.155937674, 96.390, 901.0, 30.0167
47.182198240, 96.390, 871.0, 29.5127
47.208458805, 96.390, 883.0, 29.7153
47.234719370, 96.390, 823.0, 28.6880
47.260979936, 96.390, 862.0, 29.3598
47.287240501, 96.390, 837.0, 28.9310
47.313501066, 96.390, 806.0, 28.3901
47.339761632, 96.390, 853.0, 29.2062
47.366022197, 96.390, 877.0, 29.6142
47.392282762, 96.390, 841.0, 29.0000
47.418543328, 96.390, 846.0, 29.0861
47.444803893, 96.390, 849.0, 29.1376
47.471064458, 96.390, 820.0, 28.6356
47.497325024, 96.390, 882.0, 29.6985
47.523585589, 96.390, 896.0, 29.9333
47.549846155, 96.390, 836.0, 28.9137
47.576106720, 96.390, 860.0, 29.3258
47.602367285, 96.390, 835.0, 28.8964
47.628627851, 96.390, 789.0, 28.0891
47.654888416, 96.390, 853.0, 29.2062
47.681148981, 96.390, 805.0, 28.3725
47.707409547, 96.390, 805.0, 28.3725
47.733670112, 96.390, 804.0, 28.3549
47.759930677, 96.390, 934.0, 30.5614
47.786191243, 96.390, 892.0, 29.8664
47.812451808, 96.390, 807.0, 28.4077
47.838712373, 96.390, 771.0, 27.7669
47.864972939, 96.390, 821.0, 28.6531
47.891233504, 96.390, 782.0, 27.9643
47.917494069, 96.390, 859.0, 29.3087
47.943754635, 96.390, 845.0, 29.0689
47.970015200, 96.390, 848.0, 29.1204
47.996275766, 96.390, 833.0, 28.8617
48.022536331, 96.390, 802.0, 28.3196
48.048796896, 96.390, 851.0, 29.1719
48.075057462, 96.390, 864.0, 29.3939
48.101318027, 96.390, 831.0, 28.8271
48.127578592, 96.390, 815.0, 28.5482
48.153839158, 96.390, 848.0, 29.1204
48.180099723, 96.390, 848.0, 29.1204
48.206360288, 96.390, 838.0, 28.9482
48.232620854, 96.390, 840.0, 28.9828
48.258881419, 96.390, 882.0, 29.6985
48.285141984, 96.390, 911.0, 30.1828
48.311402550, 96.390, 845.0, 29.0689
48.337663115, 96.390, 866.0, 29.4279
48.363923681, 96.390, 864.0, 29.3939
48.390184246, 96.390, 851.0, 29.1719
48.416444811, 96.390, 813.0, 28.5132
48.442705377, 96.390, 867.0, 29.4449
48.468965942, 96.390, 903.0, 30.0500
48.495226507, 96.390, 771.0, 27.7669
48.521487073, 96.390, 926.0, 30.4302
48.547747638, 96.390, 900.0, 30.0000
48.574008203, 96.390, 840.0, 28.9828
48.600268769, 96.390, 813.0, 28.5132
48.626529334, 96.390, 877.0, 29.6142
48.652789899, 96.390, 848.0, 29.1204
48.679050465, 96.390, 829.0, 28.7924
48.705311030, 96.390, 846.0, 29.0861
48.731571595, 96.390, 887.0, 29.7825
48.757832161, 96.390, 896.0, 29.9333
48.784092726, 96.390, 872.0, 29.5296
48.810353292, 96.390, 908.0, 30.1330
48.836613857, 96.390, 911.0, 30.1828
48.862874422, 96.390, 861.0, 29.3428
48.889134988, 96.390, 807.0, 28.4077
48.915395553, 96.390, 926.0, 30.4302
48.941656118, 96.390, 902.0, 30.0333
48.967916684, 96.390, 886.0, 29.7658
48.994177249, 96.390, 870.0, 29.4958
49.020437814, 96.390, 885.0, 29.7489
49.046698380, 96.390, 916.0, 30.2655
49.072958945, 96.390, 927.0, 30.4467
49.099219510, 96.390, 856.0, 29.2575
49.125480076, 96.390, 865.0, 29.4109
49.151740641, 96.390, 910.0, 30.1662
49.178001207, 96.390, 913.0, 30.2159
49.204261772, 96.390, 884.0, 29.7321
49.230522337, 96.390, 872.0, 29.5296
49.256782903, 96.390, 867.0, 29.4449
49.283043468, 96.390, 876.0, 29.5973
49.309304033, 96.390, 894.0, 29.8998
49.335564599, 96.390, 831.0, 28.8271
49.361825164, 96.390, 889.0, 29.8161
49.388085729, 96.390, 899.0, 29.9833
49.414346295, 96.390, 866.0, 29.4279
49.440606860, 96.390, 799.0, 28.2666
49.466867425, 96.390, 843.0, 29.0345
49.493127991, 96.390, 855.0, 29.2404
49.519388556, 96.390, 847.0, 29.1033
49.545649121, 96.390, 875.0, 29.5804
49.571909687, 96.390, 854.0, 29.2233
49.598170252, 96.390, 837.0, 28.9310
49.624430818, 96.390, 872.0, 29.5296
49.650691383, 96.390, 865.0, 29.4109
49.676951948, 96.390, 844.0, 29.0517
49.703212514, 96.390, 818.0, 28.6007
49.729473079, 96.390, 840.0, 28.9828
49.755733644, 96.390, 836.0, 28.9137
49.781994210, 96.390, 831.0, 28.8271
49.808254775, 96.390, 810.0, 28.4605
49.834515340, 96.390, 806.0, 28.3901
49.860775906, 96.390, 846.0, 29.0861
49.887036471, 96.390, 852.0, 29.1890
49.913297036, 96.390, 813.0, 28.5132
49.939557602, 96.390, 781.0, 27.9464
49.965818167, 96.390, 773.0, 27.8029
49.992078733, 96.390, 771.0, 27.7669
50.018339298, 96.390, 770.0, 27.7489
50.044599863, 96.390, 782.0, 27.9643
50.070860429, 96.390, 892.0, 29.8664
50.097120994, 96.390, 807.0, 28.4077
50.123381559, 96.390, 832.0, 28.8444
50.149642125, 96.390, 786.0, 28.0357
50.175902690, 96.390, 768.0, 27.7128
50.202163255, 96.390, 799.0, 28.2666
50.228423821, 96.390, 863.0, 29.3769
50.254684386, 96.390, 771.0, 27.7669
50.280944951, 96.390, 843.0, 29.0345
50.307205517, 96.390, 823.0, 28.6880
50.333466082, 96.390, 731.0, 27.0370
50.359726647, 96.390, 807.0, 28.4077
50.385987213, 96.390, 834.0, 28.8791
50.412247778, 96.390, 820.0, 28.6356
50.438508344, 96.390, 848.0, 29.1204
50.464768909, 96.390, 804.0, 28.3549
50.491029474, 96.390, 800.0, 28.2843
50.517290040, 96.390, 836.0, 28.9137
50.543550605, 96.390, 847.0, 29.1033
50.569811170, 96.390, 845.0, 29.0689
50.596071736, 96.390, 860.0, 29.3258
50.622332301, 96.390, 881.0, 29.6816
50.648592866, 96.390, 804.0, 28.3549
50.674853432, 96.390, 863.0, 29.3769
50.701113997, 96.390, 799.0, 28.2666
50.727374562, 96.390, 866.0, 29.4279
50.753635128, 96.390, 857.0, 29.2746
50.779895693, 96.390, 864.0, 29.3939
50.806156258, 96.390, 864.0, 29.3939
50.832416824, 96.390, 851.0, 29.1719
50.858677389, 96.390, 817.0, 28.5832
50.884937955, 96.390, 856.0, 29.2575
50.911198520, 96.390, 804.0, 28.3549
50.937459085, 96.390, 838.0, 28.9482
50.963719651, 96.390, 826.0, 28.7402
50.989980216, 96.390, 816.0, 28.5657
51.016240781, 96.390, 780.0, 27.9285
51.042501347, 96.390, 843.0, 29.0345
51.068761912, 96.390, 876.0, 29.5973
51.095022477, 96.390, 818.0, 28.6007
51.121283043, 96.390, 811.0, 28.4781
51.147543608, 96.390, 786.0, 28.0357
51.173804173, 96.390, 769.0, 27.7308
51.200064739, 96.390, 857.0, 29.2746
51.226325304, 96.390, 766.0, 27.6767
51.252585870, 96.390, 782.0, 27.9643
51.278846435, 96.390, 801.0, 28.3019
51.305107000, 96.390, 791.0, 28.1247
51.331367566, 96.390, 752.0, 27.4226
51.357628131, 96.390, 822.0, 28.6705
51.383888696, 96.390, 764.0, 27.6405
51.410149262, 96.390, 828.0, 28.7750
51.436409827, 96.390, 778.0, 27.8927
51.462670392, 96.390, 814.0, 28.5307
51.488930958, 96.390, 781.0, 27.9464
51.515191523, 96.390, 806.0, 28.3901
51.541452088, 96.390, 759.0, 27.5500
51.567712654, 96.390, 760.0, 27.5681
51.593973219, 96.390, 773.0, 27.8029
51.620233784, 96.390, 759.0, 27.5500
51.646494350, 96.390, 828.0, 28.7750
51.672754915, 96.390, 800.0, 28.2843
51.699015481, 96.390, 771.0, 27.7669
51.725276046, 96.390, 728.0, 26.9815
51.751536611, 96.390, 775.0, 27.8388
51.777797177, 96.390, 782.0, 27.9643
51.804057742, 96.390, 747.0, 27.3313
51.830318307, 96.390, 759.0, 27.5500
51.856578873, 96.390, 744.0, 27.2764
51.882839438, 96.390, 765.0, 27.6586
51.909100003, 96.390, 713.0, 26.7021
51.935360569, 96.390, 791.0, 28.1247
51.961621134, 96.390, 749.0, 27.3679
51.987881699, 96.390, 713.0, 26.7021
52.014142265, 96.390, 730.0, 27.0185
52.040402830, 96.390, 740.0, 27.2029
52.066663396, 96.390, 733.0, 27.0740
52.092923961, 96.390, 729.0, 27.0000
52.119184526, 96.390, 800.0, 28.2843
52.145445092, 96.390, 763.0, 27.6225
52.171705657, 96.390, 727.0, 26.9629
52.197966222, 96.390, 684.0, 26.1534
52.224226788, 96.390, 750.0, 27.3861
52.250487353, 96.390, 820.0, 28.6356
52.276747918, 96.390, 697.0, 26.4008
52.303008484, 96.390, 761.0, 27.5862
52.329269049, 96.390, 778.0, 27.8927
52.355529614, 96.390, 774.0, 27.8209
52.381790180, 96.390, 769.0, 27.7308
52.408050745, 96.390, 814.0, 28.5307
52.434311310, 96.390, 748.0, 27.3496
52.460571876, 96.390, 815.0, 28.5482
52.486832441, 96.390, 742.0, 27.2397
52.513093007, 96.390, 682.0, 26.1151
52.539353572, 96.390, 726.0, 26.9444
52.565614137, 96.390, 770.0, 27.7489
52.591874703, 96.390, 758.0, 27.5318
52.618135268, 96.390, 713.0, 26.7021
52.644395833, 96.390, 727.0, 26.9629
52.670656399, 96.390, 763.0, 27.6225
52.696916964, 96.390, 739.0, 27.1846
52.723177529, 96.390, 765.0, 27.6586
52.749438095, 96.390, 752.0, 27.4226
52.775698660, 96.390, 772.0, 27.7849
52.801959225, 96.390, 760.0, 27.5681
52.828219791, 96.390, 794.0, 28.1780
52.854480356, 96.390, 747.0, 27.3313
52.880740922, 96.390, 752.0, 27.4226
52.907001487, 96.390, 788.0, 28.0713
52.933262052, 96.390, 766.0, 27.6767
52.959522618, 96.390, 780.0, 27.9285
52.985783183, 96.390, 747.0, 27.3313
53.012043748, 96.390, 805.0, 28.3725
53.038304314, 96.390, 778.0, 27.8927
53.064564879, 96.390, 800.0, 28.2843
53.090825444, 96.390, 789.0, 28.0891
53.117086010, 96.390, 801.0, 28.3019
53.143346575, 96.390, 760.0, 27.5681
53.169607140, 96.390, 800.0, 28.2843
53.195867706, 96.390, 763.0, 27.6225
53.222128271, 96.390, 835.0, 28.8964
53.248388836, 96.390, 727.0, 26.9629
53.274649402, 96.390, 810.0, 28.4605
53.300909967, 96.390, 785.0, 28.0179
53.327170533, 96.390, 831.0, 28.8271
53.353431098, 96.390, 756.0, 27.4955
53.379691663, 96.390, 712.0, 26.6833
53.405952229, 96.390, 780.0, 27.9285
53.432212794, 96.390, 734.0, 27.0924
53.458473359, 96.390, 754.0, 27.4591
53.484733925, 96.390, 778.0, 27.8927
53.510994490, 96.390, 743.0, 27.2580
53.537255055, 96.390, 760.0, 27.5681
53.563515621, 96.390, 805.0, 28.3725
53.589776186, 96.390, 764.0, 27.6405
53.616036751, 96.390, 701.0, 26.4764
53.642297317, 96.390, 767.0, 27.6948
53.668557882, 96.390, 809.0, 28.4429
53.694818448, 96.390, 733.0, 27.0740
53.721079013, 96.390, 732.0, 27.0555
53.747339578, 96.390, 700.0, 26.4575
53.773600144, 96.390, 777.0, 27.8747
53.799860709, 96.390, 780.0, 27.9285
53.826121274, 96.390, 780.0, 27.9285
53.852381840, 96.390, 784.0, 28.0000
53.878642405, 96.390, 784.0, 28.0000
53.904902970, 96.390, 786.0, 28.0357
53.931163536, 96.390, 845.0, 29.0689
53.957424101, 96.390, 756.0, 27.4955
53.983684666, 96.390, 807.0, 28.4077
54.009945232, 96.390, 752.0, 27.4226
54.036205797, 96.390, 760.0, 27.5681
54.062466362, 96.390, 774.0, 27.8209
54.088726928, 96.390, 793.0, 28.1603
54.114987493, 96.390, 808.0, 28.4253
54.141248059, 96.390, 779.0, 27.9106
54.167508624, 96.390, 758.0, 27.5318
54.193769189, 96.390, 752.0, 27.4226
54.220029755, 96.390, 751.0, 27.4044
54.246290320, 96.390, 755.0, 27.4773
54.272550885, 96.390, 730.0, 27.0185
54.298811451, 96.390, 743.0, 27.2580
54.325072016, 96.390, 776.0, 27.8568
54.351332581, 96.390, 836.0, 28.9137
54.377593147, 96.390, 782.0, 27.9643
54.403853712, 96.390, 746.0, 27.3130
54.430114277, 96.390, 776.0, 27.8568
54.456374843, 96.390, 746.0, 27.3130
54.482635408, 96.390, 794.0, 28.1780
54.508895973, 96.390, 766.0, 27.6767
54.535156539, 96.390, 768.0, 27.7128
54.561417104, 96.390, 784.0, 28.0000
54.587677670, 96.390, 763.0, 27.6225
54.613938235, 96.390, 758.0, 27.5318
54.640198800, 96.390, 804.0, 28.3549
54.666459366, 96.390, 740.0, 27.2029
54.692719931, 96.390, 778.0, 27.8927
54.718980496, 96.390, 769.0, 27.7308
54.745241062, 96.390, 725.0, 26.9258
54.771501627, 96.390, 770.0, 27.7489
54.797762192, 96.390, 720.0, 26.8328
54.824022758, 96.390, 700.0, 26.4575
54.850283323, 96.390, 732.0, 27.0555
54.876543888, 96.390, 736.0, 27.1293
54.902804454, 96.390, 751.0, 27.4044
54.929065019, 96.390, 720.0, 26.8328
54.955325585, 96.390, 778.0, 27.8927
54.981586150, 96.390, 662.0, 25.7294
55.007846715, 96.390, 744.0, 27.2764
55.034107281, 96.390, 768.0, 27.7128
55.060367846, 96.390, 732.0, 27.0555
55.086628411, 96.390, 760.0, 27.5681
55.112888977, 96.390, 774.0, 27.8209
55.139149542, 96.390, 765.0, 27.6586
55.165410107, 96.390, 731.0, 27.0370
55.191670673, 96.390, 776.0, 27.8568
55.217931238, 96.390, 835.0, 28.8964
55.244191803, 96.390, 757.0, 27.5136
55.270452369, 96.390, 775.0, 27.8388
55.296712934, 96.390, 741.0, 27.2213
55.322973499, 96.390, 730.0, 27.0185
55.349234065, 96.390, 751.0, 27.4044
55.375494630, 96.390, 809.0, 28.4429
55.401755196, 96.390, 721.0, 26.8514
55.428015761, 96.390, 803.0, 28.3373
55.454276326, 96.390, 770.0, 27.7489
55.480536892, 96.390, 754.0, 27.4591
55.506797457, 96.390, 754.0, 27.4591
55.533058022, 96.390, 842.0, 29.0172
55.559318588, 96.390, 710.0, 26.6458
55.585579153, 96.390, 750.0, 27.3861
55.611839718, 96.390, 832.0, 28.8444
55.638100284, 96.390, 757.0, 27.5136
55.664360849, 96.390, 763.0, 27.6225
55.690621414, 96.390, 777.0, 27.8747
55.716881980, 96.390, 737.0, 27.1477
55.743142545, 96.390, 795.0, 28.1957
55.769403111, 96.390, 733.0, 27.0740
55.795663676, 96.390, 743.0, 27.2580
55.821924241, 96.390, 739.0, 27.1846
55.848184807, 96.390, 822.0, 28.6705
55.874445372, 96.390, 774.0, 27.8209
55.900705937, 96.390, 752.0, 27.4226
55.926966503, 96.390, 726.0, 26.9444
55.953227068, 96.390, 789.0, 28.0891
55.979487633, 96.390, 750.0, 27.3861
56.005748199, 96.390, 737.0, 27.1477
56.032008764, 96.390, 753.0, 27.4408
56.058269329, 96.390, 715.0, 26.7395
56.084529895, 96.390, 708.0, 26.6083
56.110790460, 96.390, 780.0, 27.9285
56.137051025, 96.390, 751.0, 27.4044
56.163311591, 96.390, 770.0, 27.7489
56.189572156, 96.390, 797.0, 28.2312
56.215832722, 96.390, 710.0, 26.6458
56.242093287, 96.390, 732.0, 27.0555
56.268353852, 96.390, 710.0, 26.6458
56.294614418, 96.390, 735.0, 27.1109
56.320874983, 96.390, 736.0, 27.1293
56.347135548, 96.390, 704.0, 26.5330
56.373396114, 96.390, 733.0, 27.0740
56.399656679, 96.390, 721.0, 26.8514
56.425917244, 96.390, 712.0, 26.6833
56.452177810, 96.390, 735.0, 27.1109
56.478438375, 96.390, 775.0, 27.8388
56.504698940, 96.390, 696.0, 26.3818
56.530959506, 96.390, 687.0, 26.2107
56.557220071, 96.390, 699.0, 26.4386
56.583480637, 96.390, 717.0, 26.7769
56.609741202, 96.390, 722.0, 26.8701
56.636001767, 96.390, 720.0, 26.8328
56.662262333, 96.390, 714.0, 26.7208
56.688522898, 96.390, 779.0, 27.9106
56.714783463, 96.390, 738.0, 27.1662
56.741044029, 96.390, 740.0, 27.2029
56.767304594, 96.390, 732.0, 27.0555
56.793565159, 96.390, 690.0, 26.2679
56.819825725, 96.390, 740.0, 27.2029
56.846086290, 96.390, 755.0, 27.4773
56.872346855, 96.390, 721.0, 26.8514
56.898607421, 96.390, 699.0, 26.4386
56.924867986, 96.390, 714.0, 26.7208
56.951128551, 96.390, 727.0, 26.9629
56.977389117, 96.390, 645.0, 25.3969
57.003649682, 96.390, 689.0, 26.2488
57.029910248, 96.390, 736.0, 27.1293
57.056170813, 96.390, 756.0, 27.4955
57.082431378, 96.390, 716.0, 26.7582
57.108691944, 96.390, 695.0, 26.3629
57.134952509, 96.390, 731.0, 27.0370
57.161213074, 96.390, 754.0, 27.4591
57.187473640, 96.390, 723.0, 26.8887
57.213734205, 96.390, 732.0, 27.0555
57.239994770, 96.390, 729.0, 27.0000
57.266255336, 96.390, 750.0, 27.3861
57.292515901, 96.390, 724.0, 26.9072
57.318776466, 96.390, 718.0, 26.7955
57.345037032, 96.390, 739.0, 27.1846
57.371297597, 96.390, 705.0, 26.5518
57.397558163, 96.390, 730.0, 27.0185
57.423818728, 96.390, 667.0, 25.8263
57.450079293, 96.390, 715.0, 26.7395
57.476339859, 96.390, 681.0, 26.0960
57.502600424, 96.390, 736.0, 27.1293
57.528860989, 96.390, 724.0, 26.9072
57.555121555, 96.390, 747.0, 27.3313
57.581382120, 96.390, 732.0, 27.0555
57.607642685, 96.390, 714.0, 26.7208
57.633903251, 96.390, 748.0, 27.3496
57.660163816, 96.390, 770.0, 27.7489
57.686424381, 96.390, 746.0, 27.3130
57.712684947, 96.390, 702.0, 26.4953
57.738945512, 96.390, 778.0, 27.8927
57.765206077, 96.390, 743.0, 27.2580
57.791466643, 96.390, 711.0, 26.6646
57.817727208, 96.390, 721.0, 26.8514
57.843987774, 96.390, 726.0, 26.9444
57.870248339, 96.390, 745.0, 27.2947
57.896508904, 96.390, 764.0, 27.6405
57.922769470, 96.390, 761.0, 27.5862
57.949030035, 96.390, 736.0, 27.1293
57.975290600, 96.390, 701.0, 26.4764
58.001551166, 96.390, 751.0, 27.4044
58.027811731, 96.390, 752.0, 27.4226
58.054072296, 96.390, 765.0, 27.6586
58.080332862, 96.390, 696.0, 26.3818
58.106593427, 96.390, 784.0, 28.0000
58.132853992, 96.390, 699.0, 26.4386
58.159114558, 96.390, 706.0, 26.5707
58.185375123, 96.390, 715.0, 26.7395
58.211635689, 96.390, 714.0, 26.7208
58.237896254, 96.390, 678.0, 26.0384
58.264156819, 96.390, 715.0, 26.7395
58.290417385, 96.390, 737.0, 27.1477
58.316677950, 96.390, 663.0, 25.7488
58.342938515, 96.390, 747.0, 27.3313
58.369199081, 96.390, 735.0, 27.1109
58.395459646, 96.390, 679.0, 26.0576
58.421720211, 96.390, 700.0, 26.4575
58.447980777, 96.390, 697.0, 26.4008
58.474241342, 96.390, 683.0, 26.1343
58.500501907, 96.390, 728.0, 26.9815
58.526762473, 96.390, 748.0, 27.3496
58.553023038, 96.390, 705.0, 26.5518
58.579283603, 96.390, 686.0, 26.1916
58.605544169, 96.390, 710.0, 26.6458
58.631804734, 96.390, 713.0, 26.7021
58.658065300, 96.390, 788.0, 28.0713
58.684325865, 96.390, 735.0, 27.1109
58.710586430, 96.390, 711.0, 26.6646
58.736846996, 96.390, 721.0, 26.8514
58.763107561, 96.390, 724.0, 26.9072
58.789368126, 96.390, 733.0, 27.0740
58.815628692, 96.390, 681.0, 26.0960
58.841889257, 96.390, 732.0, 27.0555
58.868149822, 96.390, 669.0, 25.8650
58.894410388, 96.390, 718.0, 26.7955
58.920670953, 96.390, 722.0, 26.8701
58.946931518, 96.390, 673.0, 25.9422
58.973192084, 96.390, 726.0, 26.9444
58.999452649, 96.390, 666.0, 25.8070
59.025713214, 96.390, 693.0, 26.3249
59.051973780, 96.390, 712.0, 26.6833
59.078234345, 96.390, 664.0, 25.7682
59.104494911, 96.390, 679.0, 26.0576
59.130755476, 96.390, 673.0, 25.9422
59.157016041, 96.390, 690.0, 26.2679
59.183276607, 96.390, 673.0, 25.9422
59.209537172, 96.390, 679.0, 26.0576
59.235797737, 96.390, 685.0, 26.1725
59.262058303, 96.390, 697.0, 26.4008
59.288318868, 96.390, 688.0, 26.2298
59.314579433, 96.390, 691.0, 26.2869
59.340839999, 96.390, 673.0, 25.9422
59.367100564, 96.390, 634.0, 25.1794
59.393361129, 96.390, 673.0, 25.9422
59.419621695, 96.390, 725.0, 26.9258
59.445882260, 96.390, 668.0, 25.8457
59.472142826, 96.390, 680.0, 26.0768
59.498403391, 96.390, 687.0, 26.2107
59.524663956, 96.390, 646.0, 25.4165
59.550924522, 96.390, 733.0, 27.0740
59.577185087, 96.390, 762.0, 27.6043
59.603445652, 96.390, 705.0, 26.5518
59.629706218, 96.390, 749.0, 27.3679
59.655966783, 96.390, 724.0, 26.9072
59.682227348, 96.390, 722.0, 26.8701
59.708487914, 96.390, 668.0, 25.8457
59.734748479, 96.390, 679.0, 26.0576
59.761009044, 96.390, 704.0, 26.5330
59.787269610, 96.390, 694.0, 26.3439
59.813530175, 96.390, 699.0, 26.4386
59.839790740, 96.390, 654.0, 25.5734
59.866051306, 96.390, 662.0, 25.7294
59.892311871, 96.390, 687.0, 26.2107
59.918572437, 96.390, 675.0, 25.9808
59.944833002, 96.390, 688.0, 26.2298
59.971093567, 96.390, 678.0, 26.0384
59.997354133, 96.390, 717.0, 26.7769
60.023614698, 96.390, 754.0, 27.4591
60.049875263, 96.390, 700.0, 26.4575
60.076135829, 96.390, 682.0, 26.1151
60.102396394, 96.390, 735.0, 27.1109
60.128656959, 96.390, 697.0, 26.4008
60.154917525, 96.390, 714.0, 26.7208
60.181178090, 96.390, 729.0, 27.0000
60.207438655, 96.390, 672.0, 25.9230
60.233699221, 96.390, 714.0, 26.7208
60.259959786, 96.390, 703.0, 26.5141
60.286220352, 96.390, 740.0, 27.2029
60.312480917, 96.390, 662.0, 25.7294
60.338741482, 96.390, 691.0, 26.2869
60.365002048, 96.390, 689.0, 26.2488
60.391262613, 96.390, 718.0, 26.7955
60.417523178, 96.390, 730.0, 27.0185
60.443783744, 96.390, 700.0, 26.4575
60.470044309, 96.390, 662.0, 25.7294
60.496304874, 96.390, 769.0, 27.7308
60.522565440, 96.390, 686.0, 26.1916
60.548826005, 96.390, 749.0, 27.3679
60.575086570, 96.390, 696.0, 26.3818
60.601347136, 96.390, 718.0, 26.7955
60.627607701, 96.390, 692.0, 26.3059
60.653868266, 96.390, 697.0, 26.4008
60.680128832, 96.390, 693.0, 26.3249
60.706389397, 96.390, 684.0, 26.1534
60.732649963, 96.390, 686.0, 26.1916
60.758910528, 96.390, 700.0, 26.4575
60.785171093, 96.390, 705.0, 26.5518
60.811431659, 96.390, 702.0, 26.4953
60.837692224, 96.390, 737.0, 27.1477
60.863952789, 96.390, 728.0, 26.9815
60.890213355, 96.390, 671.0, 25.9037
60.916473920, 96.390, 720.0, 26.8328
60.942734485, 96.390, 762.0, 27.6043
60.968995051, 96.390, 655.0, 25.5930
60.995255616, 96.390, 694.0, 26.3439
61.021516181, 96.390, 682.0, 26.1151
61.047776747, 96.390, 657.0, 25.6320
61.074037312, 96.390, 703.0, 26.5141
61.100297878, 96.390, 681.0, 26.0960
61.126558443, 96.390, 694.0, 26.3439
61.152819008, 96.390, 684.0, 26.1534
61.179079574, 96.390, 741.0, 27.2213
61.205340139, 96.390, 748.0, 27.3496
61.231600704, 96.390, 731.0, 27.0370
61.257861270, 96.390, 668.0, 25.8457
61.284121835, 96.390, 741.0, 27.2213
61.310382400, 96.390, 667.0, 25.8263
61.336642966, 96.390, 713.0, 26.7021
61.362903531, 96.390, 687.0, 26.2107
61.389164096, 96.390, 675.0, 25.9808
61.415424662, 96.390, 661.0, 25.7099
61.441685227, 96.390, 726.0, 26.9444
61.467945792, 96.390, 689.0, 26.2488
61.494206358, 96.390, 700.0, 26.4575
61.520466923, 96.390, 702.0, 26.4953
61.546727489, 96.390, 684.0, 26.1534
61.572988054, 96.390, 672.0, 25.9230
61.599248619, 96.390, 661.0, 25.7099
61.625509185, 96.390, 691.0, 26.2869
61.651769750, 96.390, 680.0, 26.0768
61.678030315, 96.390, 687.0, 26.2107
61.704290881, 96.390, 611.0, 24.7184
61.730551446, 96.390, 657.0, 25.6320
61.756812011, 96.390, 649.0, 25.4755
61.783072577, 96.390, 679.0, 26.0576
61.809333142, 96.390, 734.0, 27.0924
61.835593707, 96.390, 706.0, 26.5707
61.861854273, 96.390, 685.0, 26.1725
61.888114838, 96.390, 708.0, 26.6083
61.914375404, 96.390, 711.0, 26.6646
61.940635969, 96.390, 674.0, 25.9615
61.966896534, 96.390, 681.0, 26.0960
61.993157100, 96.390, 683.0, 26.1343
62.019417665, 96.390, 664.0, 25.7682
62.045678230, 96.390, 671.0, 25.9037
62.071938796, 96.390, 656.0, 25.6125
62.098199361, 96.390, 700.0, 26.4575
62.124459926, 96.390, 674.0, 25.9615
62.150720492, 96.390, 701.0, 26.4764
62.176981057, 96.390, 640.0, 25.2982
62.203241622, 96.390, 716.0, 26.7582
62.229502188, 96.390, 731.0, 27.0370
62.255762753, 96.390, 687.0, 26.2107
62.282023318, 96.390, 663.0, 25.7488
62.308283884, 96.390, 646.0, 25.4165
62.334544449, 96.390, 656.0, 25.6125
62.360805015, 96.390, 697.0, 26.4008
62.387065580, 96.390, 692.0, 26.3059
62.413326145, 96.390, 639.0, 25.2784
62.439586711, 96.390, 690.0, 26.2679
62.465847276, 96.390, 693.0, 26.3249
62.492107841, 96.390, 703.0, 26.5141
62.518368407, 96.390, 682.0, 26.1151
62.544628972, 96.390, 638.0, 25.2587
62.570889537, 96.390, 700.0, 26.4575
62.597150103, 96.390, 674.0, 25.9615
62.623410668, 96.390, 663.0, 25.7488
62.649671233, 96.390, 702.0, 26.4953
62.675931799, 96.390, 707.0, 26.5895
62.702192364, 96.390, 667.0, 25.8263
62.728452930, 96.390, 653.0, 25.5539
62.754713495, 96.390, 693.0, 26.3249
62.780974060, 96.390, 657.0, 25.6320
62.807234626, 96.390, 634.0, 25.1794
62.833495191, 96.390, 639.0, 25.2784
62.859755756, 96.390, 714.0, 26.7208
62.886016322, 96.390, 649.0, 25.4755
62.912276887, 96.390, 616.0, 24.8193
62.938537452, 96.390, 647.0, 25.4362
62.964798018, 96.390, 626.0, 25.0200
62.991058583, 96.390, 651.0, 25.5147
63.017319148, 96.390, 644.0, 25.3772
63.043579714, 96.390, 647.0, 25.4362
63.069840279, 96.390, 675.0, 25.9808
63.096100844, 96.390, 658.0, 25.6515
63.122361410, 96.390, 623.0, 24.9600
63.148621975, 96.390, 654.0, 25.5734
63.174882541, 96.390, 601.0, 24.5153
63.201143106, 96.390, 640.0, 25.2982
63.227403671, 96.390, 611.0, 24.7184
63.253664237, 96.390, 619.0, 24.8797
63.279924802, 96.390, 646.0, 25.4165
63.306185367, 96.390, 660.0, 25.6905
63.332445933, 96.390, 647.0, 25.4362
63.358706498, 96.390, 610.0, 24.6982
63.384967063, 96.390, 606.0, 24.6171
63.411227629, 96.390, 644.0, 25.3772
63.437488194, 96.390, 583.0, 24.1454
63.463748759, 96.390, 656.0, 25.6125
63.490009325, 96.390, 654.0, 25.5734
63.516269890, 96.390, 574.0, 23.9583
63.542530455, 96.390, 628.0, 25.0599
63.568791021, 96.390, 636.0, 25.2190
63.595051586, 96.390, 599.0, 24.4745
63.621312152, 96.390, 641.0, 25.3180
63.647572717, 96.390, 686.0, 26.1916
63.673833282, 96.390, 612.0, 24.7386
63.700093848, 96.390, 610.0, 24.6982
63.726354413, 96.390, 637.0, 25.2389
63.752614978, 96.390, 645.0, 25.3969
63.778875544, 96.390, 641.0, 25.3180
63.805136109, 96.390, 605.0, 24.5967
63.831396674, 96.390, 588.0, 24.2487
63.857657240, 96.390, 621.0, 24.9199
63.883917805, 96.390, 621.0, 24.9199
63.910178370, 96.390, 603.0, 24.5561
63.936438936, 96.390, 647.0, 25.4362
63.962699501, 96.390, 605.0, 24.5967
63.988960067, 96.390, 645.0, 25.3969
64.015220632, 96.390, 594.0, 24.3721
64.041481197, 96.390, 600.0, 24.4949
64.067741763, 96.390, 611.0, 24.7184
64.094002328, 96.390, 626.0, 25.0200
64.120262893, 96.390, 622.0, 24.9399
64.146523459, 96.390, 636.0, 25.2190
64.172784024, 96.390, 603.0, 24.5561
64.199044589, 96.390, 624.0, 24.9800
64.225305155, 96.390, 621.0, 24.9199
64.251565720, 96.390, 594.0, 24.3721
64.277826285, 96.390, 678.0, 26.0384
64.304086851, 96.390, 635.0, 25.1992
64.330347416, 96.390, 582.0, 24.1247
64.356607981, 96.390, 605.0, 24.5967
64.382868547, 96.390, 589.0, 24.2693
64.409129112, 96.390, 586.0, 24.2074
64.435389678, 96.390, 597.0, 24.4336
64.461650243, 96.390, 571.0, 23.8956
64.487910808, 96.390, 608.0, 24.6577
64.514171374, 96.390, 654.0, 25.5734
64.540431939, 96.390, 627.0, 25.0400
64.566692504, 96.390, 591.0, 24.3105
64.592953070, 96.390, 600.0, 24.4949
64.619213635, 96.390, 563.0, 23.7276
64.645474200, 96.390, 560.0, 23.6643
64.671734766, 96.390, 596.0, 24.4131
64.697995331, 96.390, 549.0, 23.4307
64.724255896, 96.390, 551.0, 23.4734
64.750516462, 96.390, 580.0, 24.0832
64.776777027, 96.390, 622.0, 24.9399
64.803037593, 96.390, 597.0, 24.4336
64.829298158, 96.390, 610.0, 24.6982
64.855558723, 96.390, 602.0, 24.5357
64.881819289, 96.390, 631.0, 25.1197
64.908079854, 96.390, 591.0, 24.3105
64.934340419, 96.390, 562.0, 23.7065
64.960600985, 96.390, 622.0, 24.9399
64.986861550, 96.390, 602.0, 24.5357
