[Measurement conditions]
Sample identification,PO4Free14Apr22_Act12Feb23_B1_1000M_NaOH_LS0133_Num159
Comment - 1,"Configuration=Stage for Flat Samples/Holders, Owner=nmw10, Creation date=9/21/2022 10:06:30 AM"
Comment - 2,"Goniometer=Theta/Theta; Minimum step size 2Theta:0.0001; Minimum step size Omega:0.0001"
Comment - 3,"Sample stage=Stage for flat samples/holders"
Comment - 4,"Diffractometer system=EMPYREAN"
Comment - 5,"Measurement program=X:\XRD\Cement\Zerobackground scan.xrdmp, Created identifier={98A3B11C-88F9-4AA6-982C-73314A311EF5}, Created by=Titus Reed, Id=tmr79, Creation date=10/26/2021 3:01:47 PM"
Anode material,Cu
K-Alpha1 wavelength,1.5405980
K-Alpha2 wavelength,1.5444260
Ratio K-Alpha2/K-Alpha1,0.500
Divergence slit,Fixed,0.25
Monochromator used,NO
Generator voltage, 45
Tube current, 40
File date and time,15/Mar/2023 20:55
Unit cell,
h k l, 0 0 0
Scan axis,Gonio
Scan range,4.994599997,64.999991833
Scan step size,0.0262606
No. of points, 2285
Scan type,CONTINUOUS
Time per step,96.390
[Scan points]
Angle, TimePerStep, Intensity, ESD
5.007730280, 96.390, 4697.0, 68.5347
5.033990845, 96.390, 4790.0, 69.2098
5.060251411, 96.390, 4740.0, 68.8477
5.086511976, 96.390, 4714.0, 68.6586
5.112772541, 96.390, 4837.0, 69.5485
5.139033107, 96.390, 4831.0, 69.5054
5.165293672, 96.390, 4645.0, 68.1542
5.191554237, 96.390, 4646.0, 68.1616
5.217814803, 96.390, 4742.0, 68.8622
5.244075368, 96.390, 4847.0, 69.6204
5.270335934, 96.390, 4846.0, 69.6132
5.296596499, 96.390, 4678.0, 68.3959
5.322857064, 96.390, 4813.0, 69.3758
5.349117630, 96.390, 4756.0, 68.9638
5.375378195, 96.390, 4844.0, 69.5989
5.401638760, 96.390, 4868.0, 69.7711
5.427899326, 96.390, 4855.0, 69.6778
5.454159891, 96.390, 4905.0, 70.0357
5.480420456, 96.390, 5069.0, 71.1969
5.506681022, 96.390, 5010.0, 70.7814
5.532941587, 96.390, 5013.0, 70.8025
5.559202152, 96.390, 5223.0, 72.2703
5.585462718, 96.390, 5251.0, 72.4638
5.611723283, 96.390, 5249.0, 72.4500
5.637983849, 96.390, 5373.0, 73.3008
5.664244414, 96.390, 5665.0, 75.2662
5.690504979, 96.390, 5712.0, 75.5778
5.716765545, 96.390, 5983.0, 77.3499
5.743026110, 96.390, 5998.0, 77.4468
5.769286675, 96.390, 6312.0, 79.4481
5.795547241, 96.390, 6391.0, 79.9437
5.821807806, 96.390, 6355.0, 79.7183
5.848068371, 96.390, 6207.0, 78.7845
5.874328937, 96.390, 6265.0, 79.1518
5.900589502, 96.390, 6397.0, 79.9812
5.926850067, 96.390, 6174.0, 78.5748
5.953110633, 96.390, 6223.0, 78.8860
5.979371198, 96.390, 6224.0, 78.8923
6.005631763, 96.390, 6344.0, 79.6492
6.031892329, 96.390, 6369.0, 79.8060
6.058152894, 96.390, 6299.0, 79.3662
6.084413460, 96.390, 6424.0, 80.1499
6.110674025, 96.390, 6496.0, 80.5978
6.136934590, 96.390, 6438.0, 80.2371
6.163195156, 96.390, 6303.0, 79.3914
6.189455721, 96.390, 6197.0, 78.7210
6.215716286, 96.390, 6159.0, 78.4793
6.241976852, 96.390, 6090.0, 78.0385
6.268237417, 96.390, 5992.0, 77.4080
6.294497982, 96.390, 5998.0, 77.4468
6.320758548, 96.390, 6028.0, 77.6402
6.347019113, 96.390, 5872.0, 76.6290
6.373279678, 96.390, 5778.0, 76.0132
6.399540244, 96.390, 5746.0, 75.8024
6.425800809, 96.390, 5775.0, 75.9934
6.452061375, 96.390, 5580.0, 74.6994
6.478321940, 96.390, 5545.0, 74.4648
6.504582505, 96.390, 5525.0, 74.3303
6.530843071, 96.390, 5566.0, 74.6056
6.557103636, 96.390, 5629.0, 75.0267
6.583364201, 96.390, 5379.0, 73.3417
6.609624767, 96.390, 5432.0, 73.7021
6.635885332, 96.390, 5140.0, 71.6938
6.662145897, 96.390, 5235.0, 72.3533
6.688406463, 96.390, 5270.0, 72.5948
6.714667028, 96.390, 5259.0, 72.5190
6.740927593, 96.390, 5055.0, 71.0985
6.767188159, 96.390, 4992.0, 70.6541
6.793448724, 96.390, 4933.0, 70.2353
6.819709289, 96.390, 4852.0, 69.6563
6.845969855, 96.390, 4784.0, 69.1665
6.872230420, 96.390, 4776.0, 69.1086
6.898490986, 96.390, 4825.0, 69.4622
6.924751551, 96.390, 4579.0, 67.6683
6.951012116, 96.390, 4783.0, 69.1592
6.977272682, 96.390, 4647.0, 68.1689
7.003533247, 96.390, 4689.0, 68.4763
7.029793812, 96.390, 4523.0, 67.2533
7.056054378, 96.390, 4641.0, 68.1249
7.082314943, 96.390, 4539.0, 67.3721
7.108575508, 96.390, 4492.0, 67.0224
7.134836074, 96.390, 4481.0, 66.9403
7.161096639, 96.390, 4482.0, 66.9477
7.187357204, 96.390, 4376.0, 66.1513
7.213617770, 96.390, 4335.0, 65.8407
7.239878335, 96.390, 4359.0, 66.0227
7.266138900, 96.390, 4452.0, 66.7233
7.292399466, 96.390, 4382.0, 66.1967
7.318660031, 96.390, 4281.0, 65.4294
7.344920597, 96.390, 4218.0, 64.9461
7.371181162, 96.390, 4326.0, 65.7723
7.397441727, 96.390, 4173.0, 64.5988
7.423702293, 96.390, 4058.0, 63.7024
7.449962858, 96.390, 4145.0, 64.3817
7.476223423, 96.390, 3980.0, 63.0872
7.502483989, 96.390, 4131.0, 64.2729
7.528744554, 96.390, 3995.0, 63.2060
7.555005119, 96.390, 3969.0, 63.0000
7.581265685, 96.390, 4023.0, 63.4271
7.607526250, 96.390, 4003.0, 63.2693
7.633786815, 96.390, 3933.0, 62.7136
7.660047381, 96.390, 3832.0, 61.9032
7.686307946, 96.390, 3922.0, 62.6259
7.712568512, 96.390, 3945.0, 62.8092
7.738829077, 96.390, 3785.0, 61.5224
7.765089642, 96.390, 3691.0, 60.7536
7.791350208, 96.390, 3764.0, 61.3514
7.817610773, 96.390, 3686.0, 60.7124
7.843871338, 96.390, 3789.0, 61.5549
7.870131904, 96.390, 3810.0, 61.7252
7.896392469, 96.390, 3570.0, 59.7495
7.922653034, 96.390, 3643.0, 60.3573
7.948913600, 96.390, 3592.0, 59.9333
7.975174165, 96.390, 3579.0, 59.8247
8.001434730, 96.390, 3543.0, 59.5231
8.027695296, 96.390, 3525.0, 59.3717
8.053955861, 96.390, 3506.0, 59.2115
8.080216426, 96.390, 3482.0, 59.0085
8.106476992, 96.390, 3466.0, 58.8727
8.132737557, 96.390, 3569.0, 59.7411
8.158998123, 96.390, 3504.0, 59.1946
8.185258688, 96.390, 3501.0, 59.1692
8.211519253, 96.390, 3493.0, 59.1016
8.237779819, 96.390, 3341.0, 57.8014
8.264040384, 96.390, 3354.0, 57.9137
8.290300949, 96.390, 3347.0, 57.8533
8.316561515, 96.390, 3309.0, 57.5239
8.342822080, 96.390, 3309.0, 57.5239
8.369082645, 96.390, 3368.0, 58.0345
8.395343211, 96.390, 3301.0, 57.4543
8.421603776, 96.390, 3251.0, 57.0175
8.447864341, 96.390, 3325.0, 57.6628
8.474124907, 96.390, 3314.0, 57.5674
8.500385472, 96.390, 3277.0, 57.2451
8.526646038, 96.390, 3178.0, 56.3738
8.552906603, 96.390, 3167.0, 56.2761
8.579167168, 96.390, 3282.0, 57.2887
8.605427734, 96.390, 3177.0, 56.3649
8.631688299, 96.390, 3265.0, 57.1402
8.657948864, 96.390, 3332.0, 57.7235
8.684209430, 96.390, 3059.0, 55.3082
8.710469995, 96.390, 3167.0, 56.2761
8.736730560, 96.390, 2996.0, 54.7357
8.762991126, 96.390, 3210.0, 56.6569
8.789251691, 96.390, 3098.0, 55.6597
8.815512256, 96.390, 3153.0, 56.1516
8.841772822, 96.390, 3059.0, 55.3082
8.868033387, 96.390, 3072.0, 55.4256
8.894293952, 96.390, 3003.0, 54.7996
8.920554518, 96.390, 2914.0, 53.9815
8.946815083, 96.390, 3109.0, 55.7584
8.973075649, 96.390, 3035.0, 55.0908
8.999336214, 96.390, 3033.0, 55.0727
9.025596779, 96.390, 3068.0, 55.3895
9.051857345, 96.390, 3054.0, 55.2630
9.078117910, 96.390, 3101.0, 55.6866
9.104378475, 96.390, 2988.0, 54.6626
9.130639041, 96.390, 2904.0, 53.8888
9.156899606, 96.390, 3090.0, 55.5878
9.183160171, 96.390, 2979.0, 54.5802
9.209420737, 96.390, 2969.0, 54.4885
9.235681302, 96.390, 2987.0, 54.6535
9.261941867, 96.390, 2977.0, 54.5619
9.288202433, 96.390, 2958.0, 54.3875
9.314462998, 96.390, 3038.0, 55.1181
9.340723564, 96.390, 3024.0, 54.9909
9.366984129, 96.390, 2945.0, 54.2679
9.393244694, 96.390, 2939.0, 54.2125
9.419505260, 96.390, 3073.0, 55.4346
9.445765825, 96.390, 2911.0, 53.9537
9.472026390, 96.390, 2948.0, 54.2955
9.498286956, 96.390, 2997.0, 54.7449
9.524547521, 96.390, 3027.0, 55.0182
9.550808086, 96.390, 3029.0, 55.0364
9.577068652, 96.390, 2954.0, 54.3507
9.603329217, 96.390, 3011.0, 54.8726
9.629589782, 96.390, 2973.0, 54.5252
9.655850348, 96.390, 2940.0, 54.2218
9.682110913, 96.390, 3047.0, 55.1996
9.708371478, 96.390, 3034.0, 55.0818
9.734632044, 96.390, 3103.0, 55.7046
9.760892609, 96.390, 2990.0, 54.6809
9.787153175, 96.390, 3124.0, 55.8928
9.813413740, 96.390, 3214.0, 56.6922
9.839674305, 96.390, 3148.0, 56.1070
9.865934871, 96.390, 3295.0, 57.4021
9.892195436, 96.390, 3315.0, 57.5760
9.918456001, 96.390, 3534.0, 59.4475
9.944716567, 96.390, 3557.0, 59.6406
9.970977132, 96.390, 3595.0, 59.9583
9.997237697, 96.390, 3742.0, 61.1719
10.023498263, 96.390, 3722.0, 61.0082
10.049758828, 96.390, 3497.0, 59.1354
10.076019393, 96.390, 3544.0, 59.5315
10.102279959, 96.390, 3235.0, 56.8771
10.128540524, 96.390, 3287.0, 57.3324
10.154801090, 96.390, 3211.0, 56.6657
10.181061655, 96.390, 3184.0, 56.4269
10.207322220, 96.390, 3105.0, 55.7225
10.233582786, 96.390, 3071.0, 55.4166
10.259843351, 96.390, 3095.0, 55.6327
10.286103916, 96.390, 3043.0, 55.1634
10.312364482, 96.390, 3031.0, 55.0545
10.338625047, 96.390, 2997.0, 54.7449
10.364885612, 96.390, 3052.0, 55.2449
10.391146178, 96.390, 3138.0, 56.0179
10.417406743, 96.390, 3018.0, 54.9363
10.443667308, 96.390, 3092.0, 55.6058
10.469927874, 96.390, 3040.0, 55.1362
10.496188439, 96.390, 3080.0, 55.4977
10.522449004, 96.390, 3095.0, 55.6327
10.548709570, 96.390, 3164.0, 56.2494
10.574970135, 96.390, 3118.0, 55.8391
10.601230701, 96.390, 2932.0, 54.1479
10.627491266, 96.390, 3033.0, 55.0727
10.653751831, 96.390, 3128.0, 55.9285
10.680012397, 96.390, 3106.0, 55.7315
10.706272962, 96.390, 3044.0, 55.1725
10.732533527, 96.390, 3203.0, 56.5951
10.758794093, 96.390, 3166.0, 56.2672
10.785054658, 96.390, 3196.0, 56.5332
10.811315223, 96.390, 3079.0, 55.4887
10.837575789, 96.390, 3232.0, 56.8507
10.863836354, 96.390, 3233.0, 56.8595
10.890096919, 96.390, 3308.0, 57.5152
10.916357485, 96.390, 3205.0, 56.6127
10.942618050, 96.390, 3302.0, 57.4630
10.968878616, 96.390, 3214.0, 56.6922
10.995139181, 96.390, 3423.0, 58.5064
11.021399746, 96.390, 3374.0, 58.0861
11.047660312, 96.390, 3429.0, 58.5577
11.073920877, 96.390, 3454.0, 58.7707
11.100181442, 96.390, 3499.0, 59.1523
11.126442008, 96.390, 3630.0, 60.2495
11.152702573, 96.390, 3561.0, 59.6741
11.178963138, 96.390, 3739.0, 61.1474
11.205223704, 96.390, 3701.0, 60.8358
11.231484269, 96.390, 3971.0, 63.0159
11.257744834, 96.390, 4017.0, 63.3798
11.284005400, 96.390, 4122.0, 64.2028
11.310265965, 96.390, 4241.0, 65.1230
11.336526530, 96.390, 4253.0, 65.2150
11.362787096, 96.390, 4230.0, 65.0385
11.389047661, 96.390, 4407.0, 66.3852
11.415308227, 96.390, 4523.0, 67.2533
11.441568792, 96.390, 4704.0, 68.5857
11.467829357, 96.390, 4805.0, 69.3181
11.494089923, 96.390, 4838.0, 69.5557
11.520350488, 96.390, 5005.0, 70.7460
11.546611053, 96.390, 5172.0, 71.9166
11.572871619, 96.390, 5316.0, 72.9109
11.599132184, 96.390, 5261.0, 72.5328
11.625392749, 96.390, 5363.0, 73.2325
11.651653315, 96.390, 5417.0, 73.6003
11.677913880, 96.390, 5185.0, 72.0069
11.704174445, 96.390, 5134.0, 71.6519
11.730435011, 96.390, 5132.0, 71.6380
11.756695576, 96.390, 4858.0, 69.6994
11.782956141, 96.390, 4900.0, 70.0000
11.809216707, 96.390, 4627.0, 68.0221
11.835477272, 96.390, 4614.0, 67.9264
11.861737838, 96.390, 4450.0, 66.7083
11.887998403, 96.390, 4207.0, 64.8614
11.914258968, 96.390, 4132.0, 64.2806
11.940519534, 96.390, 3944.0, 62.8013
11.966780099, 96.390, 3785.0, 61.5224
11.993040664, 96.390, 3708.0, 60.8933
12.019301230, 96.390, 3503.0, 59.1861
12.045561795, 96.390, 3517.0, 59.3043
12.071822360, 96.390, 3302.0, 57.4630
12.098082926, 96.390, 3326.0, 57.6715
12.124343491, 96.390, 3184.0, 56.4269
12.150604056, 96.390, 3166.0, 56.2672
12.176864622, 96.390, 2977.0, 54.5619
12.203125187, 96.390, 3091.0, 55.5968
12.229385753, 96.390, 2965.0, 54.4518
12.255646318, 96.390, 2863.0, 53.5070
12.281906883, 96.390, 2784.0, 52.7636
12.308167449, 96.390, 2859.0, 53.4696
12.334428014, 96.390, 2714.0, 52.0961
12.360688579, 96.390, 2704.0, 52.0000
12.386949145, 96.390, 2790.0, 52.8205
12.413209710, 96.390, 2685.0, 51.8170
12.439470275, 96.390, 2614.0, 51.1273
12.465730841, 96.390, 2597.0, 50.9608
12.491991406, 96.390, 2602.0, 51.0098
12.518251971, 96.390, 2500.0, 50.0000
12.544512537, 96.390, 2501.0, 50.0100
12.570773102, 96.390, 2487.0, 49.8698
12.597033667, 96.390, 2411.0, 49.1019
12.623294233, 96.390, 2433.0, 49.3254
12.649554798, 96.390, 2462.0, 49.6185
12.675815364, 96.390, 2362.0, 48.6004
12.702075929, 96.390, 2403.0, 49.0204
12.728336494, 96.390, 2346.0, 48.4355
12.754597060, 96.390, 2371.0, 48.6929
12.780857625, 96.390, 2408.0, 49.0714
12.807118190, 96.390, 2373.0, 48.7134
12.833378756, 96.390, 2303.0, 47.9896
12.859639321, 96.390, 2357.0, 48.5489
12.885899886, 96.390, 2321.0, 48.1768
12.912160452, 96.390, 2219.0, 47.1063
12.938421017, 96.390, 2271.0, 47.6550
12.964681582, 96.390, 2293.0, 47.8853
12.990942148, 96.390, 2233.0, 47.2546
13.017202713, 96.390, 2202.0, 46.9255
13.043463279, 96.390, 2197.0, 46.8722
13.069723844, 96.390, 2114.0, 45.9783
13.095984409, 96.390, 2249.0, 47.4236
13.122244975, 96.390, 2260.0, 47.5395
13.148505540, 96.390, 2178.0, 46.6690
13.174766105, 96.390, 2199.0, 46.8935
13.201026671, 96.390, 2241.0, 47.3392
13.227287236, 96.390, 2234.0, 47.2652
13.253547801, 96.390, 2179.0, 46.6798
13.279808367, 96.390, 2200.0, 46.9042
13.306068932, 96.390, 2191.0, 46.8081
13.332329497, 96.390, 2137.0, 46.2277
13.358590063, 96.390, 2104.0, 45.8694
13.384850628, 96.390, 2125.0, 46.0977
13.411111193, 96.390, 2021.0, 44.9555
13.437371759, 96.390, 2072.0, 45.5192
13.463632324, 96.390, 1998.0, 44.6990
13.489892890, 96.390, 2120.0, 46.0435
13.516153455, 96.390, 2097.0, 45.7930
13.542414020, 96.390, 2145.0, 46.3141
13.568674586, 96.390, 2103.0, 45.8585
13.594935151, 96.390, 2050.0, 45.2769
13.621195716, 96.390, 2051.0, 45.2880
13.647456282, 96.390, 2105.0, 45.8803
13.673716847, 96.390, 2113.0, 45.9674
13.699977412, 96.390, 2105.0, 45.8803
13.726237978, 96.390, 2097.0, 45.7930
13.752498543, 96.390, 2183.0, 46.7226
13.778759108, 96.390, 2095.0, 45.7712
13.805019674, 96.390, 2136.0, 46.2169
13.831280239, 96.390, 2198.0, 46.8828
13.857540805, 96.390, 2212.0, 47.0319
13.883801370, 96.390, 2275.0, 47.6970
13.910061935, 96.390, 2320.0, 48.1664
13.936322501, 96.390, 2402.0, 49.0102
13.962583066, 96.390, 2530.0, 50.2991
13.988843631, 96.390, 2763.0, 52.5642
14.015104197, 96.390, 2724.0, 52.1920
14.041364762, 96.390, 2553.0, 50.5272
14.067625327, 96.390, 2459.0, 49.5883
14.093885893, 96.390, 2249.0, 47.4236
14.120146458, 96.390, 2139.0, 46.2493
14.146407023, 96.390, 2018.0, 44.9222
14.172667589, 96.390, 2075.0, 45.5522
14.198928154, 96.390, 2100.0, 45.8258
14.225188719, 96.390, 2068.0, 45.4753
14.251449285, 96.390, 1993.0, 44.6430
14.277709850, 96.390, 2053.0, 45.3100
14.303970416, 96.390, 2027.0, 45.0222
14.330230981, 96.390, 1940.0, 44.0454
14.356491546, 96.390, 1920.0, 43.8178
14.382752112, 96.390, 1940.0, 44.0454
14.409012677, 96.390, 1985.0, 44.5533
14.435273242, 96.390, 1986.0, 44.5646
14.461533808, 96.390, 1909.0, 43.6921
14.487794373, 96.390, 1895.0, 43.5316
14.514054938, 96.390, 1865.0, 43.1856
14.540315504, 96.390, 1989.0, 44.5982
14.566576069, 96.390, 1952.0, 44.1814
14.592836634, 96.390, 1881.0, 43.3705
14.619097200, 96.390, 1878.0, 43.3359
14.645357765, 96.390, 1880.0, 43.3590
14.671618331, 96.390, 1865.0, 43.1856
14.697878896, 96.390, 2040.0, 45.1664
14.724139461, 96.390, 1962.0, 44.2945
14.750400027, 96.390, 1861.0, 43.1393
14.776660592, 96.390, 1889.0, 43.4626
14.802921157, 96.390, 2031.0, 45.0666
14.829181723, 96.390, 1963.0, 44.3058
14.855442288, 96.390, 1927.0, 43.8976
14.881702853, 96.390, 1949.0, 44.1475
14.907963419, 96.390, 1956.0, 44.2267
14.934223984, 96.390, 1964.0, 44.3170
14.960484549, 96.390, 2029.0, 45.0444
14.986745115, 96.390, 2038.0, 45.1442
15.013005680, 96.390, 2040.0, 45.1664
15.039266245, 96.390, 2104.0, 45.8694
15.065526811, 96.390, 2070.0, 45.4973
15.091787376, 96.390, 2140.0, 46.2601
15.118047942, 96.390, 2194.0, 46.8402
15.144308507, 96.390, 2378.0, 48.7647
15.170569072, 96.390, 2384.0, 48.8262
15.196829638, 96.390, 2429.0, 49.2849
15.223090203, 96.390, 2595.0, 50.9411
15.249350768, 96.390, 2670.0, 51.6720
15.275611334, 96.390, 2766.0, 52.5928
15.301871899, 96.390, 2987.0, 54.6535
15.328132464, 96.390, 3030.0, 55.0454
15.354393030, 96.390, 3023.0, 54.9818
15.380653595, 96.390, 3074.0, 55.4437
15.406914160, 96.390, 3033.0, 55.0727
15.433174726, 96.390, 3039.0, 55.1271
15.459435291, 96.390, 2987.0, 54.6535
15.485695857, 96.390, 2899.0, 53.8424
15.511956422, 96.390, 2733.0, 52.2781
15.538216987, 96.390, 2647.0, 51.4490
15.564477553, 96.390, 2606.0, 51.0490
15.590738118, 96.390, 2463.0, 49.6286
15.616998683, 96.390, 2454.0, 49.5379
15.643259249, 96.390, 2397.0, 48.9592
15.669519814, 96.390, 2298.0, 47.9375
15.695780379, 96.390, 2211.0, 47.0213
15.722040945, 96.390, 2241.0, 47.3392
15.748301510, 96.390, 2173.0, 46.6154
15.774562075, 96.390, 2032.0, 45.0777
15.800822641, 96.390, 2046.0, 45.2327
15.827083206, 96.390, 2012.0, 44.8553
15.853343771, 96.390, 2015.0, 44.8888
15.879604337, 96.390, 2040.0, 45.1664
15.905864902, 96.390, 1940.0, 44.0454
15.932125468, 96.390, 1998.0, 44.6990
15.958386033, 96.390, 1942.0, 44.0681
15.984646598, 96.390, 1888.0, 43.4511
16.010907164, 96.390, 1898.0, 43.5660
16.037167729, 96.390, 1935.0, 43.9886
16.063428294, 96.390, 1976.0, 44.4522
16.089688860, 96.390, 1830.0, 42.7785
16.115949425, 96.390, 1864.0, 43.1741
16.142209990, 96.390, 1836.0, 42.8486
16.168470556, 96.390, 1874.0, 43.2897
16.194731121, 96.390, 1814.0, 42.5911
16.220991686, 96.390, 1808.0, 42.5206
16.247252252, 96.390, 1846.0, 42.9651
16.273512817, 96.390, 1713.0, 41.3884
16.299773382, 96.390, 1748.0, 41.8091
16.326033948, 96.390, 1775.0, 42.1307
16.352294513, 96.390, 1826.0, 42.7317
16.378555079, 96.390, 1817.0, 42.6263
16.404815644, 96.390, 1837.0, 42.8602
16.431076209, 96.390, 1824.0, 42.7083
16.457336775, 96.390, 1906.0, 43.6578
16.483597340, 96.390, 1906.0, 43.6578
16.509857905, 96.390, 2022.0, 44.9667
16.536118471, 96.390, 2065.0, 45.4423
16.562379036, 96.390, 1964.0, 44.3170
16.588639601, 96.390, 1830.0, 42.7785
16.614900167, 96.390, 1813.0, 42.5793
16.641160732, 96.390, 1799.0, 42.4146
16.667421297, 96.390, 1804.0, 42.4735
16.693681863, 96.390, 1753.0, 41.8688
16.719942428, 96.390, 1792.0, 42.3320
16.746202994, 96.390, 1758.0, 41.9285
16.772463559, 96.390, 1799.0, 42.4146
16.798724124, 96.390, 1787.0, 42.2729
16.824984690, 96.390, 1874.0, 43.2897
16.851245255, 96.390, 1860.0, 43.1277
16.877505820, 96.390, 1926.0, 43.8862
16.903766386, 96.390, 1885.0, 43.4166
16.930026951, 96.390, 1911.0, 43.7150
16.956287516, 96.390, 1768.0, 42.0476
16.982548082, 96.390, 1672.0, 40.8901
17.008808647, 96.390, 1659.0, 40.7308
17.035069212, 96.390, 1684.0, 41.0366
17.061329778, 96.390, 1648.0, 40.5956
17.087590343, 96.390, 1687.0, 41.0731
17.113850908, 96.390, 1587.0, 39.8372
17.140111474, 96.390, 1634.0, 40.4228
17.166372039, 96.390, 1598.0, 39.9750
17.192632605, 96.390, 1647.0, 40.5832
17.218893170, 96.390, 1655.0, 40.6817
17.245153735, 96.390, 1592.0, 39.8999
17.271414301, 96.390, 1597.0, 39.9625
17.297674866, 96.390, 1639.0, 40.4846
17.323935431, 96.390, 1699.0, 41.2189
17.350195997, 96.390, 1639.0, 40.4846
17.376456562, 96.390, 1707.0, 41.3159
17.402717127, 96.390, 1701.0, 41.2432
17.428977693, 96.390, 1657.0, 40.7063
17.455238258, 96.390, 1650.0, 40.6202
17.481498823, 96.390, 1630.0, 40.3733
17.507759389, 96.390, 1625.0, 40.3113
17.534019954, 96.390, 1665.0, 40.8044
17.560280520, 96.390, 1585.0, 39.8121
17.586541085, 96.390, 1587.0, 39.8372
17.612801650, 96.390, 1615.0, 40.1871
17.639062216, 96.390, 1624.0, 40.2989
17.665322781, 96.390, 1576.0, 39.6989
17.691583346, 96.390, 1602.0, 40.0250
17.717843912, 96.390, 1711.0, 41.3642
17.744104477, 96.390, 1623.0, 40.2865
17.770365042, 96.390, 1696.0, 41.1825
17.796625608, 96.390, 1600.0, 40.0000
17.822886173, 96.390, 1675.0, 40.9268
17.849146738, 96.390, 1665.0, 40.8044
17.875407304, 96.390, 1635.0, 40.4351
17.901667869, 96.390, 1668.0, 40.8412
17.927928434, 96.390, 1636.0, 40.4475
17.954189000, 96.390, 1689.0, 41.0974
17.980449565, 96.390, 1672.0, 40.8901
18.006710131, 96.390, 1698.0, 41.2068
18.032970696, 96.390, 1645.0, 40.5586
18.059231261, 96.390, 1738.0, 41.6893
18.085491827, 96.390, 1702.0, 41.2553
18.111752392, 96.390, 1687.0, 41.0731
18.138012957, 96.390, 1574.0, 39.6737
18.164273523, 96.390, 1633.0, 40.4104
18.190534088, 96.390, 1723.0, 41.5090
18.216794653, 96.390, 1741.0, 41.7253
18.243055219, 96.390, 1706.0, 41.3038
18.269315784, 96.390, 1705.0, 41.2916
18.295576349, 96.390, 1731.0, 41.6053
18.321836915, 96.390, 1752.0, 41.8569
18.348097480, 96.390, 1725.0, 41.5331
18.374358046, 96.390, 1749.0, 41.8210
18.400618611, 96.390, 1751.0, 41.8450
18.426879176, 96.390, 1807.0, 42.5088
18.453139742, 96.390, 1735.0, 41.6533
18.479400307, 96.390, 1783.0, 42.2256
18.505660872, 96.390, 1727.0, 41.5572
18.531921438, 96.390, 1782.0, 42.2137
18.558182003, 96.390, 1790.0, 42.3084
18.584442568, 96.390, 1733.0, 41.6293
18.610703134, 96.390, 1717.0, 41.4367
18.636963699, 96.390, 1711.0, 41.3642
18.663224264, 96.390, 1761.0, 41.9643
18.689484830, 96.390, 1756.0, 41.9047
18.715745395, 96.390, 1641.0, 40.5093
18.742005960, 96.390, 1769.0, 42.0595
18.768266526, 96.390, 1751.0, 41.8450
18.794527091, 96.390, 1813.0, 42.5793
18.820787657, 96.390, 1716.0, 41.4246
18.847048222, 96.390, 1736.0, 41.6653
18.873308787, 96.390, 1772.0, 42.0951
18.899569353, 96.390, 1701.0, 41.2432
18.925829918, 96.390, 1671.0, 40.8779
18.952090483, 96.390, 1743.0, 41.7493
18.978351049, 96.390, 1737.0, 41.6773
19.004611614, 96.390, 1703.0, 41.2674
19.030872179, 96.390, 1779.0, 42.1782
19.057132745, 96.390, 1738.0, 41.6893
19.083393310, 96.390, 1782.0, 42.2137
19.109653875, 96.390, 1747.0, 41.7971
19.135914441, 96.390, 1786.0, 42.2611
19.162175006, 96.390, 1709.0, 41.3401
19.188435572, 96.390, 1760.0, 41.9524
19.214696137, 96.390, 1670.0, 40.8656
19.240956702, 96.390, 1789.0, 42.2966
19.267217268, 96.390, 1703.0, 41.2674
19.293477833, 96.390, 1709.0, 41.3401
19.319738398, 96.390, 1726.0, 41.5452
19.345998964, 96.390, 1624.0, 40.2989
19.372259529, 96.390, 1750.0, 41.8330
19.398520094, 96.390, 1729.0, 41.5812
19.424780660, 96.390, 1706.0, 41.3038
19.451041225, 96.390, 1739.0, 41.7013
19.477301790, 96.390, 1782.0, 42.2137
19.503562356, 96.390, 1673.0, 40.9023
19.529822921, 96.390, 1757.0, 41.9166
19.556083486, 96.390, 1723.0, 41.5090
19.582344052, 96.390, 1718.0, 41.4488
19.608604617, 96.390, 1689.0, 41.0974
19.634865183, 96.390, 1777.0, 42.1545
19.661125748, 96.390, 1769.0, 42.0595
19.687386313, 96.390, 1848.0, 42.9884
19.713646879, 96.390, 1848.0, 42.9884
19.739907444, 96.390, 1780.0, 42.1900
19.766168009, 96.390, 1905.0, 43.6463
19.792428575, 96.390, 1831.0, 42.7902
19.818689140, 96.390, 1881.0, 43.3705
19.844949705, 96.390, 1951.0, 44.1701
19.871210271, 96.390, 2002.0, 44.7437
19.897470836, 96.390, 2021.0, 44.9555
19.923731401, 96.390, 1995.0, 44.6654
19.949991967, 96.390, 2148.0, 46.3465
19.976252532, 96.390, 2212.0, 47.0319
20.002513098, 96.390, 2346.0, 48.4355
20.028773663, 96.390, 2352.0, 48.4974
20.055034228, 96.390, 2429.0, 49.2849
20.081294794, 96.390, 2398.0, 48.9694
20.107555359, 96.390, 2277.0, 47.7179
20.133815924, 96.390, 2216.0, 47.0744
20.160076490, 96.390, 2157.0, 46.4435
20.186337055, 96.390, 2052.0, 45.2990
20.212597620, 96.390, 1936.0, 44.0000
20.238858186, 96.390, 1912.0, 43.7264
20.265118751, 96.390, 1947.0, 44.1248
20.291379316, 96.390, 1839.0, 42.8836
20.317639882, 96.390, 1803.0, 42.4617
20.343900447, 96.390, 1774.0, 42.1189
20.370161012, 96.390, 1803.0, 42.4617
20.396421578, 96.390, 1733.0, 41.6293
20.422682143, 96.390, 1754.0, 41.8808
20.448942709, 96.390, 1772.0, 42.0951
20.475203274, 96.390, 1710.0, 41.3521
20.501463839, 96.390, 1786.0, 42.2611
20.527724405, 96.390, 1755.0, 41.8927
20.553984970, 96.390, 1719.0, 41.4608
20.580245535, 96.390, 1622.0, 40.2741
20.606506101, 96.390, 1658.0, 40.7185
20.632766666, 96.390, 1727.0, 41.5572
20.659027231, 96.390, 1711.0, 41.3642
20.685287797, 96.390, 1699.0, 41.2189
20.711548362, 96.390, 1647.0, 40.5832
20.737808927, 96.390, 1695.0, 41.1704
20.764069493, 96.390, 1727.0, 41.5572
20.790330058, 96.390, 1730.0, 41.5933
20.816590623, 96.390, 1849.0, 43.0000
20.842851189, 96.390, 1714.0, 41.4005
20.869111754, 96.390, 1656.0, 40.6940
20.895372320, 96.390, 1755.0, 41.8927
20.921632885, 96.390, 1776.0, 42.1426
20.947893450, 96.390, 1785.0, 42.2493
20.974154016, 96.390, 1722.0, 41.4970
21.000414581, 96.390, 1717.0, 41.4367
21.026675146, 96.390, 1808.0, 42.5206
21.052935712, 96.390, 1773.0, 42.1070
21.079196277, 96.390, 1816.0, 42.6146
21.105456842, 96.390, 1794.0, 42.3556
21.131717408, 96.390, 1784.0, 42.2374
21.157977973, 96.390, 1728.0, 41.5692
21.184238538, 96.390, 1768.0, 42.0476
21.210499104, 96.390, 1787.0, 42.2729
21.236759669, 96.390, 1864.0, 43.1741
21.263020235, 96.390, 1725.0, 41.5331
21.289280800, 96.390, 1653.0, 40.6571
21.315541365, 96.390, 1721.0, 41.4849
21.341801931, 96.390, 1769.0, 42.0595
21.368062496, 96.390, 1768.0, 42.0476
21.394323061, 96.390, 1810.0, 42.5441
21.420583627, 96.390, 1784.0, 42.2374
21.446844192, 96.390, 1818.0, 42.6380
21.473104757, 96.390, 1883.0, 43.3935
21.499365323, 96.390, 1869.0, 43.2319
21.525625888, 96.390, 1851.0, 43.0232
21.551886453, 96.390, 1845.0, 42.9535
21.578147019, 96.390, 1822.0, 42.6849
21.604407584, 96.390, 1775.0, 42.1307
21.630668149, 96.390, 1776.0, 42.1426
21.656928715, 96.390, 1934.0, 43.9773
21.683189280, 96.390, 1741.0, 41.7253
21.709449846, 96.390, 1805.0, 42.4853
21.735710411, 96.390, 1767.0, 42.0357
21.761970976, 96.390, 1805.0, 42.4853
21.788231542, 96.390, 1773.0, 42.1070
21.814492107, 96.390, 1780.0, 42.1900
21.840752672, 96.390, 1857.0, 43.0929
21.867013238, 96.390, 1774.0, 42.1189
21.893273803, 96.390, 1855.0, 43.0697
21.919534368, 96.390, 1754.0, 41.8808
21.945794934, 96.390, 1801.0, 42.4382
21.972055499, 96.390, 1882.0, 43.3820
21.998316064, 96.390, 1777.0, 42.1545
22.024576630, 96.390, 1873.0, 43.2782
22.050837195, 96.390, 1856.0, 43.0813
22.077097761, 96.390, 1888.0, 43.4511
22.103358326, 96.390, 1830.0, 42.7785
22.129618891, 96.390, 1910.0, 43.7035
22.155879457, 96.390, 1802.0, 42.4500
22.182140022, 96.390, 1958.0, 44.2493
22.208400587, 96.390, 1933.0, 43.9659
22.234661153, 96.390, 1946.0, 44.1135
22.260921718, 96.390, 1823.0, 42.6966
22.287182283, 96.390, 2015.0, 44.8888
22.313442849, 96.390, 1975.0, 44.4410
22.339703414, 96.390, 1951.0, 44.1701
22.365963979, 96.390, 1923.0, 43.8520
22.392224545, 96.390, 2066.0, 45.4533
22.418485110, 96.390, 2024.0, 44.9889
22.444745675, 96.390, 2059.0, 45.3762
22.471006241, 96.390, 2094.0, 45.7602
22.497266806, 96.390, 2091.0, 45.7275
22.523527372, 96.390, 2130.0, 46.1519
22.549787937, 96.390, 2187.0, 46.7654
22.576048502, 96.390, 2227.0, 47.1911
22.602309068, 96.390, 2182.0, 46.7119
22.628569633, 96.390, 2207.0, 46.9787
22.654830198, 96.390, 2298.0, 47.9375
22.681090764, 96.390, 2262.0, 47.5605
22.707351329, 96.390, 2361.0, 48.5901
22.733611894, 96.390, 2402.0, 49.0102
22.759872460, 96.390, 2440.0, 49.3964
22.786133025, 96.390, 2467.0, 49.6689
22.812393590, 96.390, 2488.0, 49.8799
22.838654156, 96.390, 2594.0, 50.9313
22.864914721, 96.390, 2670.0, 51.6720
22.891175287, 96.390, 2756.0, 52.4976
22.917435852, 96.390, 2752.0, 52.4595
22.943696417, 96.390, 2881.0, 53.6749
22.969956983, 96.390, 2937.0, 54.1941
22.996217548, 96.390, 3027.0, 55.0182
23.022478113, 96.390, 3103.0, 55.7046
23.048738679, 96.390, 3314.0, 57.5674
23.074999244, 96.390, 3386.0, 58.1893
23.101259809, 96.390, 3426.0, 58.5320
23.127520375, 96.390, 3714.0, 60.9426
23.153780940, 96.390, 3900.0, 62.4500
23.180041505, 96.390, 4013.0, 63.3482
23.206302071, 96.390, 4139.0, 64.3351
23.232562636, 96.390, 4340.0, 65.8787
23.258823201, 96.390, 4306.0, 65.6201
23.285083767, 96.390, 4433.0, 66.5808
23.311344332, 96.390, 4528.0, 67.2904
23.337604898, 96.390, 4272.0, 65.3605
23.363865463, 96.390, 4137.0, 64.3195
23.390126028, 96.390, 3952.0, 62.8649
23.416386594, 96.390, 3858.0, 62.1128
23.442647159, 96.390, 3797.0, 61.6198
23.468907724, 96.390, 3714.0, 60.9426
23.495168290, 96.390, 3589.0, 59.9083
23.521428855, 96.390, 3524.0, 59.3633
23.547689420, 96.390, 3416.0, 58.4466
23.573949986, 96.390, 3454.0, 58.7707
23.600210551, 96.390, 3317.0, 57.5934
23.626471116, 96.390, 3374.0, 58.0861
23.652731682, 96.390, 3083.0, 55.5248
23.678992247, 96.390, 3041.0, 55.1453
23.705252813, 96.390, 3011.0, 54.8726
23.731513378, 96.390, 2835.0, 53.2447
23.757773943, 96.390, 2872.0, 53.5910
23.784034509, 96.390, 2833.0, 53.2259
23.810295074, 96.390, 2603.0, 51.0196
23.836555639, 96.390, 2622.0, 51.2055
23.862816205, 96.390, 2474.0, 49.7393
23.889076770, 96.390, 2483.0, 49.8297
23.915337335, 96.390, 2434.0, 49.3356
23.941597901, 96.390, 2436.0, 49.3559
23.967858466, 96.390, 2313.0, 48.0937
23.994119031, 96.390, 2397.0, 48.9592
24.020379597, 96.390, 2340.0, 48.3735
24.046640162, 96.390, 2275.0, 47.6970
24.072900727, 96.390, 2271.0, 47.6550
24.099161293, 96.390, 2316.0, 48.1248
24.125421858, 96.390, 2190.0, 46.7974
24.151682424, 96.390, 2213.0, 47.0425
24.177942989, 96.390, 2180.0, 46.6905
24.204203554, 96.390, 2241.0, 47.3392
24.230464120, 96.390, 2342.0, 48.3942
24.256724685, 96.390, 2330.0, 48.2701
24.282985250, 96.390, 2389.0, 48.8774
24.309245816, 96.390, 2509.0, 50.0899
24.335506381, 96.390, 2764.0, 52.5738
24.361766946, 96.390, 2757.0, 52.5071
24.388027512, 96.390, 2897.0, 53.8238
24.414288077, 96.390, 2681.0, 51.7784
24.440548642, 96.390, 2560.0, 50.5964
24.466809208, 96.390, 2454.0, 49.5379
24.493069773, 96.390, 2282.0, 47.7703
24.519330338, 96.390, 2137.0, 46.2277
24.545590904, 96.390, 2141.0, 46.2709
24.571851469, 96.390, 2119.0, 46.0326
24.598112035, 96.390, 2075.0, 45.5522
24.624372600, 96.390, 2067.0, 45.4643
24.650633165, 96.390, 1983.0, 44.5309
24.676893731, 96.390, 2009.0, 44.8219
24.703154296, 96.390, 1894.0, 43.5201
24.729414861, 96.390, 1948.0, 44.1362
24.755675427, 96.390, 1922.0, 43.8406
24.781935992, 96.390, 1896.0, 43.5431
24.808196557, 96.390, 1785.0, 42.2493
24.834457123, 96.390, 1843.0, 42.9302
24.860717688, 96.390, 1841.0, 42.9069
24.886978253, 96.390, 1800.0, 42.4264
24.913238819, 96.390, 1788.0, 42.2847
24.939499384, 96.390, 1851.0, 43.0232
24.965759950, 96.390, 1787.0, 42.2729
24.992020515, 96.390, 1797.0, 42.3910
25.018281080, 96.390, 1748.0, 41.8091
25.044541646, 96.390, 1646.0, 40.5709
25.070802211, 96.390, 1778.0, 42.1663
25.097062776, 96.390, 1739.0, 41.7013
25.123323342, 96.390, 1742.0, 41.7373
25.149583907, 96.390, 1702.0, 41.2553
25.175844472, 96.390, 1724.0, 41.5211
25.202105038, 96.390, 1708.0, 41.3280
25.228365603, 96.390, 1615.0, 40.1871
25.254626168, 96.390, 1691.0, 41.1218
25.280886734, 96.390, 1714.0, 41.4005
25.307147299, 96.390, 1696.0, 41.1825
25.333407864, 96.390, 1715.0, 41.4126
25.359668430, 96.390, 1765.0, 42.0119
25.385928995, 96.390, 1676.0, 40.9390
25.412189561, 96.390, 1740.0, 41.7133
25.438450126, 96.390, 1669.0, 40.8534
25.464710691, 96.390, 1674.0, 40.9145
25.490971257, 96.390, 1635.0, 40.4351
25.517231822, 96.390, 1764.0, 42.0000
25.543492387, 96.390, 1695.0, 41.1704
25.569752953, 96.390, 1698.0, 41.2068
25.596013518, 96.390, 1733.0, 41.6293
25.622274083, 96.390, 1632.0, 40.3980
25.648534649, 96.390, 1669.0, 40.8534
25.674795214, 96.390, 1698.0, 41.2068
25.701055779, 96.390, 1655.0, 40.6817
25.727316345, 96.390, 1626.0, 40.3237
25.753576910, 96.390, 1663.0, 40.7799
25.779837476, 96.390, 1799.0, 42.4146
25.806098041, 96.390, 1658.0, 40.7185
25.832358606, 96.390, 1690.0, 41.1096
25.858619172, 96.390, 1776.0, 42.1426
25.884879737, 96.390, 1794.0, 42.3556
25.911140302, 96.390, 1715.0, 41.4126
25.937400868, 96.390, 1746.0, 41.7852
25.963661433, 96.390, 1816.0, 42.6146
25.989921998, 96.390, 1790.0, 42.3084
26.016182564, 96.390, 1826.0, 42.7317
26.042443129, 96.390, 1825.0, 42.7200
26.068703694, 96.390, 1866.0, 43.1972
26.094964260, 96.390, 1725.0, 41.5331
26.121224825, 96.390, 1786.0, 42.2611
26.147485390, 96.390, 1833.0, 42.8135
26.173745956, 96.390, 1837.0, 42.8602
26.200006521, 96.390, 1893.0, 43.5086
26.226267087, 96.390, 1890.0, 43.4741
26.252527652, 96.390, 2057.0, 45.3542
26.278788217, 96.390, 2030.0, 45.0555
26.305048783, 96.390, 2018.0, 44.9222
26.331309348, 96.390, 2158.0, 46.4543
26.357569913, 96.390, 2080.0, 45.6070
26.383830479, 96.390, 2153.0, 46.4004
26.410091044, 96.390, 2246.0, 47.3920
26.436351609, 96.390, 2299.0, 47.9479
26.462612175, 96.390, 2379.0, 48.7750
26.488872740, 96.390, 2521.0, 50.2096
26.515133305, 96.390, 2611.0, 51.0979
26.541393871, 96.390, 2918.0, 54.0185
26.567654436, 96.390, 3128.0, 55.9285
26.593915002, 96.390, 3105.0, 55.7225
26.620175567, 96.390, 3277.0, 57.2451
26.646436132, 96.390, 3236.0, 56.8859
26.672696698, 96.390, 3243.0, 56.9473
26.698957263, 96.390, 3086.0, 55.5518
26.725217828, 96.390, 2988.0, 54.6626
26.751478394, 96.390, 2776.0, 52.6878
26.777738959, 96.390, 2542.0, 50.4183
26.803999524, 96.390, 2438.0, 49.3761
26.830260090, 96.390, 2353.0, 48.5077
26.856520655, 96.390, 2298.0, 47.9375
26.882781220, 96.390, 2058.0, 45.3652
26.909041786, 96.390, 2087.0, 45.6837
26.935302351, 96.390, 2049.0, 45.2659
26.961562916, 96.390, 1994.0, 44.6542
26.987823482, 96.390, 1976.0, 44.4522
27.014084047, 96.390, 1950.0, 44.1588
27.040344613, 96.390, 1881.0, 43.3705
27.066605178, 96.390, 1808.0, 42.5206
27.092865743, 96.390, 1818.0, 42.6380
27.119126309, 96.390, 1739.0, 41.7013
27.145386874, 96.390, 1740.0, 41.7133
27.171647439, 96.390, 1798.0, 42.4028
27.197908005, 96.390, 1733.0, 41.6293
27.224168570, 96.390, 1789.0, 42.2966
27.250429135, 96.390, 1784.0, 42.2374
27.276689701, 96.390, 1778.0, 42.1663
27.302950266, 96.390, 1704.0, 41.2795
27.329210831, 96.390, 1705.0, 41.2916
27.355471397, 96.390, 1736.0, 41.6653
27.381731962, 96.390, 1633.0, 40.4104
27.407992528, 96.390, 1838.0, 42.8719
27.434253093, 96.390, 1685.0, 41.0488
27.460513658, 96.390, 1781.0, 42.2019
27.486774224, 96.390, 1754.0, 41.8808
27.513034789, 96.390, 1769.0, 42.0595
27.539295354, 96.390, 1782.0, 42.2137
27.565555920, 96.390, 1813.0, 42.5793
27.591816485, 96.390, 1737.0, 41.6773
27.618077050, 96.390, 1684.0, 41.0366
27.644337616, 96.390, 1664.0, 40.7922
27.670598181, 96.390, 1714.0, 41.4005
27.696858746, 96.390, 1681.0, 41.0000
27.723119312, 96.390, 1698.0, 41.2068
27.749379877, 96.390, 1727.0, 41.5572
27.775640442, 96.390, 1713.0, 41.3884
27.801901008, 96.390, 1626.0, 40.3237
27.828161573, 96.390, 1726.0, 41.5452
27.854422139, 96.390, 1621.0, 40.2616
27.880682704, 96.390, 1711.0, 41.3642
27.906943269, 96.390, 1639.0, 40.4846
27.933203835, 96.390, 1662.0, 40.7676
27.959464400, 96.390, 1678.0, 40.9634
27.985724965, 96.390, 1720.0, 41.4729
28.011985531, 96.390, 1740.0, 41.7133
28.038246096, 96.390, 1757.0, 41.9166
28.064506661, 96.390, 1795.0, 42.3674
28.090767227, 96.390, 1684.0, 41.0366
28.117027792, 96.390, 1801.0, 42.4382
28.143288357, 96.390, 1748.0, 41.8091
28.169548923, 96.390, 1860.0, 43.1277
28.195809488, 96.390, 1777.0, 42.1545
28.222070054, 96.390, 1713.0, 41.3884
28.248330619, 96.390, 1815.0, 42.6028
28.274591184, 96.390, 1754.0, 41.8808
28.300851750, 96.390, 1745.0, 41.7732
28.327112315, 96.390, 1718.0, 41.4488
28.353372880, 96.390, 1787.0, 42.2729
28.379633446, 96.390, 1685.0, 41.0488
28.405894011, 96.390, 1724.0, 41.5211
28.432154576, 96.390, 1712.0, 41.3763
28.458415142, 96.390, 1776.0, 42.1426
28.484675707, 96.390, 1773.0, 42.1070
28.510936272, 96.390, 1686.0, 41.0609
28.537196838, 96.390, 1764.0, 42.0000
28.563457403, 96.390, 1755.0, 41.8927
28.589717968, 96.390, 1669.0, 40.8534
28.615978534, 96.390, 1803.0, 42.4617
28.642239099, 96.390, 1763.0, 41.9881
28.668499665, 96.390, 1599.0, 39.9875
28.694760230, 96.390, 1722.0, 41.4970
28.721020795, 96.390, 1776.0, 42.1426
28.747281361, 96.390, 1797.0, 42.3910
28.773541926, 96.390, 1743.0, 41.7493
28.799802491, 96.390, 1735.0, 41.6533
28.826063057, 96.390, 1821.0, 42.6732
28.852323622, 96.390, 1777.0, 42.1545
28.878584187, 96.390, 1838.0, 42.8719
28.904844753, 96.390, 1866.0, 43.1972
28.931105318, 96.390, 1919.0, 43.8064
28.957365883, 96.390, 1862.0, 43.1509
28.983626449, 96.390, 1916.0, 43.7721
29.009887014, 96.390, 1965.0, 44.3283
29.036147579, 96.390, 2115.0, 45.9891
29.062408145, 96.390, 2050.0, 45.2769
29.088668710, 96.390, 2046.0, 45.2327
29.114929276, 96.390, 2207.0, 46.9787
29.141189841, 96.390, 2206.0, 46.9681
29.167450406, 96.390, 2245.0, 47.3814
29.193710972, 96.390, 2270.0, 47.6445
29.219971537, 96.390, 2283.0, 47.7807
29.246232102, 96.390, 2254.0, 47.4763
29.272492668, 96.390, 2257.0, 47.5079
29.298753233, 96.390, 2243.0, 47.3603
29.325013798, 96.390, 2166.0, 46.5403
29.351274364, 96.390, 2165.0, 46.5296
29.377534929, 96.390, 2153.0, 46.4004
29.403795494, 96.390, 2079.0, 45.5961
29.430056060, 96.390, 2064.0, 45.4313
29.456316625, 96.390, 1948.0, 44.1362
29.482577191, 96.390, 2062.0, 45.4093
29.508837756, 96.390, 2041.0, 45.1774
29.535098321, 96.390, 2001.0, 44.7325
29.561358887, 96.390, 2039.0, 45.1553
29.587619452, 96.390, 1975.0, 44.4410
29.613880017, 96.390, 2035.0, 45.1110
29.640140583, 96.390, 1962.0, 44.2945
29.666401148, 96.390, 1956.0, 44.2267
29.692661713, 96.390, 2033.0, 45.0888
29.718922279, 96.390, 1999.0, 44.7102
29.745182844, 96.390, 1948.0, 44.1362
29.771443409, 96.390, 1973.0, 44.4185
29.797703975, 96.390, 1846.0, 42.9651
29.823964540, 96.390, 1982.0, 44.5197
29.850225105, 96.390, 1993.0, 44.6430
29.876485671, 96.390, 1981.0, 44.5084
29.902746236, 96.390, 2008.0, 44.8107
29.929006802, 96.390, 1944.0, 44.0908
29.955267367, 96.390, 2032.0, 45.0777
29.981527932, 96.390, 1991.0, 44.6206
30.007788498, 96.390, 2026.0, 45.0111
30.034049063, 96.390, 2070.0, 45.4973
30.060309628, 96.390, 2120.0, 46.0435
30.086570194, 96.390, 2165.0, 46.5296
30.112830759, 96.390, 2091.0, 45.7275
30.139091324, 96.390, 2148.0, 46.3465
30.165351890, 96.390, 2149.0, 46.3573
30.191612455, 96.390, 2214.0, 47.0532
30.217873020, 96.390, 2170.0, 46.5833
30.244133586, 96.390, 2277.0, 47.7179
30.270394151, 96.390, 2246.0, 47.3920
30.296654717, 96.390, 2213.0, 47.0425
30.322915282, 96.390, 2242.0, 47.3498
30.349175847, 96.390, 2280.0, 47.7493
30.375436413, 96.390, 2221.0, 47.1275
30.401696978, 96.390, 2190.0, 46.7974
30.427957543, 96.390, 2291.0, 47.8644
30.454218109, 96.390, 2291.0, 47.8644
30.480478674, 96.390, 2331.0, 48.2804
30.506739239, 96.390, 2349.0, 48.4665
30.532999805, 96.390, 2385.0, 48.8365
30.559260370, 96.390, 2504.0, 50.0400
30.585520935, 96.390, 2411.0, 49.1019
30.611781501, 96.390, 2441.0, 49.4065
30.638042066, 96.390, 2517.0, 50.1697
30.664302631, 96.390, 2626.0, 51.2445
30.690563197, 96.390, 2715.0, 52.1057
30.716823762, 96.390, 2815.0, 53.0566
30.743084328, 96.390, 2940.0, 54.2218
30.769344893, 96.390, 2947.0, 54.2863
30.795605458, 96.390, 2990.0, 54.6809
30.821866024, 96.390, 3092.0, 55.6058
30.848126589, 96.390, 3281.0, 57.2800
30.874387154, 96.390, 3179.0, 56.3826
30.900647720, 96.390, 3176.0, 56.3560
30.926908285, 96.390, 3226.0, 56.7979
30.953168850, 96.390, 3208.0, 56.6392
30.979429416, 96.390, 3094.0, 55.6237
31.005689981, 96.390, 2999.0, 54.7631
31.031950546, 96.390, 2907.0, 53.9166
31.058211112, 96.390, 2836.0, 53.2541
31.084471677, 96.390, 2769.0, 52.6213
31.110732243, 96.390, 2812.0, 53.0283
31.136992808, 96.390, 2611.0, 51.0979
31.163253373, 96.390, 2604.0, 51.0294
31.189513939, 96.390, 2585.0, 50.8429
31.215774504, 96.390, 2541.0, 50.4083
31.242035069, 96.390, 2429.0, 49.2849
31.268295635, 96.390, 2438.0, 49.3761
31.294556200, 96.390, 2471.0, 49.7092
31.320816765, 96.390, 2399.0, 48.9796
31.347077331, 96.390, 2256.0, 47.4974
31.373337896, 96.390, 2321.0, 48.1768
31.399598461, 96.390, 2258.0, 47.5184
31.425859027, 96.390, 2271.0, 47.6550
31.452119592, 96.390, 2276.0, 47.7074
31.478380157, 96.390, 2235.0, 47.2758
31.504640723, 96.390, 2285.0, 47.8017
31.530901288, 96.390, 2377.0, 48.7545
31.557161854, 96.390, 2460.0, 49.5984
31.583422419, 96.390, 2453.0, 49.5278
31.609682984, 96.390, 2390.0, 48.8876
31.635943550, 96.390, 2451.0, 49.5076
31.662204115, 96.390, 2408.0, 49.0714
31.688464680, 96.390, 2321.0, 48.1768
31.714725246, 96.390, 2289.0, 47.8435
31.740985811, 96.390, 2261.0, 47.5500
31.767246376, 96.390, 2244.0, 47.3709
31.793506942, 96.390, 2272.0, 47.6655
31.819767507, 96.390, 2212.0, 47.0319
31.846028072, 96.390, 2187.0, 46.7654
31.872288638, 96.390, 2199.0, 46.8935
31.898549203, 96.390, 2197.0, 46.8722
31.924809769, 96.390, 2204.0, 46.9468
31.951070334, 96.390, 2276.0, 47.7074
31.977330899, 96.390, 2281.0, 47.7598
32.003591465, 96.390, 2262.0, 47.5605
32.029852030, 96.390, 2258.0, 47.5184
32.056112595, 96.390, 2211.0, 47.0213
32.082373161, 96.390, 2194.0, 46.8402
32.108633726, 96.390, 2216.0, 47.0744
32.134894291, 96.390, 2244.0, 47.3709
32.161154857, 96.390, 2241.0, 47.3392
32.187415422, 96.390, 2339.0, 48.3632
32.213675987, 96.390, 2449.0, 49.4874
32.239936553, 96.390, 2657.0, 51.5461
32.266197118, 96.390, 2869.0, 53.5630
32.292457683, 96.390, 3086.0, 55.5518
32.318718249, 96.390, 2880.0, 53.6656
32.344978814, 96.390, 2850.0, 53.3854
32.371239380, 96.390, 2704.0, 52.0000
32.397499945, 96.390, 2803.0, 52.9434
32.423760510, 96.390, 2672.0, 51.6914
32.450021076, 96.390, 2614.0, 51.1273
32.476281641, 96.390, 2643.0, 51.4101
32.502542206, 96.390, 2462.0, 49.6185
32.528802772, 96.390, 2400.0, 48.9898
32.555063337, 96.390, 2272.0, 47.6655
32.581323902, 96.390, 2203.0, 46.9361
32.607584468, 96.390, 2167.0, 46.5510
32.633845033, 96.390, 2060.0, 45.3872
32.660105598, 96.390, 2016.0, 44.8999
32.686366164, 96.390, 1902.0, 43.6119
32.712626729, 96.390, 1919.0, 43.8064
32.738887295, 96.390, 1920.0, 43.8178
32.765147860, 96.390, 1892.0, 43.4971
32.791408425, 96.390, 1872.0, 43.2666
32.817668991, 96.390, 1832.0, 42.8019
32.843929556, 96.390, 1818.0, 42.6380
32.870190121, 96.390, 1762.0, 41.9762
32.896450687, 96.390, 1829.0, 42.7668
32.922711252, 96.390, 1827.0, 42.7434
32.948971817, 96.390, 1896.0, 43.5431
32.975232383, 96.390, 1807.0, 42.5088
33.001492948, 96.390, 1906.0, 43.6578
33.027753513, 96.390, 1880.0, 43.3590
33.054014079, 96.390, 1873.0, 43.2782
33.080274644, 96.390, 1867.0, 43.2088
33.106535209, 96.390, 1929.0, 43.9204
33.132795775, 96.390, 1934.0, 43.9773
33.159056340, 96.390, 1991.0, 44.6206
33.185316906, 96.390, 1987.0, 44.5758
33.211577471, 96.390, 2072.0, 45.5192
33.237838036, 96.390, 2056.0, 45.3431
33.264098602, 96.390, 2068.0, 45.4753
33.290359167, 96.390, 2349.0, 48.4665
33.316619732, 96.390, 2262.0, 47.5605
33.342880298, 96.390, 2221.0, 47.1275
33.369140863, 96.390, 2335.0, 48.3218
33.395401428, 96.390, 2318.0, 48.1456
33.421661994, 96.390, 2416.0, 49.1528
33.447922559, 96.390, 2325.0, 48.2183
33.474183124, 96.390, 2410.0, 49.0918
33.500443690, 96.390, 2550.0, 50.4975
33.526704255, 96.390, 2553.0, 50.5272
33.552964820, 96.390, 2796.0, 52.8772
33.579225386, 96.390, 2646.0, 51.4393
33.605485951, 96.390, 2604.0, 51.0294
33.631746517, 96.390, 2496.0, 49.9600
33.658007082, 96.390, 2402.0, 49.0102
33.684267647, 96.390, 2318.0, 48.1456
33.710528213, 96.390, 2206.0, 46.9681
33.736788778, 96.390, 2248.0, 47.4131
33.763049343, 96.390, 2164.0, 46.5188
33.789309909, 96.390, 2053.0, 45.3100
33.815570474, 96.390, 2038.0, 45.1442
33.841831039, 96.390, 2062.0, 45.4093
33.868091605, 96.390, 2064.0, 45.4313
33.894352170, 96.390, 2099.0, 45.8148
33.920612735, 96.390, 2077.0, 45.5741
33.946873301, 96.390, 2083.0, 45.6399
33.973133866, 96.390, 2030.0, 45.0555
33.999394432, 96.390, 2086.0, 45.6727
34.025654997, 96.390, 2146.0, 46.3249
34.051915562, 96.390, 2085.0, 45.6618
34.078176128, 96.390, 2185.0, 46.7440
34.104436693, 96.390, 2276.0, 47.7074
34.130697258, 96.390, 2182.0, 46.7119
34.156957824, 96.390, 2134.0, 46.1952
34.183218389, 96.390, 2171.0, 46.5940
34.209478954, 96.390, 2284.0, 47.7912
34.235739520, 96.390, 2307.0, 48.0312
34.262000085, 96.390, 2331.0, 48.2804
34.288260650, 96.390, 2285.0, 47.8017
34.314521216, 96.390, 2220.0, 47.1169
34.340781781, 96.390, 2350.0, 48.4768
34.367042346, 96.390, 2227.0, 47.1911
34.393302912, 96.390, 2390.0, 48.8876
34.419563477, 96.390, 2315.0, 48.1144
34.445824043, 96.390, 2520.0, 50.1996
34.472084608, 96.390, 2470.0, 49.6991
34.498345173, 96.390, 2456.0, 49.5580
34.524605739, 96.390, 2544.0, 50.4381
34.550866304, 96.390, 2503.0, 50.0300
34.577126869, 96.390, 2486.0, 49.8598
34.603387435, 96.390, 2653.0, 51.5073
34.629648000, 96.390, 2715.0, 52.1057
34.655908565, 96.390, 2593.0, 50.9215
34.682169131, 96.390, 2890.0, 53.7587
34.708429696, 96.390, 2907.0, 53.9166
34.734690261, 96.390, 2822.0, 53.1225
34.760950827, 96.390, 2902.0, 53.8702
34.787211392, 96.390, 2955.0, 54.3599
34.813471958, 96.390, 2876.0, 53.6284
34.839732523, 96.390, 2808.0, 52.9906
34.865993088, 96.390, 2834.0, 53.2353
34.892253654, 96.390, 2765.0, 52.5833
34.918514219, 96.390, 2630.0, 51.2835
34.944774784, 96.390, 2601.0, 51.0000
34.971035350, 96.390, 2697.0, 51.9326
34.997295915, 96.390, 2592.0, 50.9117
35.023556480, 96.390, 2483.0, 49.8297
35.049817046, 96.390, 2542.0, 50.4183
35.076077611, 96.390, 2426.0, 49.2544
35.102338176, 96.390, 2502.0, 50.0200
35.128598742, 96.390, 2404.0, 49.0306
35.154859307, 96.390, 2412.0, 49.1121
35.181119872, 96.390, 2365.0, 48.6313
35.207380438, 96.390, 2429.0, 49.2849
35.233641003, 96.390, 2423.0, 49.2240
35.259901569, 96.390, 2272.0, 47.6655
35.286162134, 96.390, 2235.0, 47.2758
35.312422699, 96.390, 2261.0, 47.5500
35.338683265, 96.390, 2185.0, 46.7440
35.364943830, 96.390, 2144.0, 46.3033
35.391204395, 96.390, 2156.0, 46.4327
35.417464961, 96.390, 2199.0, 46.8935
35.443725526, 96.390, 2014.0, 44.8776
35.469986091, 96.390, 2074.0, 45.5412
35.496246657, 96.390, 2021.0, 44.9555
35.522507222, 96.390, 2082.0, 45.6289
35.548767787, 96.390, 2104.0, 45.8694
35.575028353, 96.390, 2064.0, 45.4313
35.601288918, 96.390, 1910.0, 43.7035
35.627549484, 96.390, 1963.0, 44.3058
35.653810049, 96.390, 2021.0, 44.9555
35.680070614, 96.390, 1909.0, 43.6921
35.706331180, 96.390, 1901.0, 43.6005
35.732591745, 96.390, 1944.0, 44.0908
35.758852310, 96.390, 1974.0, 44.4297
35.785112876, 96.390, 1977.0, 44.4635
35.811373441, 96.390, 1975.0, 44.4410
35.837634006, 96.390, 1907.0, 43.6692
35.863894572, 96.390, 1916.0, 43.7721
35.890155137, 96.390, 1945.0, 44.1022
35.916415702, 96.390, 1877.0, 43.3244
35.942676268, 96.390, 1914.0, 43.7493
35.968936833, 96.390, 1848.0, 42.9884
35.995197398, 96.390, 1742.0, 41.7373
36.021457964, 96.390, 1838.0, 42.8719
36.047718529, 96.390, 1820.0, 42.6615
36.073979095, 96.390, 1857.0, 43.0929
36.100239660, 96.390, 1862.0, 43.1509
36.126500225, 96.390, 1914.0, 43.7493
36.152760791, 96.390, 1979.0, 44.4860
36.179021356, 96.390, 2068.0, 45.4753
36.205281921, 96.390, 2118.0, 46.0217
36.231542487, 96.390, 2115.0, 45.9891
36.257803052, 96.390, 2141.0, 46.2709
36.284063617, 96.390, 2066.0, 45.4533
36.310324183, 96.390, 2013.0, 44.8665
36.336584748, 96.390, 2023.0, 44.9778
36.362845313, 96.390, 1870.0, 43.2435
36.389105879, 96.390, 1864.0, 43.1741
36.415366444, 96.390, 1696.0, 41.1825
36.441627010, 96.390, 1824.0, 42.7083
36.467887575, 96.390, 1819.0, 42.6497
36.494148140, 96.390, 1822.0, 42.6849
36.520408706, 96.390, 1855.0, 43.0697
36.546669271, 96.390, 1856.0, 43.0813
36.572929836, 96.390, 1865.0, 43.1856
36.599190402, 96.390, 1925.0, 43.8748
36.625450967, 96.390, 1916.0, 43.7721
36.651711532, 96.390, 1906.0, 43.6578
36.677972098, 96.390, 1819.0, 42.6497
36.704232663, 96.390, 1873.0, 43.2782
36.730493228, 96.390, 1853.0, 43.0465
36.756753794, 96.390, 1897.0, 43.5546
36.783014359, 96.390, 1785.0, 42.2493
36.809274924, 96.390, 1751.0, 41.8450
36.835535490, 96.390, 1742.0, 41.7373
36.861796055, 96.390, 1749.0, 41.8210
36.888056621, 96.390, 1705.0, 41.2916
36.914317186, 96.390, 1698.0, 41.2068
36.940577751, 96.390, 1713.0, 41.3884
36.966838317, 96.390, 1758.0, 41.9285
36.993098882, 96.390, 1757.0, 41.9166
37.019359447, 96.390, 1706.0, 41.3038
37.045620013, 96.390, 1695.0, 41.1704
37.071880578, 96.390, 1685.0, 41.0488
37.098141143, 96.390, 1711.0, 41.3642
37.124401709, 96.390, 1818.0, 42.6380
37.150662274, 96.390, 1717.0, 41.4367
37.176922839, 96.390, 1786.0, 42.2611
37.203183405, 96.390, 1818.0, 42.6380
37.229443970, 96.390, 1874.0, 43.2897
37.255704535, 96.390, 1783.0, 42.2256
37.281965101, 96.390, 1783.0, 42.2256
37.308225666, 96.390, 1699.0, 41.2189
37.334486232, 96.390, 1790.0, 42.3084
37.360746797, 96.390, 1726.0, 41.5452
37.387007362, 96.390, 1788.0, 42.2847
37.413267928, 96.390, 1785.0, 42.2493
37.439528493, 96.390, 1820.0, 42.6615
37.465789058, 96.390, 1769.0, 42.0595
37.492049624, 96.390, 1788.0, 42.2847
37.518310189, 96.390, 1723.0, 41.5090
37.544570754, 96.390, 1727.0, 41.5572
37.570831320, 96.390, 1724.0, 41.5211
37.597091885, 96.390, 1737.0, 41.6773
37.623352450, 96.390, 1821.0, 42.6732
37.649613016, 96.390, 1760.0, 41.9524
37.675873581, 96.390, 1718.0, 41.4488
37.702134147, 96.390, 1787.0, 42.2729
37.728394712, 96.390, 1835.0, 42.8369
37.754655277, 96.390, 1919.0, 43.8064
37.780915843, 96.390, 1951.0, 44.1701
37.807176408, 96.390, 2033.0, 45.0888
37.833436973, 96.390, 2217.0, 47.0850
37.859697539, 96.390, 2255.0, 47.4868
37.885958104, 96.390, 2237.0, 47.2969
37.912218669, 96.390, 2307.0, 48.0312
37.938479235, 96.390, 2165.0, 46.5296
37.964739800, 96.390, 2133.0, 46.1844
37.991000365, 96.390, 2013.0, 44.8665
38.017260931, 96.390, 2023.0, 44.9778
38.043521496, 96.390, 1839.0, 42.8836
38.069782061, 96.390, 1752.0, 41.8569
38.096042627, 96.390, 1708.0, 41.3280
38.122303192, 96.390, 1694.0, 41.1582
38.148563758, 96.390, 1692.0, 41.1339
38.174824323, 96.390, 1645.0, 40.5586
38.201084888, 96.390, 1591.0, 39.8873
38.227345454, 96.390, 1613.0, 40.1622
38.253606019, 96.390, 1554.0, 39.4208
38.279866584, 96.390, 1606.0, 40.0749
38.306127150, 96.390, 1571.0, 39.6358
38.332387715, 96.390, 1545.0, 39.3065
38.358648280, 96.390, 1468.0, 38.3145
38.384908846, 96.390, 1554.0, 39.4208
38.411169411, 96.390, 1539.0, 39.2301
38.437429976, 96.390, 1555.0, 39.4335
38.463690542, 96.390, 1541.0, 39.2556
38.489951107, 96.390, 1586.0, 39.8246
38.516211673, 96.390, 1533.0, 39.1535
38.542472238, 96.390, 1528.0, 39.0896
38.568732803, 96.390, 1563.0, 39.5348
38.594993369, 96.390, 1472.0, 38.3667
38.621253934, 96.390, 1558.0, 39.4715
38.647514499, 96.390, 1586.0, 39.8246
38.673775065, 96.390, 1596.0, 39.9500
38.700035630, 96.390, 1465.0, 38.2753
38.726296195, 96.390, 1497.0, 38.6911
38.752556761, 96.390, 1505.0, 38.7943
38.778817326, 96.390, 1532.0, 39.1408
38.805077891, 96.390, 1577.0, 39.7115
38.831338457, 96.390, 1539.0, 39.2301
38.857599022, 96.390, 1571.0, 39.6358
38.883859587, 96.390, 1518.0, 38.9615
38.910120153, 96.390, 1507.0, 38.8201
38.936380718, 96.390, 1516.0, 38.9358
38.962641284, 96.390, 1503.0, 38.7685
38.988901849, 96.390, 1616.0, 40.1995
39.015162414, 96.390, 1523.0, 39.0256
39.041422980, 96.390, 1502.0, 38.7556
39.067683545, 96.390, 1591.0, 39.8873
39.093944110, 96.390, 1594.0, 39.9249
39.120204676, 96.390, 1514.0, 38.9102
39.146465241, 96.390, 1618.0, 40.2244
39.172725806, 96.390, 1510.0, 38.8587
39.198986372, 96.390, 1505.0, 38.7943
39.225246937, 96.390, 1579.0, 39.7366
39.251507502, 96.390, 1619.0, 40.2368
39.277768068, 96.390, 1578.0, 39.7240
39.304028633, 96.390, 1601.0, 40.0125
39.330289199, 96.390, 1584.0, 39.7995
39.356549764, 96.390, 1539.0, 39.2301
39.382810329, 96.390, 1554.0, 39.4208
39.409070895, 96.390, 1633.0, 40.4104
39.435331460, 96.390, 1534.0, 39.1663
39.461592025, 96.390, 1581.0, 39.7618
39.487852591, 96.390, 1463.0, 38.2492
39.514113156, 96.390, 1591.0, 39.8873
39.540373721, 96.390, 1491.0, 38.6135
39.566634287, 96.390, 1559.0, 39.4842
39.592894852, 96.390, 1601.0, 40.0125
39.619155417, 96.390, 1535.0, 39.1791
39.645415983, 96.390, 1479.0, 38.4578
39.671676548, 96.390, 1583.0, 39.7869
39.697937113, 96.390, 1538.0, 39.2173
39.724197679, 96.390, 1481.0, 38.4838
39.750458244, 96.390, 1551.0, 39.3827
39.776718810, 96.390, 1541.0, 39.2556
39.802979375, 96.390, 1559.0, 39.4842
39.829239940, 96.390, 1459.0, 38.1969
39.855500506, 96.390, 1597.0, 39.9625
39.881761071, 96.390, 1538.0, 39.2173
39.908021636, 96.390, 1555.0, 39.4335
39.934282202, 96.390, 1539.0, 39.2301
39.960542767, 96.390, 1474.0, 38.3927
39.986803332, 96.390, 1525.0, 39.0512
40.013063898, 96.390, 1521.0, 39.0000
40.039324463, 96.390, 1550.0, 39.3700
40.065585028, 96.390, 1518.0, 38.9615
40.091845594, 96.390, 1477.0, 38.4318
40.118106159, 96.390, 1454.0, 38.1314
40.144366725, 96.390, 1590.0, 39.8748
40.170627290, 96.390, 1564.0, 39.5474
40.196887855, 96.390, 1643.0, 40.5339
40.223148421, 96.390, 1616.0, 40.1995
40.249408986, 96.390, 1644.0, 40.5463
40.275669551, 96.390, 1481.0, 38.4838
40.301930117, 96.390, 1590.0, 39.8748
40.328190682, 96.390, 1535.0, 39.1791
40.354451247, 96.390, 1497.0, 38.6911
40.380711813, 96.390, 1485.0, 38.5357
40.406972378, 96.390, 1455.0, 38.1445
40.433232943, 96.390, 1393.0, 37.3229
40.459493509, 96.390, 1401.0, 37.4299
40.485754074, 96.390, 1451.0, 38.0920
40.512014639, 96.390, 1404.0, 37.4700
40.538275205, 96.390, 1460.0, 38.2099
40.564535770, 96.390, 1452.0, 38.1051
40.590796336, 96.390, 1503.0, 38.7685
40.617056901, 96.390, 1551.0, 39.3827
40.643317466, 96.390, 1507.0, 38.8201
40.669578032, 96.390, 1568.0, 39.5980
40.695838597, 96.390, 1787.0, 42.2729
40.722099162, 96.390, 1703.0, 41.2674
40.748359728, 96.390, 1723.0, 41.5090
40.774620293, 96.390, 1765.0, 42.0119
40.800880858, 96.390, 1676.0, 40.9390
40.827141424, 96.390, 1694.0, 41.1582
40.853401989, 96.390, 1603.0, 40.0375
40.879662554, 96.390, 1579.0, 39.7366
40.905923120, 96.390, 1582.0, 39.7744
40.932183685, 96.390, 1577.0, 39.7115
40.958444251, 96.390, 1562.0, 39.5221
40.984704816, 96.390, 1456.0, 38.1576
41.010965381, 96.390, 1523.0, 39.0256
41.037225947, 96.390, 1548.0, 39.3446
41.063486512, 96.390, 1532.0, 39.1408
41.089747077, 96.390, 1494.0, 38.6523
41.116007643, 96.390, 1584.0, 39.7995
41.142268208, 96.390, 1527.0, 39.0768
41.168528773, 96.390, 1574.0, 39.6737
41.194789339, 96.390, 1567.0, 39.5854
41.221049904, 96.390, 1595.0, 39.9375
41.247310469, 96.390, 1588.0, 39.8497
41.273571035, 96.390, 1568.0, 39.5980
41.299831600, 96.390, 1664.0, 40.7922
41.326092165, 96.390, 1593.0, 39.9124
41.352352731, 96.390, 1740.0, 41.7133
41.378613296, 96.390, 1717.0, 41.4367
41.404873862, 96.390, 1608.0, 40.0999
41.431134427, 96.390, 1671.0, 40.8779
41.457394992, 96.390, 1605.0, 40.0625
41.483655558, 96.390, 1559.0, 39.4842
41.509916123, 96.390, 1587.0, 39.8372
41.536176688, 96.390, 1496.0, 38.6782
41.562437254, 96.390, 1492.0, 38.6264
41.588697819, 96.390, 1476.0, 38.4187
41.614958384, 96.390, 1388.0, 37.2559
41.641218950, 96.390, 1422.0, 37.7094
41.667479515, 96.390, 1410.0, 37.5500
41.693740080, 96.390, 1365.0, 36.9459
41.720000646, 96.390, 1354.0, 36.7967
41.746261211, 96.390, 1345.0, 36.6742
41.772521776, 96.390, 1317.0, 36.2905
41.798782342, 96.390, 1417.0, 37.6431
41.825042907, 96.390, 1395.0, 37.3497
41.851303473, 96.390, 1342.0, 36.6333
41.877564038, 96.390, 1393.0, 37.3229
41.903824603, 96.390, 1330.0, 36.4692
41.930085169, 96.390, 1300.0, 36.0555
41.956345734, 96.390, 1334.0, 36.5240
41.982606299, 96.390, 1348.0, 36.7151
42.008866865, 96.390, 1373.0, 37.0540
42.035127430, 96.390, 1372.0, 37.0405
42.061387995, 96.390, 1306.0, 36.1386
42.087648561, 96.390, 1341.0, 36.6197
42.113909126, 96.390, 1341.0, 36.6197
42.140169691, 96.390, 1311.0, 36.2077
42.166430257, 96.390, 1354.0, 36.7967
42.192690822, 96.390, 1332.0, 36.4966
42.218951388, 96.390, 1346.0, 36.6879
42.245211953, 96.390, 1279.0, 35.7631
42.271472518, 96.390, 1312.0, 36.2215
42.297733084, 96.390, 1336.0, 36.5513
42.323993649, 96.390, 1349.0, 36.7287
42.350254214, 96.390, 1330.0, 36.4692
42.376514780, 96.390, 1357.0, 36.8375
42.402775345, 96.390, 1362.0, 36.9053
42.429035910, 96.390, 1370.0, 37.0135
42.455296476, 96.390, 1408.0, 37.5233
42.481557041, 96.390, 1380.0, 37.1484
42.507817606, 96.390, 1385.0, 37.2156
42.534078172, 96.390, 1347.0, 36.7015
42.560338737, 96.390, 1306.0, 36.1386
42.586599302, 96.390, 1381.0, 37.1618
42.612859868, 96.390, 1367.0, 36.9730
42.639120433, 96.390, 1403.0, 37.4566
42.665380999, 96.390, 1354.0, 36.7967
42.691641564, 96.390, 1361.0, 36.8917
42.717902129, 96.390, 1347.0, 36.7015
42.744162695, 96.390, 1400.0, 37.4166
42.770423260, 96.390, 1454.0, 38.1314
42.796683825, 96.390, 1418.0, 37.6563
42.822944391, 96.390, 1402.0, 37.4433
42.849204956, 96.390, 1397.0, 37.3765
42.875465521, 96.390, 1507.0, 38.8201
42.901726087, 96.390, 1380.0, 37.1484
42.927986652, 96.390, 1414.0, 37.6032
42.954247217, 96.390, 1476.0, 38.4187
42.980507783, 96.390, 1449.0, 38.0657
43.006768348, 96.390, 1410.0, 37.5500
43.033028914, 96.390, 1296.0, 36.0000
43.059289479, 96.390, 1318.0, 36.3043
43.085550044, 96.390, 1295.0, 35.9861
43.111810610, 96.390, 1265.0, 35.5668
43.138071175, 96.390, 1223.0, 34.9714
43.164331740, 96.390, 1221.0, 34.9428
43.190592306, 96.390, 1269.0, 35.6230
43.216852871, 96.390, 1200.0, 34.6410
43.243113436, 96.390, 1193.0, 34.5398
43.269374002, 96.390, 1159.0, 34.0441
43.295634567, 96.390, 1141.0, 33.7787
43.321895132, 96.390, 1158.0, 34.0294
43.348155698, 96.390, 1184.0, 34.4093
43.374416263, 96.390, 1135.0, 33.6898
43.400676828, 96.390, 1149.0, 33.8969
43.426937394, 96.390, 1183.0, 34.3948
43.453197959, 96.390, 1079.0, 32.8481
43.479458525, 96.390, 1122.0, 33.4963
43.505719090, 96.390, 1109.0, 33.3017
43.531979655, 96.390, 1216.0, 34.8712
43.558240221, 96.390, 1139.0, 33.7491
43.584500786, 96.390, 1158.0, 34.0294
43.610761351, 96.390, 1179.0, 34.3366
43.637021917, 96.390, 1163.0, 34.1028
43.663282482, 96.390, 1196.0, 34.5832
43.689543047, 96.390, 1114.0, 33.3766
43.715803613, 96.390, 1124.0, 33.5261
43.742064178, 96.390, 1185.0, 34.4238
43.768324743, 96.390, 1214.0, 34.8425
43.794585309, 96.390, 1279.0, 35.7631
43.820845874, 96.390, 1253.0, 35.3977
43.847106440, 96.390, 1275.0, 35.7071
43.873367005, 96.390, 1205.0, 34.7131
43.899627570, 96.390, 1186.0, 34.4384
43.925888136, 96.390, 1253.0, 35.3977
43.952148701, 96.390, 1121.0, 33.4813
43.978409266, 96.390, 1093.0, 33.0606
44.004669832, 96.390, 1121.0, 33.4813
44.030930397, 96.390, 1083.0, 32.9090
44.057190962, 96.390, 1117.0, 33.4215
44.083451528, 96.390, 1042.0, 32.2800
44.109712093, 96.390, 1092.0, 33.0454
44.135972658, 96.390, 1121.0, 33.4813
44.162233224, 96.390, 1085.0, 32.9393
44.188493789, 96.390, 1056.0, 32.4962
44.214754354, 96.390, 1023.0, 31.9844
44.241014920, 96.390, 1123.0, 33.5112
44.267275485, 96.390, 1086.0, 32.9545
44.293536051, 96.390, 1116.0, 33.4066
44.319796616, 96.390, 1033.0, 32.1403
44.346057181, 96.390, 1078.0, 32.8329
44.372317747, 96.390, 1056.0, 32.4962
44.398578312, 96.390, 1091.0, 33.0303
44.424838877, 96.390, 1081.0, 32.8786
44.451099443, 96.390, 1063.0, 32.6037
44.477360008, 96.390, 1094.0, 33.0757
44.503620573, 96.390, 1090.0, 33.0151
44.529881139, 96.390, 1134.0, 33.6749
44.556141704, 96.390, 1130.0, 33.6155
44.582402269, 96.390, 1028.0, 32.0624
44.608662835, 96.390, 1078.0, 32.8329
44.634923400, 96.390, 1103.0, 33.2114
44.661183966, 96.390, 1000.0, 31.6228
44.687444531, 96.390, 1089.0, 33.0000
44.713705096, 96.390, 1134.0, 33.6749
44.739965662, 96.390, 993.0, 31.5119
44.766226227, 96.390, 1058.0, 32.5269
44.792486792, 96.390, 1088.0, 32.9848
44.818747358, 96.390, 1144.0, 33.8231
44.845007923, 96.390, 1087.0, 32.9697
44.871268488, 96.390, 1155.0, 33.9853
44.897529054, 96.390, 1137.0, 33.7194
44.923789619, 96.390, 1146.0, 33.8526
44.950050184, 96.390, 1223.0, 34.9714
44.976310750, 96.390, 1243.0, 35.2562
45.002571315, 96.390, 1257.0, 35.4542
45.028831880, 96.390, 1389.0, 37.2693
45.055092446, 96.390, 1306.0, 36.1386
45.081353011, 96.390, 1333.0, 36.5103
45.107613577, 96.390, 1326.0, 36.4143
45.133874142, 96.390, 1389.0, 37.2693
45.160134707, 96.390, 1372.0, 37.0405
45.186395273, 96.390, 1329.0, 36.4555
45.212655838, 96.390, 1380.0, 37.1484
45.238916403, 96.390, 1236.0, 35.1568
45.265176969, 96.390, 1291.0, 35.9305
45.291437534, 96.390, 1244.0, 35.2704
45.317698099, 96.390, 1266.0, 35.5809
45.343958665, 96.390, 1197.0, 34.5977
45.370219230, 96.390, 1185.0, 34.4238
45.396479795, 96.390, 1209.0, 34.7707
45.422740361, 96.390, 1133.0, 33.6601
45.449000926, 96.390, 1138.0, 33.7343
45.475261492, 96.390, 1119.0, 33.4515
45.501522057, 96.390, 1123.0, 33.5112
45.527782622, 96.390, 1083.0, 32.9090
45.554043188, 96.390, 1108.0, 33.2866
45.580303753, 96.390, 1118.0, 33.4365
45.606564318, 96.390, 1114.0, 33.3766
45.632824884, 96.390, 1221.0, 34.9428
45.659085449, 96.390, 1178.0, 34.3220
45.685346014, 96.390, 1212.0, 34.8138
45.711606580, 96.390, 1117.0, 33.4215
45.737867145, 96.390, 1156.0, 34.0000
45.764127710, 96.390, 1160.0, 34.0588
45.790388276, 96.390, 1109.0, 33.3017
45.816648841, 96.390, 1143.0, 33.8083
45.842909406, 96.390, 1166.0, 34.1467
45.869169972, 96.390, 1231.0, 35.0856
45.895430537, 96.390, 1121.0, 33.4813
45.921691103, 96.390, 1117.0, 33.4215
45.947951668, 96.390, 1182.0, 34.3802
45.974212233, 96.390, 1184.0, 34.4093
46.000472799, 96.390, 1155.0, 33.9853
46.026733364, 96.390, 1207.0, 34.7419
46.052993929, 96.390, 1092.0, 33.0454
46.079254495, 96.390, 1184.0, 34.4093
46.105515060, 96.390, 1250.0, 35.3553
46.131775625, 96.390, 1280.0, 35.7771
46.158036191, 96.390, 1255.0, 35.4260
46.184296756, 96.390, 1256.0, 35.4401
46.210557321, 96.390, 1311.0, 36.2077
46.236817887, 96.390, 1301.0, 36.0694
46.263078452, 96.390, 1319.0, 36.3180
46.289339017, 96.390, 1204.0, 34.6987
46.315599583, 96.390, 1366.0, 36.9594
46.341860148, 96.390, 1360.0, 36.8782
46.368120714, 96.390, 1377.0, 37.1080
46.394381279, 96.390, 1422.0, 37.7094
46.420641844, 96.390, 1278.0, 35.7491
46.446902410, 96.390, 1378.0, 37.1214
46.473162975, 96.390, 1382.0, 37.1753
46.499423540, 96.390, 1285.0, 35.8469
46.525684106, 96.390, 1395.0, 37.3497
46.551944671, 96.390, 1314.0, 36.2491
46.578205236, 96.390, 1255.0, 35.4260
46.604465802, 96.390, 1268.0, 35.6090
46.630726367, 96.390, 1283.0, 35.8190
46.656986932, 96.390, 1248.0, 35.3270
46.683247498, 96.390, 1233.0, 35.1141
46.709508063, 96.390, 1285.0, 35.8469
46.735768629, 96.390, 1246.0, 35.2987
46.762029194, 96.390, 1276.0, 35.7211
46.788289759, 96.390, 1301.0, 36.0694
46.814550325, 96.390, 1279.0, 35.7631
46.840810890, 96.390, 1225.0, 35.0000
46.867071455, 96.390, 1315.0, 36.2629
46.893332021, 96.390, 1306.0, 36.1386
46.919592586, 96.390, 1333.0, 36.5103
46.945853151, 96.390, 1280.0, 35.7771
46.972113717, 96.390, 1324.0, 36.3868
46.998374282, 96.390, 1317.0, 36.2905
47.024634847, 96.390, 1263.0, 35.5387
47.050895413, 96.390, 1273.0, 35.6791
47.077155978, 96.390, 1330.0, 36.4692
47.103416543, 96.390, 1271.0, 35.6511
47.129677109, 96.390, 1307.0, 36.1525
47.155937674, 96.390, 1259.0, 35.4824
47.182198240, 96.390, 1319.0, 36.3180
47.208458805, 96.390, 1269.0, 35.6230
47.234719370, 96.390, 1232.0, 35.0999
47.260979936, 96.390, 1331.0, 36.4829
47.287240501, 96.390, 1220.0, 34.9285
47.313501066, 96.390, 1235.0, 35.1426
47.339761632, 96.390, 1283.0, 35.8190
47.366022197, 96.390, 1186.0, 34.4384
47.392282762, 96.390, 1323.0, 36.3731
47.418543328, 96.390, 1202.0, 34.6699
47.444803893, 96.390, 1181.0, 34.3657
47.471064458, 96.390, 1166.0, 34.1467
47.497325024, 96.390, 1159.0, 34.0441
47.523585589, 96.390, 1143.0, 33.8083
47.549846155, 96.390, 1193.0, 34.5398
47.576106720, 96.390, 1142.0, 33.7935
47.602367285, 96.390, 1111.0, 33.3317
47.628627851, 96.390, 1124.0, 33.5261
47.654888416, 96.390, 1176.0, 34.2929
47.681148981, 96.390, 1147.0, 33.8674
47.707409547, 96.390, 1194.0, 34.5543
47.733670112, 96.390, 1091.0, 33.0303
47.759930677, 96.390, 1099.0, 33.1512
47.786191243, 96.390, 1123.0, 33.5112
47.812451808, 96.390, 1097.0, 33.1210
47.838712373, 96.390, 1154.0, 33.9706
47.864972939, 96.390, 1030.0, 32.0936
47.891233504, 96.390, 1055.0, 32.4808
47.917494069, 96.390, 1098.0, 33.1361
47.943754635, 96.390, 1049.0, 32.3883
47.970015200, 96.390, 1057.0, 32.5115
47.996275766, 96.390, 1066.0, 32.6497
48.022536331, 96.390, 1008.0, 31.7490
48.048796896, 96.390, 1041.0, 32.2645
48.075057462, 96.390, 1027.0, 32.0468
48.101318027, 96.390, 1000.0, 31.6228
48.127578592, 96.390, 993.0, 31.5119
48.153839158, 96.390, 1009.0, 31.7648
48.180099723, 96.390, 967.0, 31.0966
48.206360288, 96.390, 1012.0, 31.8119
48.232620854, 96.390, 1021.0, 31.9531
48.258881419, 96.390, 1057.0, 32.5115
48.285141984, 96.390, 981.0, 31.3209
48.311402550, 96.390, 975.0, 31.2250
48.337663115, 96.390, 987.0, 31.4166
48.363923681, 96.390, 990.0, 31.4643
48.390184246, 96.390, 983.0, 31.3528
48.416444811, 96.390, 975.0, 31.2250
48.442705377, 96.390, 949.0, 30.8058
48.468965942, 96.390, 1006.0, 31.7175
48.495226507, 96.390, 995.0, 31.5436
48.521487073, 96.390, 985.0, 31.3847
48.547747638, 96.390, 977.0, 31.2570
48.574008203, 96.390, 1032.0, 32.1248
48.600268769, 96.390, 967.0, 31.0966
48.626529334, 96.390, 982.0, 31.3369
48.652789899, 96.390, 1045.0, 32.3265
48.679050465, 96.390, 1044.0, 32.3110
48.705311030, 96.390, 971.0, 31.1609
48.731571595, 96.390, 987.0, 31.4166
48.757832161, 96.390, 957.0, 30.9354
48.784092726, 96.390, 948.0, 30.7896
48.810353292, 96.390, 927.0, 30.4467
48.836613857, 96.390, 931.0, 30.5123
48.862874422, 96.390, 959.0, 30.9677
48.889134988, 96.390, 967.0, 31.0966
48.915395553, 96.390, 944.0, 30.7246
48.941656118, 96.390, 930.0, 30.4959
48.967916684, 96.390, 918.0, 30.2985
48.994177249, 96.390, 887.0, 29.7825
49.020437814, 96.390, 875.0, 29.5804
49.046698380, 96.390, 893.0, 29.8831
49.072958945, 96.390, 922.0, 30.3645
49.099219510, 96.390, 874.0, 29.5635
49.125480076, 96.390, 923.0, 30.3809
49.151740641, 96.390, 888.0, 29.7993
49.178001207, 96.390, 940.0, 30.6594
49.204261772, 96.390, 888.0, 29.7993
49.230522337, 96.390, 938.0, 30.6268
49.256782903, 96.390, 866.0, 29.4279
49.283043468, 96.390, 909.0, 30.1496
49.309304033, 96.390, 814.0, 28.5307
49.335564599, 96.390, 920.0, 30.3315
49.361825164, 96.390, 838.0, 28.9482
49.388085729, 96.390, 871.0, 29.5127
49.414346295, 96.390, 888.0, 29.7993
49.440606860, 96.390, 948.0, 30.7896
49.466867425, 96.390, 880.0, 29.6648
49.493127991, 96.390, 947.0, 30.7734
49.519388556, 96.390, 864.0, 29.3939
49.545649121, 96.390, 891.0, 29.8496
49.571909687, 96.390, 894.0, 29.8998
49.598170252, 96.390, 882.0, 29.6985
49.624430818, 96.390, 894.0, 29.8998
49.650691383, 96.390, 873.0, 29.5466
49.676951948, 96.390, 879.0, 29.6479
49.703212514, 96.390, 945.0, 30.7409
49.729473079, 96.390, 835.0, 28.8964
49.755733644, 96.390, 927.0, 30.4467
49.781994210, 96.390, 915.0, 30.2490
49.808254775, 96.390, 949.0, 30.8058
49.834515340, 96.390, 903.0, 30.0500
49.860775906, 96.390, 918.0, 30.2985
49.887036471, 96.390, 870.0, 29.4958
49.913297036, 96.390, 950.0, 30.8221
49.939557602, 96.390, 932.0, 30.5287
49.965818167, 96.390, 926.0, 30.4302
49.992078733, 96.390, 939.0, 30.6431
50.018339298, 96.390, 918.0, 30.2985
50.044599863, 96.390, 924.0, 30.3974
50.070860429, 96.390, 1002.0, 31.6544
50.097120994, 96.390, 924.0, 30.3974
50.123381559, 96.390, 948.0, 30.7896
50.149642125, 96.390, 905.0, 30.0832
50.175902690, 96.390, 958.0, 30.9516
50.202163255, 96.390, 887.0, 29.7825
50.228423821, 96.390, 932.0, 30.5287
50.254684386, 96.390, 908.0, 30.1330
50.280944951, 96.390, 890.0, 29.8329
50.307205517, 96.390, 872.0, 29.5296
50.333466082, 96.390, 905.0, 30.0832
50.359726647, 96.390, 864.0, 29.3939
50.385987213, 96.390, 950.0, 30.8221
50.412247778, 96.390, 936.0, 30.5941
50.438508344, 96.390, 906.0, 30.0998
50.464768909, 96.390, 941.0, 30.6757
50.491029474, 96.390, 943.0, 30.7083
50.517290040, 96.390, 872.0, 29.5296
50.543550605, 96.390, 904.0, 30.0666
50.569811170, 96.390, 921.0, 30.3480
50.596071736, 96.390, 891.0, 29.8496
50.622332301, 96.390, 923.0, 30.3809
50.648592866, 96.390, 874.0, 29.5635
50.674853432, 96.390, 871.0, 29.5127
50.701113997, 96.390, 921.0, 30.3480
50.727374562, 96.390, 890.0, 29.8329
50.753635128, 96.390, 902.0, 30.0333
50.779895693, 96.390, 953.0, 30.8707
50.806156258, 96.390, 957.0, 30.9354
50.832416824, 96.390, 974.0, 31.2090
50.858677389, 96.390, 998.0, 31.5911
50.884937955, 96.390, 955.0, 30.9031
50.911198520, 96.390, 998.0, 31.5911
50.937459085, 96.390, 1013.0, 31.8277
50.963719651, 96.390, 979.0, 31.2890
50.989980216, 96.390, 971.0, 31.1609
51.016240781, 96.390, 1053.0, 32.4500
51.042501347, 96.390, 1021.0, 31.9531
51.068761912, 96.390, 1015.0, 31.8591
51.095022477, 96.390, 1007.0, 31.7333
51.121283043, 96.390, 976.0, 31.2410
51.147543608, 96.390, 989.0, 31.4484
51.173804173, 96.390, 1006.0, 31.7175
51.200064739, 96.390, 1046.0, 32.3419
51.226325304, 96.390, 1000.0, 31.6228
51.252585870, 96.390, 922.0, 30.3645
51.278846435, 96.390, 961.0, 31.0000
51.305107000, 96.390, 919.0, 30.3150
51.331367566, 96.390, 992.0, 31.4960
51.357628131, 96.390, 906.0, 30.0998
51.383888696, 96.390, 940.0, 30.6594
51.410149262, 96.390, 1066.0, 32.6497
51.436409827, 96.390, 996.0, 31.5595
51.462670392, 96.390, 992.0, 31.4960
51.488930958, 96.390, 994.0, 31.5278
51.515191523, 96.390, 977.0, 31.2570
51.541452088, 96.390, 996.0, 31.5595
51.567712654, 96.390, 1049.0, 32.3883
51.593973219, 96.390, 1060.0, 32.5576
51.620233784, 96.390, 1021.0, 31.9531
51.646494350, 96.390, 1080.0, 32.8634
51.672754915, 96.390, 1056.0, 32.4962
51.699015481, 96.390, 1036.0, 32.1870
51.725276046, 96.390, 1041.0, 32.2645
51.751536611, 96.390, 971.0, 31.1609
51.777797177, 96.390, 967.0, 31.0966
51.804057742, 96.390, 947.0, 30.7734
51.830318307, 96.390, 888.0, 29.7993
51.856578873, 96.390, 934.0, 30.5614
51.882839438, 96.390, 968.0, 31.1127
51.909100003, 96.390, 940.0, 30.6594
51.935360569, 96.390, 948.0, 30.7896
51.961621134, 96.390, 907.0, 30.1164
51.987881699, 96.390, 954.0, 30.8869
52.014142265, 96.390, 948.0, 30.7896
52.040402830, 96.390, 918.0, 30.2985
52.066663396, 96.390, 995.0, 31.5436
52.092923961, 96.390, 1005.0, 31.7017
52.119184526, 96.390, 970.0, 31.1448
52.145445092, 96.390, 955.0, 30.9031
52.171705657, 96.390, 972.0, 31.1769
52.197966222, 96.390, 985.0, 31.3847
52.224226788, 96.390, 921.0, 30.3480
52.250487353, 96.390, 1021.0, 31.9531
52.276747918, 96.390, 959.0, 30.9677
52.303008484, 96.390, 934.0, 30.5614
52.329269049, 96.390, 941.0, 30.6757
52.355529614, 96.390, 928.0, 30.4631
52.381790180, 96.390, 985.0, 31.3847
52.408050745, 96.390, 906.0, 30.0998
52.434311310, 96.390, 956.0, 30.9192
52.460571876, 96.390, 983.0, 31.3528
52.486832441, 96.390, 974.0, 31.2090
52.513093007, 96.390, 988.0, 31.4325
52.539353572, 96.390, 969.0, 31.1288
52.565614137, 96.390, 968.0, 31.1127
52.591874703, 96.390, 973.0, 31.1929
52.618135268, 96.390, 1061.0, 32.5730
52.644395833, 96.390, 964.0, 31.0483
52.670656399, 96.390, 986.0, 31.4006
52.696916964, 96.390, 898.0, 29.9666
52.723177529, 96.390, 917.0, 30.2820
52.749438095, 96.390, 986.0, 31.4006
52.775698660, 96.390, 942.0, 30.6920
52.801959225, 96.390, 965.0, 31.0644
52.828219791, 96.390, 1007.0, 31.7333
52.854480356, 96.390, 1002.0, 31.6544
52.880740922, 96.390, 960.0, 30.9839
52.907001487, 96.390, 1028.0, 32.0624
52.933262052, 96.390, 994.0, 31.5278
52.959522618, 96.390, 1041.0, 32.2645
52.985783183, 96.390, 1027.0, 32.0468
53.012043748, 96.390, 1069.0, 32.6956
53.038304314, 96.390, 1089.0, 33.0000
53.064564879, 96.390, 1146.0, 33.8526
53.090825444, 96.390, 1051.0, 32.4191
53.117086010, 96.390, 1177.0, 34.3074
53.143346575, 96.390, 1070.0, 32.7109
53.169607140, 96.390, 1133.0, 33.6601
53.195867706, 96.390, 1066.0, 32.6497
53.222128271, 96.390, 1109.0, 33.3017
53.248388836, 96.390, 1031.0, 32.1092
53.274649402, 96.390, 1004.0, 31.6860
53.300909967, 96.390, 999.0, 31.6070
53.327170533, 96.390, 995.0, 31.5436
53.353431098, 96.390, 940.0, 30.6594
53.379691663, 96.390, 931.0, 30.5123
53.405952229, 96.390, 992.0, 31.4960
53.432212794, 96.390, 890.0, 29.8329
53.458473359, 96.390, 915.0, 30.2490
53.484733925, 96.390, 892.0, 29.8664
53.510994490, 96.390, 887.0, 29.7825
53.537255055, 96.390, 948.0, 30.7896
53.563515621, 96.390, 868.0, 29.4618
53.589776186, 96.390, 927.0, 30.4467
53.616036751, 96.390, 904.0, 30.0666
53.642297317, 96.390, 904.0, 30.0666
53.668557882, 96.390, 911.0, 30.1828
53.694818448, 96.390, 865.0, 29.4109
53.721079013, 96.390, 858.0, 29.2916
53.747339578, 96.390, 887.0, 29.7825
53.773600144, 96.390, 879.0, 29.6479
53.799860709, 96.390, 866.0, 29.4279
53.826121274, 96.390, 861.0, 29.3428
53.852381840, 96.390, 868.0, 29.4618
53.878642405, 96.390, 847.0, 29.1033
53.904902970, 96.390, 802.0, 28.3196
53.931163536, 96.390, 856.0, 29.2575
53.957424101, 96.390, 835.0, 28.8964
53.983684666, 96.390, 801.0, 28.3019
54.009945232, 96.390, 829.0, 28.7924
54.036205797, 96.390, 781.0, 27.9464
54.062466362, 96.390, 846.0, 29.0861
54.088726928, 96.390, 821.0, 28.6531
54.114987493, 96.390, 809.0, 28.4429
54.141248059, 96.390, 861.0, 29.3428
54.167508624, 96.390, 868.0, 29.4618
54.193769189, 96.390, 813.0, 28.5132
54.220029755, 96.390, 861.0, 29.3428
54.246290320, 96.390, 805.0, 28.3725
54.272550885, 96.390, 852.0, 29.1890
54.298811451, 96.390, 819.0, 28.6182
54.325072016, 96.390, 803.0, 28.3373
54.351332581, 96.390, 807.0, 28.4077
54.377593147, 96.390, 828.0, 28.7750
54.403853712, 96.390, 814.0, 28.5307
54.430114277, 96.390, 809.0, 28.4429
54.456374843, 96.390, 825.0, 28.7228
54.482635408, 96.390, 859.0, 29.3087
54.508895973, 96.390, 844.0, 29.0517
54.535156539, 96.390, 887.0, 29.7825
54.561417104, 96.390, 772.0, 27.7849
54.587677670, 96.390, 826.0, 28.7402
54.613938235, 96.390, 910.0, 30.1662
54.640198800, 96.390, 831.0, 28.8271
54.666459366, 96.390, 857.0, 29.2746
54.692719931, 96.390, 817.0, 28.5832
54.718980496, 96.390, 880.0, 29.6648
54.745241062, 96.390, 835.0, 28.8964
54.771501627, 96.390, 822.0, 28.6705
54.797762192, 96.390, 868.0, 29.4618
54.824022758, 96.390, 791.0, 28.1247
54.850283323, 96.390, 837.0, 28.9310
54.876543888, 96.390, 812.0, 28.4956
54.902804454, 96.390, 915.0, 30.2490
54.929065019, 96.390, 854.0, 29.2233
54.955325585, 96.390, 831.0, 28.8271
54.981586150, 96.390, 861.0, 29.3428
55.007846715, 96.390, 863.0, 29.3769
55.034107281, 96.390, 803.0, 28.3373
55.060367846, 96.390, 862.0, 29.3598
55.086628411, 96.390, 859.0, 29.3087
55.112888977, 96.390, 850.0, 29.1548
55.139149542, 96.390, 892.0, 29.8664
55.165410107, 96.390, 914.0, 30.2324
55.191670673, 96.390, 881.0, 29.6816
55.217931238, 96.390, 825.0, 28.7228
55.244191803, 96.390, 842.0, 29.0172
55.270452369, 96.390, 845.0, 29.0689
55.296712934, 96.390, 805.0, 28.3725
55.322973499, 96.390, 821.0, 28.6531
55.349234065, 96.390, 828.0, 28.7750
55.375494630, 96.390, 807.0, 28.4077
55.401755196, 96.390, 849.0, 29.1376
55.428015761, 96.390, 779.0, 27.9106
55.454276326, 96.390, 771.0, 27.7669
55.480536892, 96.390, 791.0, 28.1247
55.506797457, 96.390, 786.0, 28.0357
55.533058022, 96.390, 818.0, 28.6007
55.559318588, 96.390, 807.0, 28.4077
55.585579153, 96.390, 844.0, 29.0517
55.611839718, 96.390, 768.0, 27.7128
55.638100284, 96.390, 809.0, 28.4429
55.664360849, 96.390, 841.0, 29.0000
55.690621414, 96.390, 801.0, 28.3019
55.716881980, 96.390, 826.0, 28.7402
55.743142545, 96.390, 850.0, 29.1548
55.769403111, 96.390, 887.0, 29.7825
55.795663676, 96.390, 872.0, 29.5296
55.821924241, 96.390, 855.0, 29.2404
55.848184807, 96.390, 861.0, 29.3428
55.874445372, 96.390, 881.0, 29.6816
55.900705937, 96.390, 856.0, 29.2575
55.926966503, 96.390, 850.0, 29.1548
55.953227068, 96.390, 805.0, 28.3725
55.979487633, 96.390, 758.0, 27.5318
56.005748199, 96.390, 778.0, 27.8927
56.032008764, 96.390, 808.0, 28.4253
56.058269329, 96.390, 822.0, 28.6705
56.084529895, 96.390, 741.0, 27.2213
56.110790460, 96.390, 762.0, 27.6043
56.137051025, 96.390, 747.0, 27.3313
56.163311591, 96.390, 791.0, 28.1247
56.189572156, 96.390, 781.0, 27.9464
56.215832722, 96.390, 819.0, 28.6182
56.242093287, 96.390, 788.0, 28.0713
56.268353852, 96.390, 832.0, 28.8444
56.294614418, 96.390, 775.0, 27.8388
56.320874983, 96.390, 716.0, 26.7582
56.347135548, 96.390, 811.0, 28.4781
56.373396114, 96.390, 833.0, 28.8617
56.399656679, 96.390, 848.0, 29.1204
56.425917244, 96.390, 841.0, 29.0000
56.452177810, 96.390, 805.0, 28.3725
56.478438375, 96.390, 804.0, 28.3549
56.504698940, 96.390, 805.0, 28.3725
56.530959506, 96.390, 787.0, 28.0535
56.557220071, 96.390, 859.0, 29.3087
56.583480637, 96.390, 846.0, 29.0861
56.609741202, 96.390, 835.0, 28.8964
56.636001767, 96.390, 826.0, 28.7402
56.662262333, 96.390, 857.0, 29.2746
56.688522898, 96.390, 840.0, 28.9828
56.714783463, 96.390, 888.0, 29.7993
56.741044029, 96.390, 852.0, 29.1890
56.767304594, 96.390, 870.0, 29.4958
56.793565159, 96.390, 896.0, 29.9333
56.819825725, 96.390, 904.0, 30.0666
56.846086290, 96.390, 895.0, 29.9166
56.872346855, 96.390, 866.0, 29.4279
56.898607421, 96.390, 924.0, 30.3974
56.924867986, 96.390, 880.0, 29.6648
56.951128551, 96.390, 871.0, 29.5127
56.977389117, 96.390, 880.0, 29.6648
57.003649682, 96.390, 850.0, 29.1548
57.029910248, 96.390, 921.0, 30.3480
57.056170813, 96.390, 948.0, 30.7896
57.082431378, 96.390, 911.0, 30.1828
57.108691944, 96.390, 956.0, 30.9192
57.134952509, 96.390, 1016.0, 31.8748
57.161213074, 96.390, 978.0, 31.2730
57.187473640, 96.390, 1048.0, 32.3728
57.213734205, 96.390, 1094.0, 33.0757
57.239994770, 96.390, 1097.0, 33.1210
57.266255336, 96.390, 1028.0, 32.0624
57.292515901, 96.390, 1031.0, 32.1092
57.318776466, 96.390, 1110.0, 33.3167
57.345037032, 96.390, 1096.0, 33.1059
57.371297597, 96.390, 1019.0, 31.9218
57.397558163, 96.390, 1068.0, 32.6803
57.423818728, 96.390, 951.0, 30.8383
57.450079293, 96.390, 1056.0, 32.4962
57.476339859, 96.390, 1000.0, 31.6228
57.502600424, 96.390, 927.0, 30.4467
57.528860989, 96.390, 935.0, 30.5778
57.555121555, 96.390, 915.0, 30.2490
57.581382120, 96.390, 865.0, 29.4109
57.607642685, 96.390, 868.0, 29.4618
57.633903251, 96.390, 874.0, 29.5635
57.660163816, 96.390, 896.0, 29.9333
57.686424381, 96.390, 862.0, 29.3598
57.712684947, 96.390, 827.0, 28.7576
57.738945512, 96.390, 876.0, 29.5973
57.765206077, 96.390, 808.0, 28.4253
57.791466643, 96.390, 853.0, 29.2062
57.817727208, 96.390, 848.0, 29.1204
57.843987774, 96.390, 821.0, 28.6531
57.870248339, 96.390, 832.0, 28.8444
57.896508904, 96.390, 778.0, 27.8927
57.922769470, 96.390, 800.0, 28.2843
57.949030035, 96.390, 817.0, 28.5832
57.975290600, 96.390, 877.0, 29.6142
58.001551166, 96.390, 782.0, 27.9643
58.027811731, 96.390, 799.0, 28.2666
58.054072296, 96.390, 802.0, 28.3196
58.080332862, 96.390, 874.0, 29.5635
58.106593427, 96.390, 834.0, 28.8791
58.132853992, 96.390, 836.0, 28.9137
58.159114558, 96.390, 816.0, 28.5657
58.185375123, 96.390, 893.0, 29.8831
58.211635689, 96.390, 891.0, 29.8496
58.237896254, 96.390, 916.0, 30.2655
58.264156819, 96.390, 917.0, 30.2820
58.290417385, 96.390, 933.0, 30.5450
58.316677950, 96.390, 918.0, 30.2985
58.342938515, 96.390, 936.0, 30.5941
58.369199081, 96.390, 849.0, 29.1376
58.395459646, 96.390, 1023.0, 31.9844
58.421720211, 96.390, 929.0, 30.4795
58.447980777, 96.390, 874.0, 29.5635
58.474241342, 96.390, 897.0, 29.9500
58.500501907, 96.390, 910.0, 30.1662
58.526762473, 96.390, 864.0, 29.3939
58.553023038, 96.390, 928.0, 30.4631
58.579283603, 96.390, 925.0, 30.4138
58.605544169, 96.390, 852.0, 29.1890
58.631804734, 96.390, 891.0, 29.8496
58.658065300, 96.390, 835.0, 28.8964
58.684325865, 96.390, 899.0, 29.9833
58.710586430, 96.390, 824.0, 28.7054
58.736846996, 96.390, 904.0, 30.0666
58.763107561, 96.390, 882.0, 29.6985
58.789368126, 96.390, 892.0, 29.8664
58.815628692, 96.390, 868.0, 29.4618
58.841889257, 96.390, 867.0, 29.4449
58.868149822, 96.390, 883.0, 29.7153
58.894410388, 96.390, 923.0, 30.3809
58.920670953, 96.390, 872.0, 29.5296
58.946931518, 96.390, 876.0, 29.5973
58.973192084, 96.390, 921.0, 30.3480
58.999452649, 96.390, 959.0, 30.9677
59.025713214, 96.390, 904.0, 30.0666
59.051973780, 96.390, 879.0, 29.6479
59.078234345, 96.390, 946.0, 30.7571
59.104494911, 96.390, 954.0, 30.8869
59.130755476, 96.390, 869.0, 29.4788
59.157016041, 96.390, 953.0, 30.8707
59.183276607, 96.390, 901.0, 30.0167
59.209537172, 96.390, 960.0, 30.9839
59.235797737, 96.390, 909.0, 30.1496
59.262058303, 96.390, 904.0, 30.0666
59.288318868, 96.390, 961.0, 31.0000
59.314579433, 96.390, 891.0, 29.8496
59.340839999, 96.390, 883.0, 29.7153
59.367100564, 96.390, 939.0, 30.6431
59.393361129, 96.390, 926.0, 30.4302
59.419621695, 96.390, 928.0, 30.4631
59.445882260, 96.390, 958.0, 30.9516
59.472142826, 96.390, 947.0, 30.7734
59.498403391, 96.390, 964.0, 31.0483
59.524663956, 96.390, 982.0, 31.3369
59.550924522, 96.390, 987.0, 31.4166
59.577185087, 96.390, 1011.0, 31.7962
59.603445652, 96.390, 1010.0, 31.7805
59.629706218, 96.390, 1030.0, 32.0936
59.655966783, 96.390, 1086.0, 32.9545
59.682227348, 96.390, 1103.0, 33.2114
59.708487914, 96.390, 1074.0, 32.7719
59.734748479, 96.390, 1075.0, 32.7872
59.761009044, 96.390, 1128.0, 33.5857
59.787269610, 96.390, 1136.0, 33.7046
59.813530175, 96.390, 1078.0, 32.8329
59.839790740, 96.390, 1120.0, 33.4664
59.866051306, 96.390, 1134.0, 33.6749
59.892311871, 96.390, 1162.0, 34.0881
59.918572437, 96.390, 1192.0, 34.5254
59.944833002, 96.390, 1166.0, 34.1467
59.971093567, 96.390, 1198.0, 34.6121
59.997354133, 96.390, 1200.0, 34.6410
60.023614698, 96.390, 1229.0, 35.0571
60.049875263, 96.390, 1074.0, 32.7719
60.076135829, 96.390, 1179.0, 34.3366
60.102396394, 96.390, 1161.0, 34.0735
60.128656959, 96.390, 1175.0, 34.2783
60.154917525, 96.390, 1265.0, 35.5668
60.181178090, 96.390, 1248.0, 35.3270
60.207438655, 96.390, 1258.0, 35.4683
60.233699221, 96.390, 1300.0, 36.0555
60.259959786, 96.390, 1320.0, 36.3318
60.286220352, 96.390, 1313.0, 36.2353
60.312480917, 96.390, 1318.0, 36.3043
60.338741482, 96.390, 1323.0, 36.3731
60.365002048, 96.390, 1349.0, 36.7287
60.391262613, 96.390, 1379.0, 37.1349
60.417523178, 96.390, 1324.0, 36.3868
60.443783744, 96.390, 1344.0, 36.6606
60.470044309, 96.390, 1349.0, 36.7287
60.496304874, 96.390, 1352.0, 36.7696
60.522565440, 96.390, 1401.0, 37.4299
60.548826005, 96.390, 1361.0, 36.8917
60.575086570, 96.390, 1315.0, 36.2629
60.601347136, 96.390, 1318.0, 36.3043
60.627607701, 96.390, 1384.0, 37.2022
60.653868266, 96.390, 1333.0, 36.5103
60.680128832, 96.390, 1313.0, 36.2353
60.706389397, 96.390, 1334.0, 36.5240
60.732649963, 96.390, 1354.0, 36.7967
60.758910528, 96.390, 1352.0, 36.7696
60.785171093, 96.390, 1325.0, 36.4005
60.811431659, 96.390, 1314.0, 36.2491
60.837692224, 96.390, 1340.0, 36.6060
60.863952789, 96.390, 1366.0, 36.9594
60.890213355, 96.390, 1286.0, 35.8608
60.916473920, 96.390, 1385.0, 37.2156
60.942734485, 96.390, 1291.0, 35.9305
60.968995051, 96.390, 1231.0, 35.0856
60.995255616, 96.390, 1258.0, 35.4683
61.021516181, 96.390, 1279.0, 35.7631
61.047776747, 96.390, 1213.0, 34.8281
61.074037312, 96.390, 1239.0, 35.1994
61.100297878, 96.390, 1175.0, 34.2783
61.126558443, 96.390, 1188.0, 34.4674
61.152819008, 96.390, 1165.0, 34.1321
61.179079574, 96.390, 1131.0, 33.6303
61.205340139, 96.390, 1145.0, 33.8378
61.231600704, 96.390, 1167.0, 34.1614
61.257861270, 96.390, 1076.0, 32.8024
61.284121835, 96.390, 1077.0, 32.8177
61.310382400, 96.390, 1142.0, 33.7935
61.336642966, 96.390, 1059.0, 32.5423
61.362903531, 96.390, 1053.0, 32.4500
61.389164096, 96.390, 1058.0, 32.5269
61.415424662, 96.390, 1044.0, 32.3110
61.441685227, 96.390, 1042.0, 32.2800
61.467945792, 96.390, 1060.0, 32.5576
61.494206358, 96.390, 1048.0, 32.3728
61.520466923, 96.390, 1065.0, 32.6343
61.546727489, 96.390, 1013.0, 31.8277
61.572988054, 96.390, 1031.0, 32.1092
61.599248619, 96.390, 1015.0, 31.8591
61.625509185, 96.390, 1068.0, 32.6803
61.651769750, 96.390, 1053.0, 32.4500
61.678030315, 96.390, 993.0, 31.5119
61.704290881, 96.390, 967.0, 31.0966
61.730551446, 96.390, 1005.0, 31.7017
61.756812011, 96.390, 1018.0, 31.9061
61.783072577, 96.390, 991.0, 31.4802
61.809333142, 96.390, 1012.0, 31.8119
61.835593707, 96.390, 1042.0, 32.2800
61.861854273, 96.390, 1087.0, 32.9697
61.888114838, 96.390, 996.0, 31.5595
61.914375404, 96.390, 1039.0, 32.2335
61.940635969, 96.390, 1042.0, 32.2800
61.966896534, 96.390, 1061.0, 32.5730
61.993157100, 96.390, 1044.0, 32.3110
62.019417665, 96.390, 1055.0, 32.4808
62.045678230, 96.390, 1015.0, 31.8591
62.071938796, 96.390, 1061.0, 32.5730
62.098199361, 96.390, 1073.0, 32.7567
62.124459926, 96.390, 1015.0, 31.8591
62.150720492, 96.390, 1018.0, 31.9061
62.176981057, 96.390, 1062.0, 32.5883
62.203241622, 96.390, 1039.0, 32.2335
62.229502188, 96.390, 1019.0, 31.9218
62.255762753, 96.390, 999.0, 31.6070
62.282023318, 96.390, 1059.0, 32.5423
62.308283884, 96.390, 1006.0, 31.7175
62.334544449, 96.390, 999.0, 31.6070
62.360805015, 96.390, 942.0, 30.6920
62.387065580, 96.390, 1048.0, 32.3728
62.413326145, 96.390, 960.0, 30.9839
62.439586711, 96.390, 920.0, 30.3315
62.465847276, 96.390, 950.0, 30.8221
62.492107841, 96.390, 912.0, 30.1993
62.518368407, 96.390, 892.0, 29.8664
62.544628972, 96.390, 854.0, 29.2233
62.570889537, 96.390, 883.0, 29.7153
62.597150103, 96.390, 862.0, 29.3598
62.623410668, 96.390, 953.0, 30.8707
62.649671233, 96.390, 875.0, 29.5804
62.675931799, 96.390, 869.0, 29.4788
62.702192364, 96.390, 864.0, 29.3939
62.728452930, 96.390, 886.0, 29.7658
62.754713495, 96.390, 893.0, 29.8831
62.780974060, 96.390, 860.0, 29.3258
62.807234626, 96.390, 880.0, 29.6648
62.833495191, 96.390, 870.0, 29.4958
62.859755756, 96.390, 879.0, 29.6479
62.886016322, 96.390, 845.0, 29.0689
62.912276887, 96.390, 942.0, 30.6920
62.938537452, 96.390, 889.0, 29.8161
62.964798018, 96.390, 883.0, 29.7153
62.991058583, 96.390, 924.0, 30.3974
63.017319148, 96.390, 956.0, 30.9192
63.043579714, 96.390, 916.0, 30.2655
63.069840279, 96.390, 829.0, 28.7924
63.096100844, 96.390, 817.0, 28.5832
63.122361410, 96.390, 871.0, 29.5127
63.148621975, 96.390, 910.0, 30.1662
63.174882541, 96.390, 898.0, 29.9666
63.201143106, 96.390, 825.0, 28.7228
63.227403671, 96.390, 820.0, 28.6356
63.253664237, 96.390, 800.0, 28.2843
63.279924802, 96.390, 839.0, 28.9655
63.306185367, 96.390, 879.0, 29.6479
63.332445933, 96.390, 790.0, 28.1069
63.358706498, 96.390, 777.0, 27.8747
63.384967063, 96.390, 709.0, 26.6271
63.411227629, 96.390, 791.0, 28.1247
63.437488194, 96.390, 781.0, 27.9464
63.463748759, 96.390, 744.0, 27.2764
63.490009325, 96.390, 736.0, 27.1293
63.516269890, 96.390, 775.0, 27.8388
63.542530455, 96.390, 687.0, 26.2107
63.568791021, 96.390, 758.0, 27.5318
63.595051586, 96.390, 820.0, 28.6356
63.621312152, 96.390, 758.0, 27.5318
63.647572717, 96.390, 765.0, 27.6586
63.673833282, 96.390, 738.0, 27.1662
63.700093848, 96.390, 728.0, 26.9815
63.726354413, 96.390, 743.0, 27.2580
63.752614978, 96.390, 744.0, 27.2764
63.778875544, 96.390, 786.0, 28.0357
63.805136109, 96.390, 768.0, 27.7128
63.831396674, 96.390, 720.0, 26.8328
63.857657240, 96.390, 735.0, 27.1109
63.883917805, 96.390, 748.0, 27.3496
63.910178370, 96.390, 781.0, 27.9464
63.936438936, 96.390, 750.0, 27.3861
63.962699501, 96.390, 821.0, 28.6531
63.988960067, 96.390, 744.0, 27.2764
64.015220632, 96.390, 787.0, 28.0535
64.041481197, 96.390, 784.0, 28.0000
64.067741763, 96.390, 730.0, 27.0185
64.094002328, 96.390, 708.0, 26.6083
64.120262893, 96.390, 763.0, 27.6225
64.146523459, 96.390, 728.0, 26.9815
64.172784024, 96.390, 713.0, 26.7021
64.199044589, 96.390, 705.0, 26.5518
64.225305155, 96.390, 781.0, 27.9464
64.251565720, 96.390, 694.0, 26.3439
64.277826285, 96.390, 697.0, 26.4008
64.304086851, 96.390, 723.0, 26.8887
64.330347416, 96.390, 702.0, 26.4953
64.356607981, 96.390, 655.0, 25.5930
64.382868547, 96.390, 642.0, 25.3377
64.409129112, 96.390, 701.0, 26.4764
64.435389678, 96.390, 660.0, 25.6905
64.461650243, 96.390, 664.0, 25.7682
64.487910808, 96.390, 646.0, 25.4165
64.514171374, 96.390, 685.0, 26.1725
64.540431939, 96.390, 651.0, 25.5147
64.566692504, 96.390, 614.0, 24.7790
64.592953070, 96.390, 647.0, 25.4362
64.619213635, 96.390, 550.0, 23.4521
64.645474200, 96.390, 636.0, 25.2190
64.671734766, 96.390, 730.0, 27.0185
64.697995331, 96.390, 614.0, 24.7790
64.724255896, 96.390, 640.0, 25.2982
64.750516462, 96.390, 595.0, 24.3926
64.776777027, 96.390, 577.0, 24.0208
64.803037593, 96.390, 617.0, 24.8395
64.829298158, 96.390, 581.0, 24.1039
64.855558723, 96.390, 625.0, 25.0000
64.881819289, 96.390, 646.0, 25.4165
64.908079854, 96.390, 613.0, 24.7588
64.934340419, 96.390, 628.0, 25.0599
64.960600985, 96.390, 678.0, 26.0384
64.986861550, 96.390, 660.0, 25.6905
