[Measurement conditions],,,
Sample identification,SiAxial30Mar22_Act12Feb23_B1_0714M_NaOH_LS0173_Num152,,
Comment - 2,"Configuration=Stage for Flat Samples/Holders, Owner=nmw10, Creation date=9/21/2022 10:06:30 AM",,
Comment - 3,Goniometer=Theta/Theta; Minimum step size 2Theta:0.0001; Minimum step size Omega:0.0001,,
Comment - 4,Sample stage=Stage for flat samples/holders,,
Comment - 5,Diffractometer system=EMPYREAN,,
Comment - 6,"Measurement program=X:\XRD\Cement\Zerobackground scan.xrdmp, Created identifier={98A3B11C-88F9-4AA6-982C-73314A311EF5}, Created by=Titus Reed, Id=tmr79, Creation date=10/26/2021 3:01:47 PM",,
Anode material,Cu,,
K-Alpha1 wavelength,1.540598,,
K-Alpha2 wavelength,1.544426,,
Ratio K-Alpha2/K-Alpha1,0.5,,
Divergence slit,Fixed,0.25,
Monochromator used,NO,,
Generator voltage,45,,
Tube current,40,,
File date and time,3/15/2023 18:42,,
Unit cell,,,
h k l, 0 0 0,,
Scan axis,Gonio,,
Scan range,4.994599997,64.99999183,
Scan step size,0.0262606,,
No. of points,2285,,
Scan type,CONTINUOUS,,
Time per step,96.39,,
[Scan points],,,
Angle, TimePerStep, Intensity, ESD
5.00773028,96.39,4379,66.174
5.033990845,96.39,4210,64.8845
5.060251411,96.39,4342,65.8939
5.086511976,96.39,4249,65.1844
5.112772541,96.39,4318,65.7115
5.139033107,96.39,4243,65.1383
5.165293672,96.39,4107,64.0859
5.191554237,96.39,4108,64.0937
5.217814803,96.39,4168,64.56
5.244075368,96.39,4125,64.2262
5.270335934,96.39,4152,64.436
5.296596499,96.39,4063,63.7417
5.322857064,96.39,4111,64.1171
5.34911763,96.39,4020,63.4035
5.375378195,96.39,3858,62.1128
5.40163876,96.39,3975,63.0476
5.427899326,96.39,4021,63.4114
5.454159891,96.39,3916,62.578
5.480420456,96.39,3971,63.0159
5.506681022,96.39,3900,62.45
5.532941587,96.39,3800,61.6441
5.559202152,96.39,3836,61.9355
5.585462718,96.39,3948,62.8331
5.611723283,96.39,3828,61.8708
5.637983849,96.39,3876,62.2575
5.664244414,96.39,3760,61.3188
5.690504979,96.39,3782,61.498
5.716765545,96.39,3815,61.7657
5.74302611,96.39,3691,60.7536
5.769286675,96.39,3742,61.1719
5.795547241,96.39,3760,61.3188
5.821807806,96.39,3915,62.57
5.848068371,96.39,3795,61.6036
5.874328937,96.39,3709,60.9016
5.900589502,96.39,3766,61.3677
5.926850067,96.39,3622,60.1831
5.953110633,96.39,3702,60.8441
5.979371198,96.39,3728,61.0574
6.005631763,96.39,3702,60.8441
6.031892329,96.39,3690,60.7454
6.058152894,96.39,3696,60.7947
6.08441346,96.39,3710,60.9098
6.110674025,96.39,3665,60.5392
6.13693459,96.39,3604,60.0333
6.163195156,96.39,3660,60.4979
6.189455721,96.39,3742,61.1719
6.215716286,96.39,3670,60.5805
6.241976852,96.39,3656,60.4649
6.268237417,96.39,3664,60.531
6.294497982,96.39,3679,60.6548
6.320758548,96.39,3637,60.3075
6.347019113,96.39,3571,59.7578
6.373279678,96.39,3646,60.3821
6.399540244,96.39,3601,60.0083
6.425800809,96.39,3746,61.2046
6.452061375,96.39,3595,59.9583
6.47832194,96.39,3682,60.6795
6.504582505,96.39,3685,60.7042
6.530843071,96.39,3609,60.075
6.557103636,96.39,3627,60.2246
6.583364201,96.39,3717,60.9672
6.609624767,96.39,3749,61.2291
6.635885332,96.39,3591,59.925
6.662145897,96.39,3612,60.0999
6.688406463,96.39,3657,60.4731
6.714667028,96.39,3631,60.2578
6.740927593,96.39,3655,60.4566
6.767188159,96.39,3555,59.6238
6.793448724,96.39,3595,59.9583
6.819709289,96.39,3584,59.8665
6.845969855,96.39,3630,60.2495
6.87223042,96.39,3536,59.4643
6.898490986,96.39,3574,59.7829
6.924751551,96.39,3670,60.5805
6.951012116,96.39,3596,59.9667
6.977272682,96.39,3478,58.9746
7.003533247,96.39,3564,59.6992
7.029793812,96.39,3609,60.075
7.056054378,96.39,3493,59.1016
7.082314943,96.39,3659,60.4897
7.108575508,96.39,3557,59.6406
7.134836074,96.39,3547,59.5567
7.161096639,96.39,3531,59.4222
7.187357204,96.39,3534,59.4475
7.21361777,96.39,3660,60.4979
7.239878335,96.39,3612,60.0999
7.2661389,96.39,3582,59.8498
7.292399466,96.39,3600,60
7.318660031,96.39,3576,59.7997
7.344920597,96.39,3689,60.7371
7.371181162,96.39,3494,59.1101
7.397441727,96.39,3628,60.2329
7.423702293,96.39,3539,59.4895
7.449962858,96.39,3551,59.5903
7.476223423,96.39,3587,59.8916
7.502483989,96.39,3553,59.607
7.528744554,96.39,3523,59.3549
7.555005119,96.39,3567,59.7244
7.581265685,96.39,3572,59.7662
7.60752625,96.39,3494,59.1101
7.633786815,96.39,3578,59.8164
7.660047381,96.39,3577,59.808
7.686307946,96.39,3582,59.8498
7.712568512,96.39,3617,60.1415
7.738829077,96.39,3679,60.6548
7.765089642,96.39,3612,60.0999
7.791350208,96.39,3664,60.531
7.817610773,96.39,3584,59.8665
7.843871338,96.39,3553,59.607
7.870131904,96.39,3620,60.1664
7.896392469,96.39,3635,60.291
7.922653034,96.39,3532,59.4306
7.9489136,96.39,3599,59.9917
7.975174165,96.39,3655,60.4566
8.00143473,96.39,3712,60.9262
8.027695296,96.39,3662,60.5145
8.053955861,96.39,3563,59.6909
8.080216426,96.39,3608,60.0666
8.106476992,96.39,3630,60.2495
8.132737557,96.39,3603,60.025
8.158998123,96.39,3658,60.4814
8.185258688,96.39,3587,59.8916
8.211519253,96.39,3551,59.5903
8.237779819,96.39,3561,59.6741
8.264040384,96.39,3529,59.4054
8.290300949,96.39,3686,60.7124
8.316561515,96.39,3606,60.05
8.34282208,96.39,3553,59.607
8.369082645,96.39,3549,59.5735
8.395343211,96.39,3540,59.4979
8.421603776,96.39,3488,59.0593
8.447864341,96.39,3648,60.3987
8.474124907,96.39,3577,59.808
8.500385472,96.39,3536,59.4643
8.526646038,96.39,3548,59.5651
8.552906603,96.39,3599,59.9917
8.579167168,96.39,3651,60.4235
8.605427734,96.39,3491,59.0847
8.631688299,96.39,3541,59.5063
8.657948864,96.39,3597,59.975
8.68420943,96.39,3639,60.3241
8.710469995,96.39,3564,59.6992
8.73673056,96.39,3564,59.6992
8.762991126,96.39,3638,60.3158
8.789251691,96.39,3537,59.4727
8.815512256,96.39,3587,59.8916
8.841772822,96.39,3404,58.3438
8.868033387,96.39,3479,58.983
8.894293952,96.39,3535,59.4559
8.920554518,96.39,3584,59.8665
8.946815083,96.39,3620,60.1664
8.973075649,96.39,3537,59.4727
8.999336214,96.39,3410,58.3952
9.025596779,96.39,3536,59.4643
9.051857345,96.39,3407,58.3695
9.07811791,96.39,3485,59.0339
9.104378475,96.39,3494,59.1101
9.130639041,96.39,3511,59.2537
9.156899606,96.39,3353,57.9051
9.183160171,96.39,3548,59.5651
9.209420737,96.39,3428,58.5491
9.235681302,96.39,3537,59.4727
9.261941867,96.39,3421,58.4893
9.288202433,96.39,3417,58.4551
9.314462998,96.39,3452,58.7537
9.340723564,96.39,3474,58.9406
9.366984129,96.39,3372,58.0689
9.393244694,96.39,3431,58.5747
9.41950526,96.39,3413,58.4209
9.445765825,96.39,3319,57.6108
9.47202639,96.39,3402,58.3267
9.498286956,96.39,3440,58.6515
9.524547521,96.39,3383,58.1636
9.550808086,96.39,3366,58.0172
9.577068652,96.39,3374,58.0861
9.603329217,96.39,3463,58.8473
9.629589782,96.39,3412,58.4123
9.655850348,96.39,3265,57.1402
9.682110913,96.39,3297,57.4195
9.708371478,96.39,3311,57.5413
9.734632044,96.39,3297,57.4195
9.760892609,96.39,3213,56.6833
9.787153175,96.39,3385,58.1808
9.81341374,96.39,3275,57.2276
9.839674305,96.39,3311,57.5413
9.865934871,96.39,3241,56.9298
9.892195436,96.39,3285,57.3149
9.918456001,96.39,3196,56.5332
9.944716567,96.39,3356,57.931
9.970977132,96.39,3332,57.7235
9.997237697,96.39,3261,57.1052
10.02349826,96.39,3300,57.4456
10.04975883,96.39,3267,57.1577
10.07601939,96.39,3258,57.0789
10.10227996,96.39,3260,57.0964
10.12854052,96.39,3295,57.4021
10.15480109,96.39,3213,56.6833
10.18106166,96.39,3202,56.5862
10.20732222,96.39,3167,56.2761
10.23358279,96.39,3327,57.6802
10.25984335,96.39,3078,55.4797
10.28610392,96.39,3333,57.7321
10.31236448,96.39,3123,55.8838
10.33862505,96.39,3242,56.9386
10.36488561,96.39,3208,56.6392
10.39114618,96.39,3101,55.6866
10.41740674,96.39,3273,57.2101
10.44366731,96.39,3358,57.9483
10.46992787,96.39,3266,57.1489
10.49618844,96.39,3162,56.2317
10.522449,96.39,3115,55.8122
10.54870957,96.39,3043,55.1634
10.57497014,96.39,3081,55.5068
10.6012307,96.39,3083,55.5248
10.62749127,96.39,3116,55.8211
10.65375183,96.39,3111,55.7763
10.6800124,96.39,3053,55.254
10.70627296,96.39,3100,55.6776
10.73253353,96.39,2973,54.5252
10.75879409,96.39,3003,54.7996
10.78505466,96.39,3085,55.5428
10.81131522,96.39,3047,55.1996
10.83757579,96.39,3067,55.3805
10.86383635,96.39,3024,54.9909
10.89009692,96.39,3056,55.2811
10.91635749,96.39,3102,55.6956
10.94261805,96.39,3069,55.3986
10.96887862,96.39,3082,55.5158
10.99513918,96.39,3003,54.7996
11.02139975,96.39,3038,55.1181
11.04766031,96.39,2957,54.3783
11.07392088,96.39,2960,54.4059
11.10018144,96.39,2859,53.4696
11.12644201,96.39,2905,53.8981
11.15270257,96.39,2950,54.3139
11.17896314,96.39,2941,54.231
11.2052237,96.39,2844,53.3292
11.23148427,96.39,3053,55.254
11.25774483,96.39,2783,52.7541
11.2840054,96.39,2862,53.4977
11.31026597,96.39,2962,54.4243
11.33652653,96.39,2817,53.0754
11.3627871,96.39,2855,53.4322
11.38904766,96.39,2884,53.7029
11.41530823,96.39,2859,53.4696
11.44156879,96.39,2763,52.5642
11.46782936,96.39,2853,53.4135
11.49408992,96.39,2875,53.619
11.52035049,96.39,2739,52.3355
11.54661105,96.39,2782,52.7447
11.57287162,96.39,2833,53.2259
11.59913218,96.39,2855,53.4322
11.62539275,96.39,2742,52.3641
11.65165332,96.39,2694,51.9038
11.67791388,96.39,2698,51.9423
11.70417445,96.39,2706,52.0192
11.73043501,96.39,2751,52.45
11.75669558,96.39,2823,53.1319
11.78295614,96.39,2878,53.647
11.80921671,96.39,2772,52.6498
11.83547727,96.39,2730,52.2494
11.86173784,96.39,2685,51.817
11.8879984,96.39,2744,52.3832
11.91425897,96.39,2718,52.1344
11.94051953,96.39,2861,53.4883
11.9667801,96.39,2779,52.7162
11.99304066,96.39,2670,51.672
12.01930123,96.39,2604,51.0294
12.0455618,96.39,2738,52.3259
12.07182236,96.39,2716,52.1153
12.09808293,96.39,2700,51.9615
12.12434349,96.39,2620,51.1859
12.15060406,96.39,2570,50.6952
12.17686462,96.39,2656,51.5364
12.20312519,96.39,2591,50.9019
12.22938575,96.39,2653,51.5073
12.25564632,96.39,2632,51.303
12.28190688,96.39,2687,51.8363
12.30816745,96.39,2597,50.9608
12.33442801,96.39,2569,50.6853
12.36068858,96.39,2596,50.951
12.38694915,96.39,2743,52.3737
12.41320971,96.39,2601,51
12.43947028,96.39,2569,50.6853
12.46573084,96.39,2618,51.1664
12.49199141,96.39,2647,51.449
12.51825197,96.39,2606,51.049
12.54451254,96.39,2616,51.1468
12.5707731,96.39,2636,51.342
12.59703367,96.39,2559,50.5866
12.62329423,96.39,2699,51.9519
12.6495548,96.39,2656,51.5364
12.67581536,96.39,2681,51.7784
12.70207593,96.39,2676,51.7301
12.72833649,96.39,2556,50.5569
12.75459706,96.39,2497,49.97
12.78085763,96.39,2493,49.93
12.80711819,96.39,2510,50.0999
12.83337876,96.39,2549,50.4876
12.85963932,96.39,2527,50.2693
12.88589989,96.39,2442,49.4166
12.91216045,96.39,2494,49.94
12.93842102,96.39,2510,50.0999
12.96468158,96.39,2574,50.7346
12.99094215,96.39,2444,49.4368
13.01720271,96.39,2579,50.7839
13.04346328,96.39,2466,49.6588
13.06972384,96.39,2540,50.3984
13.09598441,96.39,2482,49.8197
13.12224498,96.39,2508,50.0799
13.14850554,96.39,2483,49.8297
13.17476611,96.39,2533,50.3289
13.20102667,96.39,2499,49.99
13.22728724,96.39,2442,49.4166
13.2535478,96.39,2523,50.2295
13.27980837,96.39,2480,49.7996
13.30606893,96.39,2521,50.2096
13.3323295,96.39,2543,50.4282
13.35859006,96.39,2434,49.3356
13.38485063,96.39,2572,50.7149
13.41111119,96.39,2624,51.225
13.43737176,96.39,2808,52.9906
13.46363232,96.39,2879,53.6563
13.48989289,96.39,2901,53.8609
13.51615346,96.39,2879,53.6563
13.54241402,96.39,2645,51.4296
13.56867459,96.39,2517,50.1697
13.59493515,96.39,2454,49.5379
13.62119572,96.39,2393,48.9183
13.64745628,96.39,2412,49.1121
13.67371685,96.39,2461,49.6085
13.69997741,96.39,2419,49.1833
13.72623798,96.39,2429,49.2849
13.75249854,96.39,2586,50.8527
13.77875911,96.39,2763,52.5642
13.80501967,96.39,2791,52.8299
13.83128024,96.39,2521,50.2096
13.85754081,96.39,2581,50.8035
13.88380137,96.39,2645,51.4296
13.91006194,96.39,2549,50.4876
13.9363225,96.39,2373,48.7134
13.96258307,96.39,2422,49.2138
13.98884363,96.39,2330,48.2701
14.0151042,96.39,2404,49.0306
14.04136476,96.39,2375,48.734
14.06762533,96.39,2372,48.7032
14.09388589,96.39,2502,50.02
14.12014646,96.39,2520,50.1996
14.14640702,96.39,2613,51.1175
14.17266759,96.39,2862,53.4977
14.19892815,96.39,2935,54.1756
14.22518872,96.39,3157,56.1872
14.25144929,96.39,3519,59.3212
14.27770985,96.39,3450,58.7367
14.30397042,96.39,3077,55.4707
14.33023098,96.39,2635,51.3323
14.35649155,96.39,2429,49.2849
14.38275211,96.39,2348,48.4562
14.40901268,96.39,2390,48.8876
14.43527324,96.39,2310,48.0625
14.46153381,96.39,2281,47.7598
14.48779437,96.39,2416,49.1528
14.51405494,96.39,2508,50.0799
14.5403155,96.39,2339,48.3632
14.56657607,96.39,2328,48.2494
14.59283663,96.39,2271,47.655
14.6190972,96.39,2225,47.1699
14.64535777,96.39,2164,46.5188
14.67161833,96.39,2250,47.4342
14.6978789,96.39,2218,47.0956
14.72413946,96.39,2272,47.6655
14.75040003,96.39,2250,47.4342
14.77666059,96.39,2326,48.2286
14.80292116,96.39,2312,48.0833
14.82918172,96.39,2245,47.3814
14.85544229,96.39,2288,47.833
14.88170285,96.39,2350,48.4768
14.90796342,96.39,2224,47.1593
14.93422398,96.39,2378,48.7647
14.96048455,96.39,2176,46.6476
14.98674512,96.39,2353,48.5077
15.01300568,96.39,2328,48.2494
15.03926625,96.39,2352,48.4974
15.06552681,96.39,2319,48.156
15.09178738,96.39,2463,49.6286
15.11804794,96.39,2534,50.3389
15.14430851,96.39,2533,50.3289
15.17056907,96.39,2640,51.3809
15.19682964,96.39,2846,53.3479
15.2230902,96.39,2936,54.1849
15.24935077,96.39,3095,55.6327
15.27561133,96.39,3201,56.5774
15.3018719,96.39,2937,54.1941
15.32813246,96.39,2649,51.4684
15.35439303,96.39,2596,50.951
15.3806536,96.39,2542,50.4183
15.40691416,96.39,2513,50.1298
15.43317473,96.39,2320,48.1664
15.45943529,96.39,2225,47.1699
15.48569586,96.39,2260,47.5395
15.51195642,96.39,2332,48.2908
15.53821699,96.39,2163,46.5081
15.56447755,96.39,2275,47.697
15.59073812,96.39,2207,46.9787
15.61699868,96.39,2286,47.8121
15.64325925,96.39,2248,47.4131
15.66951981,96.39,2215,47.0638
15.69578038,96.39,2221,47.1275
15.72204095,96.39,2215,47.0638
15.74830151,96.39,2284,47.7912
15.77456208,96.39,2176,46.6476
15.80082264,96.39,2142,46.2817
15.82708321,96.39,2211,47.0213
15.85334377,96.39,2117,46.0109
15.87960434,96.39,2238,47.3075
15.9058649,96.39,2231,47.2335
15.93212547,96.39,2151,46.3789
15.95838603,96.39,2137,46.2277
15.9846466,96.39,2237,47.2969
16.01090716,96.39,2207,46.9787
16.03716773,96.39,2247,47.4025
16.06342829,96.39,2274,47.6865
16.08968886,96.39,2210,47.0106
16.11594943,96.39,2202,46.9255
16.14220999,96.39,2278,47.7284
16.16847056,96.39,2167,46.551
16.19473112,96.39,2264,47.5815
16.22099169,96.39,2212,47.0319
16.24725225,96.39,2205,46.9574
16.27351282,96.39,2309,48.0521
16.29977338,96.39,2173,46.6154
16.32603395,96.39,2156,46.4327
16.35229451,96.39,2248,47.4131
16.37855508,96.39,2310,48.0625
16.40481564,96.39,2135,46.2061
16.43107621,96.39,2266,47.6025
16.45733678,96.39,2256,47.4974
16.48359734,96.39,2241,47.3392
16.50985791,96.39,2229,47.2123
16.53611847,96.39,2185,46.744
16.56237904,96.39,2193,46.8295
16.5886396,96.39,2164,46.5188
16.61490017,96.39,2098,45.8039
16.64116073,96.39,2266,47.6025
16.6674213,96.39,2249,47.4236
16.69368186,96.39,2173,46.6154
16.71994243,96.39,2188,46.7761
16.74620299,96.39,2122,46.0652
16.77246356,96.39,2150,46.3681
16.79872412,96.39,2250,47.4342
16.82498469,96.39,2136,46.2169
16.85124526,96.39,2081,45.618
16.87750582,96.39,2219,47.1063
16.90376639,96.39,2170,46.5833
16.93002695,96.39,2252,47.4552
16.95628752,96.39,2565,50.6458
16.98254808,96.39,2297,47.927
17.00880865,96.39,2380,48.7852
17.03506921,96.39,2178,46.669
17.06132978,96.39,2071,45.5082
17.08759034,96.39,2181,46.7012
17.11385091,96.39,2083,45.6399
17.14011147,96.39,2153,46.4004
17.16637204,96.39,2102,45.8476
17.19263261,96.39,2148,46.3465
17.21889317,96.39,2085,45.6618
17.24515374,96.39,2158,46.4543
17.2714143,96.39,2174,46.6262
17.29767487,96.39,2154,46.4112
17.32393543,96.39,2248,47.4131
17.350196,96.39,2340,48.3735
17.37645656,96.39,2413,49.1223
17.40271713,96.39,2249,47.4236
17.42897769,96.39,2249,47.4236
17.45523826,96.39,2149,46.3573
17.48149882,96.39,2141,46.2709
17.50775939,96.39,2123,46.076
17.53401995,96.39,2020,44.9444
17.56028052,96.39,2114,45.9783
17.58654109,96.39,2007,44.7996
17.61280165,96.39,2009,44.8219
17.63906222,96.39,2079,45.5961
17.66532278,96.39,1994,44.6542
17.69158335,96.39,1939,44.0341
17.71784391,96.39,2058,45.3652
17.74410448,96.39,2078,45.5851
17.77036504,96.39,2076,45.5631
17.79662561,96.39,2074,45.5412
17.82288617,96.39,2042,45.1885
17.84914674,96.39,1973,44.4185
17.8754073,96.39,2081,45.618
17.90166787,96.39,2033,45.0888
17.92792843,96.39,2056,45.3431
17.954189,96.39,2001,44.7325
17.98044957,96.39,1980,44.4972
18.00671013,96.39,2085,45.6618
18.0329707,96.39,2094,45.7602
18.05923126,96.39,2092,45.7384
18.08549183,96.39,2109,45.9239
18.11175239,96.39,2186,46.7547
18.13801296,96.39,2139,46.2493
18.16427352,96.39,2056,45.3431
18.19053409,96.39,2071,45.5082
18.21679465,96.39,2193,46.8295
18.24305522,96.39,2084,45.6508
18.26931578,96.39,2064,45.4313
18.29557635,96.39,2227,47.1911
18.32183692,96.39,2103,45.8585
18.34809748,96.39,2098,45.8039
18.37435805,96.39,2074,45.5412
18.40061861,96.39,2076,45.5631
18.42687918,96.39,2085,45.6618
18.45313974,96.39,2356,48.5386
18.47940031,96.39,2149,46.3573
18.50566087,96.39,2155,46.422
18.53192144,96.39,2061,45.3982
18.558182,96.39,2066,45.4533
18.58444257,96.39,2041,45.1774
18.61070313,96.39,2013,44.8665
18.6369637,96.39,1993,44.643
18.66322426,96.39,2044,45.2106
18.68948483,96.39,2042,45.1885
18.7157454,96.39,2018,44.9222
18.74200596,96.39,2034,45.0999
18.76826653,96.39,2013,44.8665
18.79452709,96.39,2103,45.8585
18.82078766,96.39,2029,45.0444
18.84704822,96.39,2103,45.8585
18.87330879,96.39,2134,46.1952
18.89956935,96.39,2159,46.465
18.92582992,96.39,2083,45.6399
18.95209048,96.39,2119,46.0326
18.97835105,96.39,2242,47.3498
19.00461161,96.39,2099,45.8148
19.03087218,96.39,2088,45.6946
19.05713275,96.39,2203,46.9361
19.08339331,96.39,2090,45.7165
19.10965388,96.39,2167,46.551
19.13591444,96.39,2101,45.8367
19.16217501,96.39,2172,46.6047
19.18843557,96.39,2118,46.0217
19.21469614,96.39,2165,46.5296
19.2409567,96.39,2087,45.6837
19.26721727,96.39,2159,46.465
19.29347783,96.39,2159,46.465
19.3197384,96.39,2155,46.422
19.34599896,96.39,2344,48.4149
19.37225953,96.39,2394,48.9285
19.39852009,96.39,2469,49.689
19.42478066,96.39,2531,50.309
19.45104123,96.39,2570,50.6952
19.47730179,96.39,2472,49.7192
19.50356236,96.39,2341,48.3839
19.52982292,96.39,2200,46.9042
19.55608349,96.39,2174,46.6262
19.58234405,96.39,2124,46.0869
19.60860462,96.39,2271,47.655
19.63486518,96.39,2297,47.927
19.66112575,96.39,2338,48.3529
19.68738631,96.39,2468,49.679
19.71364688,96.39,2409,49.0816
19.73990744,96.39,2533,50.3289
19.76616801,96.39,2832,53.2165
19.79242858,96.39,2879,53.6563
19.81868914,96.39,2813,53.0377
19.84494971,96.39,2772,52.6498
19.87121027,96.39,2724,52.192
19.89747084,96.39,2850,53.3854
19.9237314,96.39,3230,56.8331
19.94999197,96.39,3608,60.0666
19.97625253,96.39,3611,60.0916
20.0025131,96.39,3324,57.6541
20.02877366,96.39,2849,53.376
20.05503423,96.39,2469,49.689
20.08129479,96.39,2205,46.9574
20.10755536,96.39,2273,47.676
20.13381592,96.39,2183,46.7226
20.16007649,96.39,2234,47.2652
20.18633706,96.39,2236,47.2864
20.21259762,96.39,2190,46.7974
20.23885819,96.39,2300,47.9583
20.26511875,96.39,2354,48.518
20.29137932,96.39,2318,48.1456
20.31763988,96.39,2310,48.0625
20.34390045,96.39,2407,49.0612
20.37016101,96.39,2523,50.2295
20.39642158,96.39,2528,50.2792
20.42268214,96.39,2419,49.1833
20.44894271,96.39,2617,51.1566
20.47520327,96.39,2645,51.4296
20.50146384,96.39,2880,53.6656
20.52772441,96.39,2952,54.3323
20.55398497,96.39,3433,58.5918
20.58024554,96.39,3810,61.7252
20.6065061,96.39,4217,64.9384
20.63276667,96.39,4901,70.0071
20.65902723,96.39,5633,75.0533
20.6852878,96.39,6350,79.6869
20.71154836,96.39,6324,79.5236
20.73780893,96.39,5373,73.3008
20.76406949,96.39,4359,66.0227
20.79033006,96.39,3389,58.2151
20.81659062,96.39,2729,52.2398
20.84285119,96.39,2494,49.94
20.86911175,96.39,2426,49.2544
20.89537232,96.39,2263,47.571
20.92163289,96.39,2246,47.392
20.94789345,96.39,2301,47.9687
20.97415402,96.39,2203,46.9361
21.00041458,96.39,2288,47.833
21.02667515,96.39,2188,46.7761
21.05293571,96.39,2234,47.2652
21.07919628,96.39,2214,47.0532
21.10545684,96.39,2191,46.8081
21.13171741,96.39,2197,46.8722
21.15797797,96.39,2114,45.9783
21.18423854,96.39,2183,46.7226
21.2104991,96.39,2158,46.4543
21.23675967,96.39,2239,47.3181
21.26302024,96.39,2093,45.7493
21.2892808,96.39,2154,46.4112
21.31554137,96.39,2142,46.2817
21.34180193,96.39,2220,47.1169
21.3680625,96.39,2275,47.697
21.39432306,96.39,2174,46.6262
21.42058363,96.39,2095,45.7712
21.44684419,96.39,2092,45.7384
21.47310476,96.39,2145,46.3141
21.49936532,96.39,2072,45.5192
21.52562589,96.39,2089,45.7056
21.55188645,96.39,2048,45.2548
21.57814702,96.39,2135,46.2061
21.60440758,96.39,2135,46.2061
21.63066815,96.39,2109,45.9239
21.65692872,96.39,2094,45.7602
21.68318928,96.39,2116,46
21.70944985,96.39,2184,46.7333
21.73571041,96.39,2207,46.9787
21.76197098,96.39,2146,46.3249
21.78823154,96.39,2116,46
21.81449211,96.39,2159,46.465
21.84075267,96.39,2187,46.7654
21.86701324,96.39,2158,46.4543
21.8932738,96.39,2123,46.076
21.91953437,96.39,2203,46.9361
21.94579493,96.39,2099,45.8148
21.9720555,96.39,2195,46.8508
21.99831606,96.39,2228,47.2017
22.02457663,96.39,2169,46.5725
22.0508372,96.39,2184,46.7333
22.07709776,96.39,2253,47.4658
22.10335833,96.39,2207,46.9787
22.12961889,96.39,2282,47.7703
22.15587946,96.39,2225,47.1699
22.18214002,96.39,2302,47.9792
22.20840059,96.39,2250,47.4342
22.23466115,96.39,2219,47.1063
22.26092172,96.39,2170,46.5833
22.28718228,96.39,2259,47.5289
22.31344285,96.39,2276,47.7074
22.33970341,96.39,2365,48.6313
22.36596398,96.39,2325,48.2183
22.39222455,96.39,2372,48.7032
22.41848511,96.39,2342,48.3942
22.44474568,96.39,2328,48.2494
22.47100624,96.39,2334,48.3115
22.49726681,96.39,2206,46.9681
22.52352737,96.39,2310,48.0625
22.54978794,96.39,2296,47.9166
22.5760485,96.39,2312,48.0833
22.60230907,96.39,2350,48.4768
22.62856963,96.39,2175,46.6369
22.6548302,96.39,2297,47.927
22.68109076,96.39,2226,47.1805
22.70735133,96.39,2230,47.2229
22.73361189,96.39,2214,47.0532
22.75987246,96.39,2285,47.8017
22.78613303,96.39,2196,46.8615
22.81239359,96.39,2282,47.7703
22.83865416,96.39,2361,48.5901
22.86491472,96.39,2371,48.6929
22.89117529,96.39,2412,49.1121
22.91743585,96.39,2385,48.8365
22.94369642,96.39,2394,48.9285
22.96995698,96.39,2329,48.2597
22.99621755,96.39,2380,48.7852
23.02247811,96.39,2327,48.239
23.04873868,96.39,2440,49.3964
23.07499924,96.39,2413,49.1223
23.10125981,96.39,2422,49.2138
23.12752038,96.39,2543,50.4282
23.15378094,96.39,2573,50.7247
23.18004151,96.39,2603,51.0196
23.20630207,96.39,2602,51.0098
23.23256264,96.39,2499,49.99
23.2588232,96.39,2458,49.5782
23.28508377,96.39,2438,49.3761
23.31134433,96.39,2359,48.5695
23.3376049,96.39,2456,49.558
23.36386546,96.39,2443,49.4267
23.39012603,96.39,2439,49.3862
23.41638659,96.39,2265,47.592
23.44264716,96.39,2347,48.4458
23.46890772,96.39,2476,49.7594
23.49516829,96.39,2390,48.8876
23.52142886,96.39,2385,48.8365
23.54768942,96.39,2320,48.1664
23.57394999,96.39,2410,49.0918
23.60021055,96.39,2413,49.1223
23.62647112,96.39,2336,48.3322
23.65273168,96.39,2332,48.2908
23.67899225,96.39,2327,48.239
23.70525281,96.39,2384,48.8262
23.73151338,96.39,2326,48.2286
23.75777394,96.39,2384,48.8262
23.78403451,96.39,2398,48.9694
23.81029507,96.39,2391,48.8979
23.83655564,96.39,2339,48.3632
23.86281621,96.39,2453,49.5278
23.88907677,96.39,2425,49.2443
23.91533734,96.39,2400,48.9898
23.9415979,96.39,2376,48.7442
23.96785847,96.39,2386,48.8467
23.99411903,96.39,2427,49.2646
24.0203796,96.39,2449,49.4874
24.04664016,96.39,2449,49.4874
24.07290073,96.39,2426,49.2544
24.09916129,96.39,2557,50.5668
24.12542186,96.39,2576,50.7543
24.15168242,96.39,2730,52.2494
24.17794299,96.39,2748,52.4214
24.20420355,96.39,2753,52.469
24.23046412,96.39,2577,50.7642
24.25672469,96.39,2540,50.3984
24.28298525,96.39,2395,48.9387
24.30924582,96.39,2351,48.4871
24.33550638,96.39,2404,49.0306
24.36176695,96.39,2394,48.9285
24.38802751,96.39,2354,48.518
24.41428808,96.39,2379,48.775
24.44054864,96.39,2304,48
24.46680921,96.39,2282,47.7703
24.49306977,96.39,2335,48.3218
24.51933034,96.39,2226,47.1805
24.5455909,96.39,2273,47.676
24.57185147,96.39,2385,48.8365
24.59811204,96.39,2315,48.1144
24.6243726,96.39,2357,48.5489
24.65063317,96.39,2284,47.7912
24.67689373,96.39,2283,47.7807
24.7031543,96.39,2308,48.0416
24.72941486,96.39,2227,47.1911
24.75567543,96.39,2273,47.676
24.78193599,96.39,2285,47.8017
24.80819656,96.39,2231,47.2335
24.83445712,96.39,2324,48.2079
24.86071769,96.39,2205,46.9574
24.88697825,96.39,2322,48.1871
24.91323882,96.39,2304,48
24.93949938,96.39,2239,47.3181
24.96575995,96.39,2223,47.1487
24.99202052,96.39,2330,48.2701
25.01828108,96.39,2451,49.5076
25.04454165,96.39,2290,47.8539
25.07080221,96.39,2243,47.3603
25.09706278,96.39,2231,47.2335
25.12332334,96.39,2300,47.9583
25.14958391,96.39,2250,47.4342
25.17584447,96.39,2259,47.5289
25.20210504,96.39,2236,47.2864
25.2283656,96.39,2265,47.592
25.25462617,96.39,2317,48.1352
25.28088673,96.39,2298,47.9375
25.3071473,96.39,2387,48.8569
25.33340786,96.39,2567,50.6656
25.35966843,96.39,2591,50.9019
25.385929,96.39,2957,54.3783
25.41218956,96.39,3125,55.9017
25.43845013,96.39,3140,56.0357
25.46471069,96.39,2942,54.2402
25.49097126,96.39,2804,52.9528
25.51723182,96.39,2580,50.7937
25.54349239,96.39,2482,49.8197
25.56975295,96.39,2258,47.5184
25.59601352,96.39,2209,47
25.62227408,96.39,2180,46.6905
25.64853465,96.39,2218,47.0956
25.67479521,96.39,2290,47.8539
25.70105578,96.39,2210,47.0106
25.72731635,96.39,2244,47.3709
25.75357691,96.39,2251,47.4447
25.77983748,96.39,2187,46.7654
25.80609804,96.39,2239,47.3181
25.83235861,96.39,2146,46.3249
25.85861917,96.39,2286,47.8121
25.88487974,96.39,2258,47.5184
25.9111403,96.39,2219,47.1063
25.93740087,96.39,2339,48.3632
25.96366143,96.39,2318,48.1456
25.989922,96.39,2331,48.2804
26.01618256,96.39,2293,47.8853
26.04244313,96.39,2295,47.9062
26.06870369,96.39,2242,47.3498
26.09496426,96.39,2251,47.4447
26.12122483,96.39,2200,46.9042
26.14748539,96.39,2166,46.5403
26.17374596,96.39,2231,47.2335
26.20000652,96.39,2157,46.4435
26.22626709,96.39,2158,46.4543
26.25252765,96.39,2144,46.3033
26.27878822,96.39,2183,46.7226
26.30504878,96.39,2182,46.7119
26.33130935,96.39,2183,46.7226
26.35756991,96.39,2233,47.2546
26.38383048,96.39,2177,46.6583
26.41009104,96.39,2199,46.8935
26.43635161,96.39,2254,47.4763
26.46261218,96.39,2236,47.2864
26.48887274,96.39,2253,47.4658
26.51513331,96.39,2129,46.1411
26.54139387,96.39,2221,47.1275
26.56765444,96.39,2183,46.7226
26.593915,96.39,2151,46.3789
26.62017557,96.39,2115,45.9891
26.64643613,96.39,2206,46.9681
26.6726967,96.39,2306,48.0208
26.69895726,96.39,2194,46.8402
26.72521783,96.39,2195,46.8508
26.75147839,96.39,2166,46.5403
26.77773896,96.39,2101,45.8367
26.80399952,96.39,2080,45.607
26.83026009,96.39,2153,46.4004
26.85652066,96.39,2150,46.3681
26.88278122,96.39,2133,46.1844
26.90904179,96.39,2211,47.0213
26.93530235,96.39,2229,47.2123
26.96156292,96.39,2215,47.0638
26.98782348,96.39,2224,47.1593
27.01408405,96.39,2173,46.6154
27.04034461,96.39,2318,48.1456
27.06660518,96.39,2452,49.5177
27.09286574,96.39,2619,51.1762
27.11912631,96.39,2793,52.8488
27.14538687,96.39,2961,54.4151
27.17164744,96.39,3103,55.7046
27.19790801,96.39,3081,55.5068
27.22416857,96.39,2756,52.4976
27.25042914,96.39,2673,51.7011
27.2766897,96.39,2477,49.7695
27.30295027,96.39,2361,48.5901
27.32921083,96.39,2238,47.3075
27.3554714,96.39,2112,45.9565
27.38173196,96.39,2157,46.4435
27.40799253,96.39,2124,46.0869
27.43425309,96.39,2119,46.0326
27.46051366,96.39,2150,46.3681
27.48677422,96.39,2039,45.1553
27.51303479,96.39,2057,45.3542
27.53929535,96.39,2135,46.2061
27.56555592,96.39,2106,45.8912
27.59181649,96.39,2092,45.7384
27.61807705,96.39,2095,45.7712
27.64433762,96.39,2140,46.2601
27.67059818,96.39,2160,46.4758
27.69685875,96.39,2167,46.551
27.72311931,96.39,2038,45.1442
27.74937988,96.39,2086,45.6727
27.77564044,96.39,2051,45.288
27.80190101,96.39,2196,46.8615
27.82816157,96.39,2345,48.4252
27.85442214,96.39,2105,45.8803
27.8806827,96.39,2194,46.8402
27.90694327,96.39,2208,46.9894
27.93320384,96.39,2081,45.618
27.9594644,96.39,2138,46.2385
27.98572497,96.39,2150,46.3681
28.01198553,96.39,2175,46.6369
28.0382461,96.39,2092,45.7384
28.06450666,96.39,2168,46.5618
28.09076723,96.39,2098,45.8039
28.11702779,96.39,2248,47.4131
28.14328836,96.39,2101,45.8367
28.16954892,96.39,2234,47.2652
28.19580949,96.39,2071,45.5082
28.22207005,96.39,2176,46.6476
28.24833062,96.39,2179,46.6798
28.27459118,96.39,2142,46.2817
28.30085175,96.39,2185,46.744
28.32711232,96.39,2124,46.0869
28.35337288,96.39,2137,46.2277
28.37963345,96.39,2024,44.9889
28.40589401,96.39,2076,45.5631
28.43215458,96.39,2056,45.3431
28.45841514,96.39,2020,44.9444
28.48467571,96.39,2072,45.5192
28.51093627,96.39,2058,45.3652
28.53719684,96.39,2130,46.1519
28.5634574,96.39,1960,44.2719
28.58971797,96.39,2045,45.2217
28.61597853,96.39,2088,45.6946
28.6422391,96.39,2093,45.7493
28.66849967,96.39,2123,46.076
28.69476023,96.39,2127,46.1194
28.7210208,96.39,2273,47.676
28.74728136,96.39,2325,48.2183
28.77354193,96.39,2215,47.0638
28.79980249,96.39,2221,47.1275
28.82606306,96.39,2147,46.3357
28.85232362,96.39,2109,45.9239
28.87858419,96.39,2092,45.7384
28.90484475,96.39,2047,45.2438
28.93110532,96.39,2040,45.1664
28.95736588,96.39,2155,46.422
28.98362645,96.39,2128,46.1303
29.00988701,96.39,2228,47.2017
29.03614758,96.39,2295,47.9062
29.06240815,96.39,2342,48.3942
29.08866871,96.39,2341,48.3839
29.11492928,96.39,2395,48.9387
29.14118984,96.39,2306,48.0208
29.16745041,96.39,2189,46.7868
29.19371097,96.39,2262,47.5605
29.21997154,96.39,2113,45.9674
29.2462321,96.39,2157,46.4435
29.27249267,96.39,2048,45.2548
29.29875323,96.39,1933,43.9659
29.3250138,96.39,2034,45.0999
29.35127436,96.39,2011,44.8442
29.37753493,96.39,2130,46.1519
29.40379549,96.39,1986,44.5646
29.43005606,96.39,1962,44.2945
29.45631663,96.39,2154,46.4112
29.48257719,96.39,1958,44.2493
29.50883776,96.39,1948,44.1362
29.53509832,96.39,1989,44.5982
29.56135889,96.39,1972,44.4072
29.58761945,96.39,1925,43.8748
29.61388002,96.39,2056,45.3431
29.64014058,96.39,2022,44.9667
29.66640115,96.39,1960,44.2719
29.69266171,96.39,1914,43.7493
29.71892228,96.39,1920,43.8178
29.74518284,96.39,1941,44.0568
29.77144341,96.39,1919,43.8064
29.79770398,96.39,1921,43.8292
29.82396454,96.39,1959,44.2606
29.85022511,96.39,1987,44.5758
29.87648567,96.39,1998,44.699
29.90274624,96.39,1900,43.589
29.9290068,96.39,1870,43.2435
29.95526737,96.39,1955,44.2154
29.98152793,96.39,1940,44.0454
30.0077885,96.39,1879,43.3474
30.03404906,96.39,1895,43.5316
30.06030963,96.39,1892,43.4971
30.08657019,96.39,1852,43.0349
30.11283076,96.39,1909,43.6921
30.13909132,96.39,1843,42.9302
30.16535189,96.39,1856,43.0813
30.19161246,96.39,1897,43.5546
30.21787302,96.39,1840,42.8952
30.24413359,96.39,1836,42.8486
30.27039415,96.39,1967,44.3509
30.29665472,96.39,1820,42.6615
30.32291528,96.39,2024,44.9889
30.34917585,96.39,1880,43.359
30.37543641,96.39,1950,44.1588
30.40169698,96.39,1834,42.8252
30.42795754,96.39,1962,44.2945
30.45421811,96.39,1911,43.715
30.48047867,96.39,1847,42.9767
30.50673924,96.39,1897,43.5546
30.53299981,96.39,1943,44.0795
30.55926037,96.39,1997,44.6878
30.58552094,96.39,2093,45.7493
30.6117815,96.39,2181,46.7012
30.63804207,96.39,2272,47.6655
30.66430263,96.39,2287,47.8226
30.6905632,96.39,2323,48.1975
30.71682376,96.39,2256,47.4974
30.74308433,96.39,2205,46.9574
30.76934489,96.39,2150,46.3681
30.79560546,96.39,2130,46.1519
30.82186602,96.39,2143,46.2925
30.84812659,96.39,2140,46.2601
30.87438715,96.39,1922,43.8406
30.90064772,96.39,2020,44.9444
30.92690829,96.39,1943,44.0795
30.95316885,96.39,1902,43.6119
30.97942942,96.39,1916,43.7721
31.00568998,96.39,1971,44.3959
31.03195055,96.39,2019,44.9333
31.05821111,96.39,2079,45.5961
31.08447168,96.39,2032,45.0777
31.11073224,96.39,2282,47.7703
31.13699281,96.39,2420,49.1935
31.16325337,96.39,2514,50.1398
31.18951394,96.39,2829,53.1883
31.2157745,96.39,2704,52
31.24203507,96.39,2536,50.3587
31.26829564,96.39,2430,49.295
31.2945562,96.39,2395,48.9387
31.32081677,96.39,2104,45.8694
31.34707733,96.39,2025,45
31.3733379,96.39,2019,44.9333
31.39959846,96.39,2066,45.4533
31.42585903,96.39,2021,44.9555
31.45211959,96.39,2048,45.2548
31.47838016,96.39,2207,46.9787
31.50464072,96.39,2193,46.8295
31.53090129,96.39,2286,47.8121
31.55716185,96.39,2183,46.7226
31.58342242,96.39,2232,47.244
31.60968298,96.39,2222,47.1381
31.63594355,96.39,2057,45.3542
31.66220412,96.39,2104,45.8694
31.68846468,96.39,2076,45.5631
31.71472525,96.39,1976,44.4522
31.74098581,96.39,1987,44.5758
31.76724638,96.39,2165,46.5296
31.79350694,96.39,2143,46.2925
31.81976751,96.39,2084,45.6508
31.84602807,96.39,2392,48.9081
31.87228864,96.39,2404,49.0306
31.8985492,96.39,2543,50.4282
31.92480977,96.39,2763,52.5642
31.95107033,96.39,3168,56.285
31.9773309,96.39,3721,61
32.00359147,96.39,4387,66.2344
32.02985203,96.39,4835,69.5342
32.0561126,96.39,5088,71.3302
32.08237316,96.39,4705,68.593
32.10863373,96.39,4207,64.8614
32.13489429,96.39,3657,60.4731
32.16115486,96.39,3189,56.4712
32.18741542,96.39,2627,51.2543
32.21367599,96.39,2254,47.4763
32.23993655,96.39,2032,45.0777
32.26619712,96.39,1899,43.5775
32.29245768,96.39,1784,42.2374
32.31871825,96.39,1857,43.0929
32.34497881,96.39,1819,42.6497
32.37123938,96.39,1734,41.6413
32.39749995,96.39,1714,41.4005
32.42376051,96.39,1666,40.8167
32.45002108,96.39,1654,40.6694
32.47628164,96.39,1748,41.8091
32.50254221,96.39,1702,41.2553
32.52880277,96.39,1728,41.5692
32.55506334,96.39,1741,41.7253
32.5813239,96.39,1769,42.0595
32.60758447,96.39,1745,41.7732
32.63384503,96.39,1787,42.2729
32.6601056,96.39,1772,42.0951
32.68636616,96.39,1806,42.4971
32.71262673,96.39,1747,41.7971
32.7388873,96.39,1839,42.8836
32.76514786,96.39,1738,41.6893
32.79140843,96.39,1789,42.2966
32.81766899,96.39,1794,42.3556
32.84392956,96.39,1738,41.6893
32.87019012,96.39,1794,42.3556
32.89645069,96.39,1819,42.6497
32.92271125,96.39,1941,44.0568
32.94897182,96.39,1978,44.4747
32.97523238,96.39,2007,44.7996
33.00149295,96.39,2308,48.0416
33.02775351,96.39,2265,47.592
33.05401408,96.39,1986,44.5646
33.08027464,96.39,1985,44.5533
33.10653521,96.39,2037,45.1331
33.13279578,96.39,1898,43.566
33.15905634,96.39,1843,42.9302
33.18531691,96.39,1880,43.359
33.21157747,96.39,1774,42.1189
33.23783804,96.39,1750,41.833
33.2640986,96.39,1762,41.9762
33.29035917,96.39,1795,42.3674
33.31661973,96.39,1771,42.0833
33.3428803,96.39,1729,41.5812
33.36914086,96.39,1799,42.4146
33.39540143,96.39,2144,46.3033
33.42166199,96.39,3218,56.7274
33.44792256,96.39,2743,52.3737
33.47418312,96.39,2184,46.7333
33.50044369,96.39,2403,49.0204
33.52670426,96.39,2345,48.4252
33.55296482,96.39,1881,43.3705
33.57922539,96.39,1816,42.6146
33.60548595,96.39,1646,40.5709
33.63174652,96.39,1707,41.3159
33.65800708,96.39,1694,41.1582
33.68426765,96.39,1741,41.7253
33.71052821,96.39,1714,41.4005
33.73678878,96.39,1764,42
33.76304934,96.39,1748,41.8091
33.78930991,96.39,1915,43.7607
33.81557047,96.39,2010,44.833
33.84183104,96.39,2115,45.9891
33.86809161,96.39,2440,49.3964
33.89435217,96.39,2529,50.2892
33.92061274,96.39,2767,52.6023
33.9468733,96.39,2947,54.2863
33.97313387,96.39,2843,53.3198
33.99939443,96.39,2840,53.2917
34.025655,96.39,2564,50.636
34.05191556,96.39,2534,50.3389
34.07817613,96.39,2332,48.2908
34.10443669,96.39,2254,47.4763
34.13069726,96.39,2128,46.1303
34.15695782,96.39,1998,44.699
34.18321839,96.39,1951,44.1701
34.20947895,96.39,1953,44.1928
34.23573952,96.39,1972,44.4072
34.26200009,96.39,1979,44.486
34.28826065,96.39,2029,45.0444
34.31452122,96.39,2221,47.1275
34.34078178,96.39,2096,45.7821
34.36704235,96.39,2108,45.913
34.39330291,96.39,2062,45.4093
34.41956348,96.39,2197,46.8722
34.44582404,96.39,2154,46.4112
34.47208461,96.39,2181,46.7012
34.49834517,96.39,2114,45.9783
34.52460574,96.39,2129,46.1411
34.5508663,96.39,2170,46.5833
34.57712687,96.39,2067,45.4643
34.60338744,96.39,2116,46
34.629648,96.39,2043,45.1996
34.65590857,96.39,1986,44.5646
34.68216913,96.39,2032,45.0777
34.7084297,96.39,1936,44
34.73469026,96.39,2045,45.2217
34.76095083,96.39,2046,45.2327
34.78721139,96.39,2125,46.0977
34.81347196,96.39,2247,47.4025
34.83973252,96.39,2526,50.2593
34.86599309,96.39,2708,52.0384
34.89225365,96.39,2771,52.6403
34.91851422,96.39,2959,54.3967
34.94477478,96.39,2915,53.9907
34.97103535,96.39,2688,51.8459
34.99729592,96.39,2551,50.5074
35.02355648,96.39,2393,48.9183
35.04981705,96.39,2201,46.9148
35.07607761,96.39,2085,45.6618
35.10233818,96.39,1980,44.4972
35.12859874,96.39,2005,44.7772
35.15485931,96.39,2168,46.5618
35.18111987,96.39,2630,51.2835
35.20738044,96.39,2797,52.8867
35.233641,96.39,2193,46.8295
35.25990157,96.39,2125,46.0977
35.28616213,96.39,2329,48.2597
35.3124227,96.39,2177,46.6583
35.33868327,96.39,1811,42.5558
35.36494383,96.39,1704,41.2795
35.3912044,96.39,1723,41.509
35.41746496,96.39,1660,40.7431
35.44372553,96.39,1762,41.9762
35.46998609,96.39,1738,41.6893
35.49624666,96.39,1698,41.2068
35.52250722,96.39,1722,41.497
35.54876779,96.39,1688,41.0853
35.57502835,96.39,1789,42.2966
35.60128892,96.39,1765,42.0119
35.62754948,96.39,1666,40.8167
35.65381005,96.39,1783,42.2256
35.68007061,96.39,1712,41.3763
35.70633118,96.39,1753,41.8688
35.73259175,96.39,1699,41.2189
35.75885231,96.39,1665,40.8044
35.78511288,96.39,1646,40.5709
35.81137344,96.39,1647,40.5832
35.83763401,96.39,1659,40.7308
35.86389457,96.39,1710,41.3521
35.89015514,96.39,1692,41.1339
35.9164157,96.39,1673,40.9023
35.94267627,96.39,1580,39.7492
35.96893683,96.39,1593,39.9124
35.9951974,96.39,1570,39.6232
36.02145796,96.39,1553,39.4081
36.04771853,96.39,1587,39.8372
36.0739791,96.39,1536,39.1918
36.10023966,96.39,1594,39.9249
36.12650023,96.39,1538,39.2173
36.15276079,96.39,1523,39.0256
36.17902136,96.39,1566,39.5727
36.20528192,96.39,1595,39.9375
36.23154249,96.39,1490,38.6005
36.25780305,96.39,1585,39.8121
36.28406362,96.39,1500,38.7298
36.31032418,96.39,1492,38.6264
36.33658475,96.39,1506,38.8072
36.36284531,96.39,1581,39.7618
36.38910588,96.39,1458,38.1838
36.41536644,96.39,1512,38.8844
36.44162701,96.39,1446,38.0263
36.46788758,96.39,1441,37.9605
36.49414814,96.39,1388,37.2559
36.52040871,96.39,1445,38.0132
36.54666927,96.39,1450,38.0789
36.57292984,96.39,1439,37.9342
36.5991904,96.39,1452,38.1051
36.62545097,96.39,1501,38.7427
36.65171153,96.39,1371,37.027
36.6779721,96.39,1419,37.6696
36.70423266,96.39,1481,38.4838
36.73049323,96.39,1451,38.092
36.75675379,96.39,1440,37.9473
36.78301436,96.39,1453,38.1182
36.80927492,96.39,1514,38.9102
36.83553549,96.39,1403,37.4566
36.86179606,96.39,1393,37.3229
36.88805662,96.39,1406,37.4967
36.91431719,96.39,1381,37.1618
36.94057775,96.39,1392,37.3095
36.96683832,96.39,1480,38.4708
36.99309888,96.39,1398,37.3898
37.01935945,96.39,1412,37.5766
37.04562001,96.39,1292,35.9444
37.07188058,96.39,1368,36.9865
37.09814114,96.39,1408,37.5233
37.12440171,96.39,1442,37.9737
37.15066227,96.39,1403,37.4566
37.17692284,96.39,1377,37.108
37.20318341,96.39,1304,36.1109
37.22944397,96.39,1359,36.8646
37.25570454,96.39,1358,36.8511
37.2819651,96.39,1384,37.2022
37.30822567,96.39,1303,36.0971
37.33448623,96.39,1322,36.3593
37.3607468,96.39,1324,36.3868
37.38700736,96.39,1306,36.1386
37.41326793,96.39,1322,36.3593
37.43952849,96.39,1323,36.3731
37.46578906,96.39,1447,38.0395
37.49204962,96.39,1307,36.1525
37.51831019,96.39,1304,36.1109
37.54457075,96.39,1462,38.2361
37.57083132,96.39,1370,37.0135
37.59709189,96.39,1411,37.5633
37.62335245,96.39,1438,37.921
37.64961302,96.39,1502,38.7556
37.67587358,96.39,1561,39.5095
37.70213415,96.39,1694,41.1582
37.72839471,96.39,1679,40.9756
37.75465528,96.39,1701,41.2432
37.78091584,96.39,1605,40.0625
37.80717641,96.39,1568,39.598
37.83343697,96.39,1524,39.0384
37.85969754,96.39,1558,39.4715
37.8859581,96.39,1443,37.9868
37.91221867,96.39,1364,36.9324
37.93847924,96.39,1349,36.7287
37.9647398,96.39,1302,36.0832
37.99100037,96.39,1309,36.1801
38.01726093,96.39,1291,35.9305
38.0435215,96.39,1279,35.7631
38.06978206,96.39,1318,36.3043
38.09604263,96.39,1321,36.3456
38.12230319,96.39,1429,37.8021
38.14856376,96.39,1545,39.3065
38.17482432,96.39,1440,37.9473
38.20108489,96.39,1430,37.8153
38.22734545,96.39,1454,38.1314
38.25360602,96.39,1439,37.9342
38.27986658,96.39,1510,38.8587
38.30612715,96.39,1601,40.0125
38.33238772,96.39,1464,38.2623
38.35864828,96.39,1346,36.6879
38.38490885,96.39,1392,37.3095
38.41116941,96.39,1493,38.6394
38.43742998,96.39,1343,36.647
38.46369054,96.39,1291,35.9305
38.48995111,96.39,1347,36.7015
38.51621167,96.39,1299,36.0416
38.54247224,96.39,1362,36.9053
38.5687328,96.39,1341,36.6197
38.59499337,96.39,1404,37.47
38.62125393,96.39,1353,36.7831
38.6475145,96.39,1326,36.4143
38.67377507,96.39,1369,37
38.70003563,96.39,1443,37.9868
38.7262962,96.39,1489,38.5876
38.75255676,96.39,1609,40.1123
38.77881733,96.39,1539,39.2301
38.80507789,96.39,1484,38.5227
38.83133846,96.39,1407,37.51
38.85759902,96.39,1460,38.2099
38.88385959,96.39,1339,36.5923
38.91012015,96.39,1343,36.647
38.93638072,96.39,1222,34.9571
38.96264128,96.39,1261,35.5106
38.98890185,96.39,1291,35.9305
39.01516241,96.39,1454,38.1314
39.04142298,96.39,1533,39.1535
39.06768355,96.39,1260,35.4965
39.09394411,96.39,1179,34.3366
39.12020468,96.39,1395,37.3497
39.14646524,96.39,1406,37.4967
39.17272581,96.39,1349,36.7287
39.19898637,96.39,1340,36.606
39.22524694,96.39,1373,37.054
39.2515075,96.39,1315,36.2629
39.27776807,96.39,1336,36.5513
39.30402863,96.39,1437,37.9078
39.3302892,96.39,1451,38.092
39.35654976,96.39,1604,40.05
39.38281033,96.39,1612,40.1497
39.4090709,96.39,1571,39.6358
39.43533146,96.39,1663,40.7799
39.46159203,96.39,1552,39.3954
39.48785259,96.39,1493,38.6394
39.51411316,96.39,1518,38.9615
39.54037372,96.39,1448,38.0526
39.56663429,96.39,1359,36.8646
39.59289485,96.39,1283,35.819
39.61915542,96.39,1225,35
39.64541598,96.39,1219,34.9142
39.67167655,96.39,1270,35.6371
39.69793711,96.39,1169,34.1906
39.72419768,96.39,1178,34.322
39.75045824,96.39,1222,34.9571
39.77671881,96.39,1142,33.7935
39.80297938,96.39,1252,35.3836
39.82923994,96.39,1230,35.0714
39.85550051,96.39,1212,34.8138
39.88176107,96.39,1242,35.242
39.90802164,96.39,1141,33.7787
39.9342822,96.39,1262,35.5246
39.96054277,96.39,1179,34.3366
39.98680333,96.39,1226,35.0143
40.0130639,96.39,1178,34.322
40.03932446,96.39,1227,35.0286
40.06558503,96.39,1214,34.8425
40.09184559,96.39,1283,35.819
40.11810616,96.39,1279,35.7631
40.14436673,96.39,1328,36.4417
40.17062729,96.39,1195,34.5688
40.19688786,96.39,1281,35.7911
40.22314842,96.39,1220,34.9285
40.24940899,96.39,1177,34.3074
40.27566955,96.39,1176,34.2929
40.30193012,96.39,1195,34.5688
40.32819068,96.39,1106,33.2566
40.35445125,96.39,1150,33.9116
40.38071181,96.39,1121,33.4813
40.40697238,96.39,1213,34.8281
40.43323294,96.39,1141,33.7787
40.45949351,96.39,1191,34.5109
40.48575407,96.39,1137,33.7194
40.51201464,96.39,1207,34.7419
40.53827521,96.39,1188,34.4674
40.56453577,96.39,1200,34.641
40.59079634,96.39,1195,34.5688
40.6170569,96.39,1168,34.176
40.64331747,96.39,1277,35.7351
40.66957803,96.39,1190,34.4964
40.6958386,96.39,1249,35.3412
40.72209916,96.39,1186,34.4384
40.74835973,96.39,1108,33.2866
40.77462029,96.39,1128,33.5857
40.80088086,96.39,1062,32.5883
40.82714142,96.39,1113,33.3617
40.85340199,96.39,1051,32.4191
40.87966255,96.39,1039,32.2335
40.90592312,96.39,1106,33.2566
40.93218369,96.39,1067,32.665
40.95844425,96.39,1055,32.4808
40.98470482,96.39,1141,33.7787
41.01096538,96.39,1056,32.4962
41.03722595,96.39,1102,33.1964
41.06348651,96.39,1114,33.3766
41.08974708,96.39,1139,33.7491
41.11600764,96.39,1138,33.7343
41.14226821,96.39,1116,33.4066
41.16852877,96.39,1163,34.1028
41.19478934,96.39,1090,33.0151
41.2210499,96.39,1241,35.2278
41.24731047,96.39,1249,35.3412
41.27357104,96.39,1213,34.8281
41.2998316,96.39,1331,36.4829
41.32609217,96.39,1486,38.5487
41.35235273,96.39,1576,39.6989
41.3786133,96.39,1586,39.8246
41.40487386,96.39,1472,38.3667
41.43113443,96.39,1456,38.1576
41.45739499,96.39,1335,36.5377
41.48365556,96.39,1403,37.4566
41.50991612,96.39,1337,36.565
41.53617669,96.39,1283,35.819
41.56243725,96.39,1127,33.5708
41.58869782,96.39,1071,32.7261
41.61495838,96.39,1094,33.0757
41.64121895,96.39,1031,32.1092
41.66747952,96.39,1031,32.1092
41.69374008,96.39,1056,32.4962
41.72000065,96.39,968,31.1127
41.74626121,96.39,1035,32.1714
41.77252178,96.39,1065,32.6343
41.79878234,96.39,1037,32.2025
41.82504291,96.39,1041,32.2645
41.85130347,96.39,998,31.5911
41.87756404,96.39,989,31.4484
41.9038246,96.39,998,31.5911
41.93008517,96.39,1003,31.6702
41.95634573,96.39,1018,31.9061
41.9826063,96.39,1085,32.9393
42.00886687,96.39,1061,32.573
42.03512743,96.39,1112,33.3467
42.061388,96.39,1201,34.6554
42.08764856,96.39,1246,35.2987
42.11390913,96.39,1286,35.8608
42.14016969,96.39,1279,35.7631
42.16643026,96.39,1283,35.819
42.19269082,96.39,1284,35.8329
42.21895139,96.39,1216,34.8712
42.24521195,96.39,1195,34.5688
42.27147252,96.39,1170,34.2053
42.29773308,96.39,1094,33.0757
42.32399365,96.39,1044,32.311
42.35025421,96.39,1039,32.2335
42.37651478,96.39,1065,32.6343
42.40277535,96.39,1038,32.218
42.42903591,96.39,1063,32.6037
42.45529648,96.39,1109,33.3017
42.48155704,96.39,1172,34.2345
42.50781761,96.39,1141,33.7787
42.53407817,96.39,1194,34.5543
42.56033874,96.39,1154,33.9706
42.5865993,96.39,1141,33.7787
42.61285987,96.39,1171,34.2199
42.63912043,96.39,1146,33.8526
42.665381,96.39,1088,32.9848
42.69164156,96.39,1105,33.2415
42.71790213,96.39,1033,32.1403
42.7441627,96.39,1064,32.619
42.77042326,96.39,1016,31.8748
42.79668383,96.39,1036,32.187
42.82294439,96.39,1016,31.8748
42.84920496,96.39,1077,32.8177
42.87546552,96.39,1062,32.5883
42.90172609,96.39,1026,32.0312
42.92798665,96.39,1075,32.7872
42.95424722,96.39,1037,32.2025
42.98050778,96.39,1041,32.2645
43.00676835,96.39,1053,32.45
43.03302891,96.39,990,31.4643
43.05928948,96.39,956,30.9192
43.08555004,96.39,1037,32.2025
43.11181061,96.39,975,31.225
43.13807118,96.39,990,31.4643
43.16433174,96.39,997,31.5753
43.19059231,96.39,978,31.273
43.21685287,96.39,990,31.4643
43.24311344,96.39,997,31.5753
43.269374,96.39,1015,31.8591
43.29563457,96.39,994,31.5278
43.32189513,96.39,980,31.305
43.3481557,96.39,1005,31.7017
43.37441626,96.39,957,30.9354
43.40067683,96.39,1021,31.9531
43.42693739,96.39,946,30.7571
43.45319796,96.39,992,31.496
43.47945853,96.39,986,31.4006
43.50571909,96.39,1011,31.7962
43.53197966,96.39,1012,31.8119
43.55824022,96.39,966,31.0805
43.58450079,96.39,1018,31.9061
43.61076135,96.39,1120,33.4664
43.63702192,96.39,1101,33.1813
43.66328248,96.39,1183,34.3948
43.68954305,96.39,1335,36.5377
43.71580361,96.39,1474,38.3927
43.74206418,96.39,1469,38.3275
43.76832474,96.39,1484,38.5227
43.79458531,96.39,1463,38.2492
43.82084587,96.39,1377,37.108
43.84710644,96.39,1325,36.4005
43.87336701,96.39,1297,36.0139
43.89962757,96.39,1271,35.6511
43.92588814,96.39,1146,33.8526
43.9521487,96.39,1107,33.2716
43.97840927,96.39,1047,32.3574
44.00466983,96.39,1070,32.7109
44.0309304,96.39,1077,32.8177
44.05719096,96.39,1057,32.5115
44.08345153,96.39,1005,31.7017
44.10971209,96.39,1037,32.2025
44.13597266,96.39,1024,32
44.16223322,96.39,1096,33.1059
44.18849379,96.39,1010,31.7805
44.21475435,96.39,1088,32.9848
44.24101492,96.39,1109,33.3017
44.26727549,96.39,1116,33.4066
44.29353605,96.39,1173,34.2491
44.31979662,96.39,1212,34.8138
44.34605718,96.39,1293,35.9583
44.37231775,96.39,1275,35.7071
44.39857831,96.39,1304,36.1109
44.42483888,96.39,1183,34.3948
44.45109944,96.39,1253,35.3977
44.47736001,96.39,1185,34.4238
44.50362057,96.39,1228,35.0428
44.52988114,96.39,1137,33.7194
44.5561417,96.39,1110,33.3167
44.58240227,96.39,1095,33.0908
44.60866284,96.39,1114,33.3766
44.6349234,96.39,1037,32.2025
44.66118397,96.39,1045,32.3265
44.68744453,96.39,1055,32.4808
44.7137051,96.39,1036,32.187
44.73996566,96.39,983,31.3528
44.76622623,96.39,1108,33.2866
44.79248679,96.39,1096,33.1059
44.81874736,96.39,1119,33.4515
44.84500792,96.39,1099,33.1512
44.87126849,96.39,1030,32.0936
44.89752905,96.39,1057,32.5115
44.92378962,96.39,1066,32.6497
44.95005018,96.39,1111,33.3317
44.97631075,96.39,1094,33.0757
45.00257132,96.39,1146,33.8526
45.02883188,96.39,1198,34.6121
45.05509245,96.39,1228,35.0428
45.08135301,96.39,1364,36.9324
45.10761358,96.39,1504,38.7814
45.13387414,96.39,1369,37
45.16013471,96.39,1249,35.3412
45.18639527,96.39,1289,35.9026
45.21265584,96.39,1353,36.7831
45.2389164,96.39,1400,37.4166
45.26517697,96.39,1302,36.0832
45.29143753,96.39,1302,36.0832
45.3176981,96.39,1282,35.805
45.34395867,96.39,1305,36.1248
45.37021923,96.39,1267,35.5949
45.3964798,96.39,1318,36.3043
45.42274036,96.39,1371,37.027
45.44900093,96.39,1305,36.1248
45.47526149,96.39,1347,36.7015
45.50152206,96.39,1277,35.7351
45.52778262,96.39,1196,34.5832
45.55404319,96.39,1190,34.4964
45.58030375,96.39,1145,33.8378
45.60656432,96.39,1178,34.322
45.63282488,96.39,1154,33.9706
45.65908545,96.39,1164,34.1174
45.68534601,96.39,1086,32.9545
45.71160658,96.39,1050,32.4037
45.73786715,96.39,1068,32.6803
45.76412771,96.39,1023,31.9844
45.79038828,96.39,1033,32.1403
45.81664884,96.39,1121,33.4813
45.84290941,96.39,1001,31.6386
45.86916997,96.39,1141,33.7787
45.89543054,96.39,1091,33.0303
45.9216911,96.39,1059,32.5423
45.94795167,96.39,1026,32.0312
45.97421223,96.39,1074,32.7719
46.0004728,96.39,1067,32.665
46.02673336,96.39,1077,32.8177
46.05299393,96.39,1086,32.9545
46.0792545,96.39,1169,34.1906
46.10551506,96.39,1131,33.6303
46.13177563,96.39,1172,34.2345
46.15803619,96.39,1230,35.0714
46.18429676,96.39,1241,35.2278
46.21055732,96.39,1278,35.7491
46.23681789,96.39,1196,34.5832
46.26307845,96.39,1261,35.5106
46.28933902,96.39,1329,36.4555
46.31559958,96.39,1228,35.0428
46.34186015,96.39,1134,33.6749
46.36812071,96.39,1184,34.4093
46.39438128,96.39,1244,35.2704
46.42064184,96.39,1314,36.2491
46.44690241,96.39,1123,33.5112
46.47316298,96.39,1037,32.2025
46.49942354,96.39,1112,33.3467
46.52568411,96.39,1087,32.9697
46.55194467,96.39,1120,33.4664
46.57820524,96.39,1024,32
46.6044658,96.39,1028,32.0624
46.63072637,96.39,1061,32.573
46.65698693,96.39,1030,32.0936
46.6832475,96.39,994,31.5278
46.70950806,96.39,1024,32
46.73576863,96.39,1045,32.3265
46.76202919,96.39,1040,32.249
46.78828976,96.39,1080,32.8634
46.81455033,96.39,1094,33.0757
46.84081089,96.39,1020,31.9374
46.86707146,96.39,1095,33.0908
46.89333202,96.39,1093,33.0606
46.91959259,96.39,1064,32.619
46.94585315,96.39,1168,34.176
46.97211372,96.39,1182,34.3802
46.99837428,96.39,1121,33.4813
47.02463485,96.39,1127,33.5708
47.05089541,96.39,1091,33.0303
47.07715598,96.39,1037,32.2025
47.10341654,96.39,1086,32.9545
47.12967711,96.39,1018,31.9061
47.15593767,96.39,1072,32.7414
47.18219824,96.39,999,31.607
47.20845881,96.39,998,31.5911
47.23471937,96.39,1006,31.7175
47.26097994,96.39,1006,31.7175
47.2872405,96.39,1033,32.1403
47.31350107,96.39,1134,33.6749
47.33976163,96.39,1054,32.4654
47.3660222,96.39,1023,31.9844
47.39228276,96.39,1013,31.8277
47.41854333,96.39,1010,31.7805
47.44480389,96.39,985,31.3847
47.47106446,96.39,989,31.4484
47.49732502,96.39,1020,31.9374
47.52358559,96.39,964,31.0483
47.54984616,96.39,985,31.3847
47.57610672,96.39,960,30.9839
47.60236729,96.39,990,31.4643
47.62862785,96.39,949,30.8058
47.65488842,96.39,1009,31.7648
47.68114898,96.39,947,30.7734
47.70740955,96.39,948,30.7896
47.73367011,96.39,964,31.0483
47.75993068,96.39,981,31.3209
47.78619124,96.39,949,30.8058
47.81245181,96.39,1008,31.749
47.83871237,96.39,966,31.0805
47.86497294,96.39,904,30.0666
47.8912335,96.39,948,30.7896
47.91749407,96.39,961,31
47.94375464,96.39,981,31.3209
47.9700152,96.39,984,31.3688
47.99627577,96.39,1016,31.8748
48.02253633,96.39,1028,32.0624
48.0487969,96.39,1058,32.5269
48.07505746,96.39,1012,31.8119
48.10131803,96.39,1090,33.0151
48.12757859,96.39,1146,33.8526
48.15383916,96.39,1049,32.3883
48.18009972,96.39,1055,32.4808
48.20636029,96.39,1037,32.2025
48.23262085,96.39,1078,32.8329
48.25888142,96.39,1026,32.0312
48.28514198,96.39,1013,31.8277
48.31140255,96.39,984,31.3688
48.33766312,96.39,1005,31.7017
48.36392368,96.39,1055,32.4808
48.39018425,96.39,989,31.4484
48.41644481,96.39,1028,32.0624
48.44270538,96.39,1058,32.5269
48.46896594,96.39,1073,32.7567
48.49522651,96.39,1154,33.9706
48.52148707,96.39,1173,34.2491
48.54774764,96.39,1142,33.7935
48.5740082,96.39,1062,32.5883
48.60026877,96.39,1056,32.4962
48.62652933,96.39,1050,32.4037
48.6527899,96.39,1036,32.187
48.67905047,96.39,1013,31.8277
48.70531103,96.39,1021,31.9531
48.7315716,96.39,990,31.4643
48.75783216,96.39,967,31.0966
48.78409273,96.39,947,30.7734
48.81035329,96.39,933,30.545
48.83661386,96.39,918,30.2985
48.86287442,96.39,926,30.4302
48.88913499,96.39,877,29.6142
48.91539555,96.39,916,30.2655
48.94165612,96.39,901,30.0167
48.96791668,96.39,930,30.4959
48.99417725,96.39,914,30.2324
49.02043781,96.39,954,30.8869
49.04669838,96.39,911,30.1828
49.07295895,96.39,902,30.0333
49.09921951,96.39,922,30.3645
49.12548008,96.39,933,30.545
49.15174064,96.39,949,30.8058
49.17800121,96.39,906,30.0998
49.20426177,96.39,892,29.8664
49.23052234,96.39,929,30.4795
49.2567829,96.39,846,29.0861
49.28304347,96.39,919,30.315
49.30930403,96.39,872,29.5296
49.3355646,96.39,975,31.225
49.36182516,96.39,910,30.1662
49.38808573,96.39,913,30.2159
49.4143463,96.39,955,30.9031
49.44060686,96.39,908,30.133
49.46686743,96.39,878,29.6311
49.49312799,96.39,919,30.315
49.51938856,96.39,923,30.3809
49.54564912,96.39,974,31.209
49.57190969,96.39,950,30.8221
49.59817025,96.39,890,29.8329
49.62443082,96.39,918,30.2985
49.65069138,96.39,926,30.4302
49.67695195,96.39,939,30.6431
49.70321251,96.39,937,30.6105
49.72947308,96.39,932,30.5287
49.75573364,96.39,819,28.6182
49.78199421,96.39,893,29.8831
49.80825478,96.39,869,29.4788
49.83451534,96.39,885,29.7489
49.86077591,96.39,928,30.4631
49.88703647,96.39,945,30.7409
49.91329704,96.39,839,28.9655
49.9395576,96.39,833,28.8617
49.96581817,96.39,884,29.7321
49.99207873,96.39,853,29.2062
50.0183393,96.39,889,29.8161
50.04459986,96.39,862,29.3598
50.07086043,96.39,860,29.3258
50.09712099,96.39,817,28.5832
50.12338156,96.39,872,29.5296
50.14964213,96.39,893,29.8831
50.17590269,96.39,945,30.7409
50.20216326,96.39,1040,32.249
50.22842382,96.39,1075,32.7872
50.25468439,96.39,1045,32.3265
50.28094495,96.39,1080,32.8634
50.30720552,96.39,1002,31.6544
50.33346608,96.39,918,30.2985
50.35972665,96.39,993,31.5119
50.38598721,96.39,980,31.305
50.41224778,96.39,929,30.4795
50.43850834,96.39,857,29.2746
50.46476891,96.39,863,29.3769
50.49102947,96.39,857,29.2746
50.51729004,96.39,783,27.9821
50.54355061,96.39,866,29.4279
50.56981117,96.39,789,28.0891
50.59607174,96.39,853,29.2062
50.6223323,96.39,814,28.5307
50.64859287,96.39,815,28.5482
50.67485343,96.39,836,28.9137
50.701114,96.39,804,28.3549
50.72737456,96.39,867,29.4449
50.75363513,96.39,800,28.2843
50.77989569,96.39,848,29.1204
50.80615626,96.39,777,27.8747
50.83241682,96.39,840,28.9828
50.85867739,96.39,864,29.3939
50.88493796,96.39,863,29.3769
50.91119852,96.39,830,28.8097
50.93745909,96.39,833,28.8617
50.96371965,96.39,823,28.688
50.98998022,96.39,795,28.1957
51.01624078,96.39,837,28.931
51.04250135,96.39,825,28.7228
51.06876191,96.39,852,29.189
51.09502248,96.39,815,28.5482
51.12128304,96.39,934,30.5614
51.14754361,96.39,906,30.0998
51.17380417,96.39,930,30.4959
51.20006474,96.39,915,30.249
51.2263253,96.39,909,30.1496
51.25258587,96.39,914,30.2324
51.27884644,96.39,886,29.7658
51.305107,96.39,951,30.8383
51.33136757,96.39,877,29.6142
51.35762813,96.39,881,29.6816
51.3838887,96.39,796,28.2135
51.41014926,96.39,831,28.8271
51.43640983,96.39,803,28.3373
51.46267039,96.39,799,28.2666
51.48893096,96.39,789,28.0891
51.51519152,96.39,850,29.1548
51.54145209,96.39,788,28.0713
51.56771265,96.39,770,27.7489
51.59397322,96.39,791,28.1247
51.62023378,96.39,797,28.2312
51.64649435,96.39,797,28.2312
51.67275492,96.39,728,26.9815
51.69901548,96.39,813,28.5132
51.72527605,96.39,824,28.7054
51.75153661,96.39,852,29.189
51.77779718,96.39,857,29.2746
51.80405774,96.39,864,29.3939
51.83031831,96.39,829,28.7924
51.85657887,96.39,841,29
51.88283944,96.39,832,28.8444
51.9091,96.39,779,27.9106
51.93536057,96.39,796,28.2135
51.96162113,96.39,803,28.3373
51.9878817,96.39,878,29.6311
52.01414227,96.39,852,29.189
52.04040283,96.39,851,29.1719
52.0666634,96.39,886,29.7658
52.09292396,96.39,860,29.3258
52.11918453,96.39,937,30.6105
52.14544509,96.39,1015,31.8591
52.17170566,96.39,998,31.5911
52.19796622,96.39,1044,32.311
52.22422679,96.39,1108,33.2866
52.25048735,96.39,1061,32.573
52.27674792,96.39,1003,31.6702
52.30300848,96.39,1012,31.8119
52.32926905,96.39,983,31.3528
52.35552961,96.39,993,31.5119
52.38179018,96.39,937,30.6105
52.40805075,96.39,960,30.9839
52.43431131,96.39,913,30.2159
52.46057188,96.39,905,30.0832
52.48683244,96.39,779,27.9106
52.51309301,96.39,799,28.2666
52.53935357,96.39,846,29.0861
52.56561414,96.39,807,28.4077
52.5918747,96.39,802,28.3196
52.61813527,96.39,850,29.1548
52.64439583,96.39,818,28.6007
52.6706564,96.39,840,28.9828
52.69691696,96.39,825,28.7228
52.72317753,96.39,807,28.4077
52.7494381,96.39,791,28.1247
52.77569866,96.39,831,28.8271
52.80195923,96.39,804,28.3549
52.82821979,96.39,895,29.9166
52.85448036,96.39,873,29.5466
52.88074092,96.39,789,28.0891
52.90700149,96.39,827,28.7576
52.93326205,96.39,840,28.9828
52.95952262,96.39,868,29.4618
52.98578318,96.39,818,28.6007
53.01204375,96.39,855,29.2404
53.03830431,96.39,812,28.4956
53.06456488,96.39,814,28.5307
53.09082544,96.39,828,28.775
53.11708601,96.39,802,28.3196
53.14334658,96.39,802,28.3196
53.16960714,96.39,835,28.8964
53.19586771,96.39,846,29.0861
53.22212827,96.39,903,30.05
53.24838884,96.39,826,28.7402
53.2746494,96.39,838,28.9482
53.30090997,96.39,824,28.7054
53.32717053,96.39,814,28.5307
53.3534311,96.39,880,29.6648
53.37969166,96.39,879,29.6479
53.40595223,96.39,849,29.1376
53.43221279,96.39,825,28.7228
53.45847336,96.39,829,28.7924
53.48473393,96.39,802,28.3196
53.51099449,96.39,840,28.9828
53.53725506,96.39,838,28.9482
53.56351562,96.39,825,28.7228
53.58977619,96.39,826,28.7402
53.61603675,96.39,826,28.7402
53.64229732,96.39,802,28.3196
53.66855788,96.39,776,27.8568
53.69481845,96.39,826,28.7402
53.72107901,96.39,755,27.4773
53.74733958,96.39,805,28.3725
53.77360014,96.39,747,27.3313
53.79986071,96.39,760,27.5681
53.82612127,96.39,762,27.6043
53.85238184,96.39,766,27.6767
53.87864241,96.39,806,28.3901
53.90490297,96.39,740,27.2029
53.93116354,96.39,797,28.2312
53.9574241,96.39,784,28
53.98368467,96.39,818,28.6007
54.00994523,96.39,814,28.5307
54.0362058,96.39,801,28.3019
54.06246636,96.39,834,28.8791
54.08872693,96.39,844,29.0517
54.11498749,96.39,874,29.5635
54.14124806,96.39,960,30.9839
54.16750862,96.39,906,30.0998
54.19376919,96.39,851,29.1719
54.22002976,96.39,845,29.0689
54.24629032,96.39,945,30.7409
54.27255089,96.39,881,29.6816
54.29881145,96.39,870,29.4958
54.32507202,96.39,838,28.9482
54.35133258,96.39,828,28.775
54.37759315,96.39,864,29.3939
54.40385371,96.39,774,27.8209
54.43011428,96.39,795,28.1957
54.45637484,96.39,768,27.7128
54.48263541,96.39,827,28.7576
54.50889597,96.39,735,27.1109
54.53515654,96.39,740,27.2029
54.5614171,96.39,761,27.5862
54.58767767,96.39,743,27.258
54.61393824,96.39,793,28.1603
54.6401988,96.39,764,27.6405
54.66645937,96.39,731,27.037
54.69271993,96.39,729,27
54.7189805,96.39,761,27.5862
54.74524106,96.39,729,27
54.77150163,96.39,759,27.55
54.79776219,96.39,753,27.4408
54.82402276,96.39,780,27.9285
54.85028332,96.39,737,27.1477
54.87654389,96.39,705,26.5518
54.90280445,96.39,711,26.6646
54.92906502,96.39,786,28.0357
54.95532559,96.39,905,30.0832
54.98158615,96.39,878,29.6311
55.00784672,96.39,781,27.9464
55.03410728,96.39,737,27.1477
55.06036785,96.39,742,27.2397
55.08662841,96.39,773,27.8029
55.11288898,96.39,824,28.7054
55.13914954,96.39,850,29.1548
55.16541011,96.39,775,27.8388
55.19167067,96.39,753,27.4408
55.21793124,96.39,678,26.0384
55.2441918,96.39,692,26.3059
55.27045237,96.39,719,26.8142
55.29671293,96.39,663,25.7488
55.3229735,96.39,704,26.533
55.34923407,96.39,711,26.6646
55.37549463,96.39,634,25.1794
55.4017552,96.39,725,26.9258
55.42801576,96.39,757,27.5136
55.45427633,96.39,690,26.2679
55.48053689,96.39,710,26.6458
55.50679746,96.39,728,26.9815
55.53305802,96.39,789,28.0891
55.55931859,96.39,738,27.1662
55.58557915,96.39,761,27.5862
55.61183972,96.39,746,27.313
55.63810028,96.39,737,27.1477
55.66436085,96.39,759,27.55
55.69062141,96.39,713,26.7021
55.71688198,96.39,728,26.9815
55.74314255,96.39,743,27.258
55.76940311,96.39,751,27.4044
55.79566368,96.39,774,27.8209
55.82192424,96.39,738,27.1662
55.84818481,96.39,723,26.8887
55.87444537,96.39,714,26.7208
55.90070594,96.39,714,26.7208
55.9269665,96.39,677,26.0192
55.95322707,96.39,742,27.2397
55.97948763,96.39,703,26.5141
56.0057482,96.39,724,26.9072
56.03200876,96.39,734,27.0924
56.05826933,96.39,666,25.807
56.0845299,96.39,707,26.5895
56.11079046,96.39,713,26.7021
56.13705103,96.39,721,26.8514
56.16331159,96.39,744,27.2764
56.18957216,96.39,702,26.4953
56.21583272,96.39,650,25.4951
56.24209329,96.39,638,25.2587
56.26835385,96.39,723,26.8887
56.29461442,96.39,740,27.2029
56.32087498,96.39,687,26.2107
56.34713555,96.39,704,26.533
56.37339611,96.39,719,26.8142
56.39965668,96.39,684,26.1534
56.42591724,96.39,737,27.1477
56.45217781,96.39,693,26.3249
56.47843838,96.39,661,25.7099
56.50469894,96.39,709,26.6271
56.53095951,96.39,730,27.0185
56.55722007,96.39,646,25.4165
56.58348064,96.39,686,26.1916
56.6097412,96.39,699,26.4386
56.63600177,96.39,710,26.6458
56.66226233,96.39,668,25.8457
56.6885229,96.39,716,26.7582
56.71478346,96.39,655,25.593
56.74104403,96.39,685,26.1725
56.76730459,96.39,706,26.5707
56.79356516,96.39,706,26.5707
56.81982573,96.39,720,26.8328
56.84608629,96.39,694,26.3439
56.87234686,96.39,700,26.4575
56.89860742,96.39,697,26.4008
56.92486799,96.39,692,26.3059
56.95112855,96.39,647,25.4362
56.97738912,96.39,635,25.1992
57.00364968,96.39,723,26.8887
57.02991025,96.39,651,25.5147
57.05617081,96.39,714,26.7208
57.08243138,96.39,683,26.1343
57.10869194,96.39,688,26.2298
57.13495251,96.39,730,27.0185
57.16121307,96.39,625,25
57.18747364,96.39,688,26.2298
57.21373421,96.39,702,26.4953
57.23999477,96.39,678,26.0384
57.26625534,96.39,741,27.2213
57.2925159,96.39,750,27.3861
57.31877647,96.39,704,26.533
57.34503703,96.39,751,27.4044
57.3712976,96.39,672,25.923
57.39755816,96.39,646,25.4165
57.42381873,96.39,666,25.807
57.45007929,96.39,739,27.1846
57.47633986,96.39,666,25.807
57.50260042,96.39,701,26.4764
57.52886099,96.39,688,26.2298
57.55512156,96.39,645,25.3969
57.58138212,96.39,674,25.9615
57.60764269,96.39,687,26.2107
57.63390325,96.39,731,27.037
57.66016382,96.39,739,27.1846
57.68642438,96.39,696,26.3818
57.71268495,96.39,723,26.8887
57.73894551,96.39,741,27.2213
57.76520608,96.39,703,26.5141
57.79146664,96.39,696,26.3818
57.81772721,96.39,735,27.1109
57.84398777,96.39,754,27.4591
57.87024834,96.39,691,26.2869
57.8965089,96.39,682,26.1151
57.92276947,96.39,730,27.0185
57.94903004,96.39,746,27.313
57.9752906,96.39,855,29.2404
58.00155117,96.39,854,29.2233
58.02781173,96.39,843,29.0345
58.0540723,96.39,849,29.1376
58.08033286,96.39,804,28.3549
58.10659343,96.39,801,28.3019
58.13285399,96.39,833,28.8617
58.15911456,96.39,861,29.3428
58.18537512,96.39,814,28.5307
58.21163569,96.39,806,28.3901
58.23789625,96.39,739,27.1846
58.26415682,96.39,699,26.4386
58.29041739,96.39,686,26.1916
58.31667795,96.39,713,26.7021
58.34293852,96.39,714,26.7208
58.36919908,96.39,690,26.2679
58.39545965,96.39,689,26.2488
58.42172021,96.39,673,25.9422
58.44798078,96.39,670,25.8844
58.47424134,96.39,689,26.2488
58.50050191,96.39,687,26.2107
58.52676247,96.39,688,26.2298
58.55302304,96.39,649,25.4755
58.5792836,96.39,609,24.6779
58.60554417,96.39,702,26.4953
58.63180473,96.39,691,26.2869
58.6580653,96.39,682,26.1151
58.68432587,96.39,624,24.98
58.71058643,96.39,664,25.7682
58.736847,96.39,690,26.2679
58.76310756,96.39,658,25.6515
58.78936813,96.39,710,26.6458
58.81562869,96.39,712,26.6833
58.84188926,96.39,689,26.2488
58.86814982,96.39,687,26.2107
58.89441039,96.39,692,26.3059
58.92067095,96.39,704,26.533
58.94693152,96.39,661,25.7099
58.97319208,96.39,607,24.6374
58.99945265,96.39,696,26.3818
59.02571321,96.39,672,25.923
59.05197378,96.39,642,25.3377
59.07823435,96.39,673,25.9422
59.10449491,96.39,653,25.5539
59.13075548,96.39,663,25.7488
59.15701604,96.39,710,26.6458
59.18327661,96.39,757,27.5136
59.20953717,96.39,708,26.6083
59.23579774,96.39,724,26.9072
59.2620583,96.39,683,26.1343
59.28831887,96.39,691,26.2869
59.31457943,96.39,719,26.8142
59.34084,96.39,683,26.1343
59.36710056,96.39,708,26.6083
59.39336113,96.39,655,25.593
59.4196217,96.39,654,25.5734
59.44588226,96.39,660,25.6905
59.47214283,96.39,744,27.2764
59.49840339,96.39,677,26.0192
59.52466396,96.39,729,27
59.55092452,96.39,679,26.0576
59.57718509,96.39,719,26.8142
59.60344565,96.39,684,26.1534
59.62970622,96.39,712,26.6833
59.65596678,96.39,689,26.2488
59.68222735,96.39,718,26.7955
59.70848791,96.39,701,26.4764
59.73474848,96.39,715,26.7395
59.76100904,96.39,763,27.6225
59.78726961,96.39,765,27.6586
59.81353018,96.39,773,27.8029
59.83979074,96.39,752,27.4226
59.86605131,96.39,711,26.6646
59.89231187,96.39,750,27.3861
59.91857244,96.39,790,28.1069
59.944833,96.39,767,27.6948
59.97109357,96.39,755,27.4773
59.99735413,96.39,801,28.3019
60.0236147,96.39,758,27.5318
60.04987526,96.39,756,27.4955
60.07613583,96.39,771,27.7669
60.10239639,96.39,751,27.4044
60.12865696,96.39,772,27.7849
60.15491753,96.39,808,28.4253
60.18117809,96.39,723,26.8887
60.20743866,96.39,802,28.3196
60.23369922,96.39,784,28
60.25995979,96.39,773,27.8029
60.28622035,96.39,772,27.7849
60.31248092,96.39,719,26.8142
60.33874148,96.39,757,27.5136
60.36500205,96.39,814,28.5307
60.39126261,96.39,782,27.9643
60.41752318,96.39,807,28.4077
60.44378374,96.39,773,27.8029
60.47004431,96.39,848,29.1204
60.49630487,96.39,845,29.0689
60.52256544,96.39,799,28.2666
60.54882601,96.39,830,28.8097
60.57508657,96.39,901,30.0167
60.60134714,96.39,881,29.6816
60.6276077,96.39,918,30.2985
60.65386827,96.39,929,30.4795
60.68012883,96.39,932,30.5287
60.7063894,96.39,956,30.9192
60.73264996,96.39,920,30.3315
60.75891053,96.39,998,31.5911
60.78517109,96.39,1029,32.078
60.81143166,96.39,1119,33.4515
60.83769222,96.39,1010,31.7805
60.86395279,96.39,1043,32.2955
60.89021336,96.39,1042,32.28
60.91647392,96.39,1081,32.8786
60.94273449,96.39,1123,33.5112
60.96899505,96.39,1116,33.4066
60.99525562,96.39,1123,33.5112
61.02151618,96.39,1063,32.6037
61.04777675,96.39,1176,34.2929
61.07403731,96.39,1042,32.28
61.10029788,96.39,1098,33.1361
61.12655844,96.39,1043,32.2955
61.15281901,96.39,1045,32.3265
61.17907957,96.39,1094,33.0757
61.20534014,96.39,1053,32.45
61.2316007,96.39,1024,32
61.25786127,96.39,996,31.5595
61.28412184,96.39,1027,32.0468
61.3103824,96.39,1046,32.3419
61.33664297,96.39,992,31.496
61.36290353,96.39,1034,32.1559
61.3891641,96.39,983,31.3528
61.41542466,96.39,980,31.305
61.44168523,96.39,955,30.9031
61.46794579,96.39,977,31.257
61.49420636,96.39,952,30.8545
61.52046692,96.39,914,30.2324
61.54672749,96.39,949,30.8058
61.57298805,96.39,933,30.545
61.59924862,96.39,918,30.2985
61.62550919,96.39,852,29.189
61.65176975,96.39,917,30.282
61.67803032,96.39,914,30.2324
61.70429088,96.39,908,30.133
61.73055145,96.39,818,28.6007
61.75681201,96.39,853,29.2062
61.78307258,96.39,817,28.5832
61.80933314,96.39,896,29.9333
61.83559371,96.39,878,29.6311
61.86185427,96.39,843,29.0345
61.88811484,96.39,857,29.2746
61.9143754,96.39,871,29.5127
61.94063597,96.39,867,29.4449
61.96689653,96.39,833,28.8617
61.9931571,96.39,744,27.2764
62.01941767,96.39,743,27.258
62.04567823,96.39,809,28.4429
62.0719388,96.39,809,28.4429
62.09819936,96.39,814,28.5307
62.12445993,96.39,720,26.8328
62.15072049,96.39,790,28.1069
62.17698106,96.39,811,28.4781
62.20324162,96.39,730,27.0185
62.22950219,96.39,772,27.7849
62.25576275,96.39,771,27.7669
62.28202332,96.39,762,27.6043
62.30828388,96.39,771,27.7669
62.33454445,96.39,738,27.1662
62.36080502,96.39,781,27.9464
62.38706558,96.39,739,27.1846
62.41332615,96.39,689,26.2488
62.43958671,96.39,727,26.9629
62.46584728,96.39,797,28.2312
62.49210784,96.39,746,27.313
62.51836841,96.39,742,27.2397
62.54462897,96.39,709,26.6271
62.57088954,96.39,780,27.9285
62.5971501,96.39,810,28.4605
62.62341067,96.39,721,26.8514
62.64967123,96.39,793,28.1603
62.6759318,96.39,807,28.4077
62.70219236,96.39,715,26.7395
62.72845293,96.39,778,27.8927
62.7547135,96.39,777,27.8747
62.78097406,96.39,787,28.0535
62.80723463,96.39,782,27.9643
62.83349519,96.39,755,27.4773
62.85975576,96.39,690,26.2679
62.88601632,96.39,677,26.0192
62.91227689,96.39,678,26.0384
62.93853745,96.39,675,25.9808
62.96479802,96.39,687,26.2107
62.99105858,96.39,684,26.1534
63.01731915,96.39,688,26.2298
63.04357971,96.39,633,25.1595
63.06984028,96.39,645,25.3969
63.09610084,96.39,631,25.1197
63.12236141,96.39,683,26.1343
63.14862198,96.39,628,25.0599
63.17488254,96.39,638,25.2587
63.20114311,96.39,606,24.6171
63.22740367,96.39,627,25.04
63.25366424,96.39,670,25.8844
63.2799248,96.39,633,25.1595
63.30618537,96.39,656,25.6125
63.33244593,96.39,643,25.3574
63.3587065,96.39,640,25.2982
63.38496706,96.39,635,25.1992
63.41122763,96.39,585,24.1868
63.43748819,96.39,583,24.1454
63.46374876,96.39,641,25.318
63.49000933,96.39,625,25
63.51626989,96.39,668,25.8457
63.54253046,96.39,596,24.4131
63.56879102,96.39,624,24.98
63.59505159,96.39,640,25.2982
63.62131215,96.39,644,25.3772
63.64757272,96.39,646,25.4165
63.67383328,96.39,641,25.318
63.70009385,96.39,653,25.5539
63.72635441,96.39,680,26.0768
63.75261498,96.39,642,25.3377
63.77887554,96.39,710,26.6458
63.80513611,96.39,632,25.1396
63.83139667,96.39,660,25.6905
63.85765724,96.39,628,25.0599
63.88391781,96.39,683,26.1343
63.91017837,96.39,590,24.2899
63.93643894,96.39,630,25.0998
63.9626995,96.39,685,26.1725
63.98896007,96.39,635,25.1992
64.01522063,96.39,635,25.1992
64.0414812,96.39,677,26.0192
64.06774176,96.39,648,25.4558
64.09400233,96.39,647,25.4362
64.12026289,96.39,669,25.865
64.14652346,96.39,629,25.0799
64.17278402,96.39,611,24.7184
64.19904459,96.39,641,25.318
64.22530516,96.39,639,25.2784
64.25156572,96.39,672,25.923
64.27782629,96.39,683,26.1343
64.30408685,96.39,670,25.8844
64.33034742,96.39,622,24.9399
64.35660798,96.39,654,25.5734
64.38286855,96.39,654,25.5734
64.40912911,96.39,611,24.7184
64.43538968,96.39,603,24.5561
64.46165024,96.39,571,23.8956
64.48791081,96.39,631,25.1197
64.51417137,96.39,617,24.8395
64.54043194,96.39,668,25.8457
64.5666925,96.39,617,24.8395
64.59295307,96.39,588,24.2487
64.61921364,96.39,543,23.3024
64.6454742,96.39,606,24.6171
64.67173477,96.39,596,24.4131
64.69799533,96.39,586,24.2074
64.7242559,96.39,584,24.1661
64.75051646,96.39,605,24.5967
64.77677703,96.39,547,23.388
64.80303759,96.39,610,24.6982
64.82929816,96.39,572,23.9165
64.85555872,96.39,606,24.6171
64.88181929,96.39,597,24.4336
64.90807985,96.39,578,24.0416
64.93434042,96.39,568,23.8328
64.96060099,96.39,580,24.0832
64.98686155,96.39,546,23.3666
