[Measurement conditions]
Sample identification,SiCorner03Nov21_Act12Feb23_B1_0833M_NaOH_LS0153_Num151
Comment - 1,"Configuration=Stage for Flat Samples/Holders, Owner=nmw10, Creation date=9/21/2022 10:06:30 AM"
Comment - 2,"Goniometer=Theta/Theta; Minimum step size 2Theta:0.0001; Minimum step size Omega:0.0001"
Comment - 3,"Sample stage=Stage for flat samples/holders"
Comment - 4,"Diffractometer system=EMPYREAN"
Comment - 5,"Measurement program=X:\XRD\Cement\Zerobackground scan.xrdmp, Created identifier={98A3B11C-88F9-4AA6-982C-73314A311EF5}, Created by=Titus Reed, Id=tmr79, Creation date=10/26/2021 3:01:47 PM"
Anode material,Cu
K-Alpha1 wavelength,1.5405980
K-Alpha2 wavelength,1.5444260
Ratio K-Alpha2/K-Alpha1,0.500
Divergence slit,Fixed,0.25
Monochromator used,NO
Generator voltage, 45
Tube current, 40
File date and time,15/Mar/2023 18:23
Unit cell,
h k l, 0 0 0
Scan axis,Gonio
Scan range,4.994599997,64.999991833
Scan step size,0.0262606
No. of points, 2285
Scan type,CONTINUOUS
Time per step,96.390
[Scan points]
Angle, TimePerStep, Intensity, ESD
5.007730280, 96.390, 3938.0, 62.7535
5.033990845, 96.390, 3985.0, 63.1269
5.060251411, 96.390, 3882.0, 62.3057
5.086511976, 96.390, 3871.0, 62.2174
5.112772541, 96.390, 3840.0, 61.9677
5.139033107, 96.390, 3804.0, 61.6766
5.165293672, 96.390, 3910.0, 62.5300
5.191554237, 96.390, 3886.0, 62.3378
5.217814803, 96.390, 3647.0, 60.3904
5.244075368, 96.390, 3598.0, 59.9833
5.270335934, 96.390, 3742.0, 61.1719
5.296596499, 96.390, 3696.0, 60.7947
5.322857064, 96.390, 3687.0, 60.7207
5.349117630, 96.390, 3646.0, 60.3821
5.375378195, 96.390, 3576.0, 59.7997
5.401638760, 96.390, 3590.0, 59.9166
5.427899326, 96.390, 3554.0, 59.6154
5.454159891, 96.390, 3561.0, 59.6741
5.480420456, 96.390, 3538.0, 59.4811
5.506681022, 96.390, 3594.0, 59.9500
5.532941587, 96.390, 3619.0, 60.1581
5.559202152, 96.390, 3497.0, 59.1354
5.585462718, 96.390, 3491.0, 59.0847
5.611723283, 96.390, 3470.0, 58.9067
5.637983849, 96.390, 3588.0, 59.8999
5.664244414, 96.390, 3492.0, 59.0931
5.690504979, 96.390, 3488.0, 59.0593
5.716765545, 96.390, 3572.0, 59.7662
5.743026110, 96.390, 3611.0, 60.0916
5.769286675, 96.390, 3514.0, 59.2790
5.795547241, 96.390, 3543.0, 59.5231
5.821807806, 96.390, 3461.0, 58.8303
5.848068371, 96.390, 3531.0, 59.4222
5.874328937, 96.390, 3487.0, 59.0508
5.900589502, 96.390, 3420.0, 58.4808
5.926850067, 96.390, 3511.0, 59.2537
5.953110633, 96.390, 3442.0, 58.6686
5.979371198, 96.390, 3545.0, 59.5399
6.005631763, 96.390, 3527.0, 59.3886
6.031892329, 96.390, 3393.0, 58.2495
6.058152894, 96.390, 3485.0, 59.0339
6.084413460, 96.390, 3388.0, 58.2065
6.110674025, 96.390, 3535.0, 59.4559
6.136934590, 96.390, 3468.0, 58.8897
6.163195156, 96.390, 3375.0, 58.0948
6.189455721, 96.390, 3563.0, 59.6909
6.215716286, 96.390, 3471.0, 58.9152
6.241976852, 96.390, 3444.0, 58.6856
6.268237417, 96.390, 3489.0, 59.0678
6.294497982, 96.390, 3482.0, 59.0085
6.320758548, 96.390, 3401.0, 58.3181
6.347019113, 96.390, 3435.0, 58.6089
6.373279678, 96.390, 3445.0, 58.6941
6.399540244, 96.390, 3444.0, 58.6856
6.425800809, 96.390, 3464.0, 58.8558
6.452061375, 96.390, 3568.0, 59.7327
6.478321940, 96.390, 3489.0, 59.0678
6.504582505, 96.390, 3389.0, 58.2151
6.530843071, 96.390, 3469.0, 58.8982
6.557103636, 96.390, 3505.0, 59.2030
6.583364201, 96.390, 3382.0, 58.1550
6.609624767, 96.390, 3411.0, 58.4038
6.635885332, 96.390, 3432.0, 58.5833
6.662145897, 96.390, 3527.0, 59.3886
6.688406463, 96.390, 3381.0, 58.1464
6.714667028, 96.390, 3380.0, 58.1378
6.740927593, 96.390, 3481.0, 59.0000
6.767188159, 96.390, 3557.0, 59.6406
6.793448724, 96.390, 3438.0, 58.6345
6.819709289, 96.390, 3534.0, 59.4475
6.845969855, 96.390, 3322.0, 57.6368
6.872230420, 96.390, 3361.0, 57.9741
6.898490986, 96.390, 3397.0, 58.2838
6.924751551, 96.390, 3248.0, 56.9912
6.951012116, 96.390, 3361.0, 57.9741
6.977272682, 96.390, 3310.0, 57.5326
7.003533247, 96.390, 3500.0, 59.1608
7.029793812, 96.390, 3469.0, 58.8982
7.056054378, 96.390, 3417.0, 58.4551
7.082314943, 96.390, 3412.0, 58.4123
7.108575508, 96.390, 3355.0, 57.9224
7.134836074, 96.390, 3366.0, 58.0172
7.161096639, 96.390, 3335.0, 57.7495
7.187357204, 96.390, 3372.0, 58.0689
7.213617770, 96.390, 3301.0, 57.4543
7.239878335, 96.390, 3510.0, 59.2453
7.266138900, 96.390, 3482.0, 59.0085
7.292399466, 96.390, 3228.0, 56.8155
7.318660031, 96.390, 3414.0, 58.4294
7.344920597, 96.390, 3346.0, 57.8446
7.371181162, 96.390, 3453.0, 58.7622
7.397441727, 96.390, 3368.0, 58.0345
7.423702293, 96.390, 3316.0, 57.5847
7.449962858, 96.390, 3415.0, 58.4380
7.476223423, 96.390, 3441.0, 58.6600
7.502483989, 96.390, 3407.0, 58.3695
7.528744554, 96.390, 3324.0, 57.6541
7.555005119, 96.390, 3407.0, 58.3695
7.581265685, 96.390, 3300.0, 57.4456
7.607526250, 96.390, 3405.0, 58.3524
7.633786815, 96.390, 3406.0, 58.3609
7.660047381, 96.390, 3395.0, 58.2666
7.686307946, 96.390, 3400.0, 58.3095
7.712568512, 96.390, 3362.0, 57.9828
7.738829077, 96.390, 3418.0, 58.4637
7.765089642, 96.390, 3390.0, 58.2237
7.791350208, 96.390, 3301.0, 57.4543
7.817610773, 96.390, 3366.0, 58.0172
7.843871338, 96.390, 3489.0, 59.0678
7.870131904, 96.390, 3360.0, 57.9655
7.896392469, 96.390, 3317.0, 57.5934
7.922653034, 96.390, 3404.0, 58.3438
7.948913600, 96.390, 3435.0, 58.6089
7.975174165, 96.390, 3373.0, 58.0775
8.001434730, 96.390, 3385.0, 58.1808
8.027695296, 96.390, 3328.0, 57.6888
8.053955861, 96.390, 3373.0, 58.0775
8.080216426, 96.390, 3413.0, 58.4209
8.106476992, 96.390, 3392.0, 58.2409
8.132737557, 96.390, 3359.0, 57.9569
8.158998123, 96.390, 3469.0, 58.8982
8.185258688, 96.390, 3385.0, 58.1808
8.211519253, 96.390, 3332.0, 57.7235
8.237779819, 96.390, 3310.0, 57.5326
8.264040384, 96.390, 3338.0, 57.7754
8.290300949, 96.390, 3443.0, 58.6771
8.316561515, 96.390, 3395.0, 58.2666
8.342822080, 96.390, 3298.0, 57.4282
8.369082645, 96.390, 3192.0, 56.4978
8.395343211, 96.390, 3293.0, 57.3847
8.421603776, 96.390, 3264.0, 57.1314
8.447864341, 96.390, 3338.0, 57.7754
8.474124907, 96.390, 3290.0, 57.3585
8.500385472, 96.390, 3363.0, 57.9914
8.526646038, 96.390, 3336.0, 57.7581
8.552906603, 96.390, 3283.0, 57.2975
8.579167168, 96.390, 3337.0, 57.7668
8.605427734, 96.390, 3345.0, 57.8360
8.631688299, 96.390, 3335.0, 57.7495
8.657948864, 96.390, 3430.0, 58.5662
8.684209430, 96.390, 3221.0, 56.7539
8.710469995, 96.390, 3264.0, 57.1314
8.736730560, 96.390, 3227.0, 56.8067
8.762991126, 96.390, 3285.0, 57.3149
8.789251691, 96.390, 3270.0, 57.1839
8.815512256, 96.390, 3228.0, 56.8155
8.841772822, 96.390, 3221.0, 56.7539
8.868033387, 96.390, 3374.0, 58.0861
8.894293952, 96.390, 3251.0, 57.0175
8.920554518, 96.390, 3242.0, 56.9386
8.946815083, 96.390, 3374.0, 58.0861
8.973075649, 96.390, 3172.0, 56.3205
8.999336214, 96.390, 3279.0, 57.2626
9.025596779, 96.390, 3182.0, 56.4092
9.051857345, 96.390, 3213.0, 56.6833
9.078117910, 96.390, 3200.0, 56.5685
9.104378475, 96.390, 3229.0, 56.8243
9.130639041, 96.390, 3169.0, 56.2939
9.156899606, 96.390, 3338.0, 57.7754
9.183160171, 96.390, 3251.0, 57.0175
9.209420737, 96.390, 3285.0, 57.3149
9.235681302, 96.390, 3331.0, 57.7148
9.261941867, 96.390, 3185.0, 56.4358
9.288202433, 96.390, 3180.0, 56.3915
9.314462998, 96.390, 3274.0, 57.2189
9.340723564, 96.390, 3367.0, 58.0259
9.366984129, 96.390, 3144.0, 56.0714
9.393244694, 96.390, 3196.0, 56.5332
9.419505260, 96.390, 3227.0, 56.8067
9.445765825, 96.390, 3257.0, 57.0701
9.472026390, 96.390, 3165.0, 56.2583
9.498286956, 96.390, 3261.0, 57.1052
9.524547521, 96.390, 3282.0, 57.2887
9.550808086, 96.390, 3046.0, 55.1906
9.577068652, 96.390, 3215.0, 56.7010
9.603329217, 96.390, 3157.0, 56.1872
9.629589782, 96.390, 3094.0, 55.6237
9.655850348, 96.390, 3182.0, 56.4092
9.682110913, 96.390, 3055.0, 55.2721
9.708371478, 96.390, 3110.0, 55.7674
9.734632044, 96.390, 3120.0, 55.8570
9.760892609, 96.390, 3223.0, 56.7715
9.787153175, 96.390, 3145.0, 56.0803
9.813413740, 96.390, 3123.0, 55.8838
9.839674305, 96.390, 3146.0, 56.0892
9.865934871, 96.390, 3028.0, 55.0273
9.892195436, 96.390, 3227.0, 56.8067
9.918456001, 96.390, 3092.0, 55.6058
9.944716567, 96.390, 3164.0, 56.2494
9.970977132, 96.390, 3158.0, 56.1961
9.997237697, 96.390, 3163.0, 56.2406
10.023498263, 96.390, 3213.0, 56.6833
10.049758828, 96.390, 3189.0, 56.4712
10.076019393, 96.390, 3120.0, 55.8570
10.102279959, 96.390, 3109.0, 55.7584
10.128540524, 96.390, 3107.0, 55.7405
10.154801090, 96.390, 3113.0, 55.7943
10.181061655, 96.390, 3100.0, 55.6776
10.207322220, 96.390, 3029.0, 55.0364
10.233582786, 96.390, 3077.0, 55.4707
10.259843351, 96.390, 3103.0, 55.7046
10.286103916, 96.390, 3023.0, 54.9818
10.312364482, 96.390, 3102.0, 55.6956
10.338625047, 96.390, 3051.0, 55.2359
10.364885612, 96.390, 3064.0, 55.3534
10.391146178, 96.390, 2972.0, 54.5161
10.417406743, 96.390, 3134.0, 55.9821
10.443667308, 96.390, 3171.0, 56.3116
10.469927874, 96.390, 3250.0, 57.0088
10.496188439, 96.390, 3061.0, 55.3263
10.522449004, 96.390, 3144.0, 56.0714
10.548709570, 96.390, 3116.0, 55.8211
10.574970135, 96.390, 3017.0, 54.9272
10.601230701, 96.390, 3075.0, 55.4527
10.627491266, 96.390, 2912.0, 53.9630
10.653751831, 96.390, 3028.0, 55.0273
10.680012397, 96.390, 2887.0, 53.7308
10.706272962, 96.390, 2966.0, 54.4610
10.732533527, 96.390, 2997.0, 54.7449
10.758794093, 96.390, 3156.0, 56.1783
10.785054658, 96.390, 3083.0, 55.5248
10.811315223, 96.390, 2891.0, 53.7680
10.837575789, 96.390, 2968.0, 54.4794
10.863836354, 96.390, 3073.0, 55.4346
10.890096919, 96.390, 3026.0, 55.0091
10.916357485, 96.390, 3054.0, 55.2630
10.942618050, 96.390, 3057.0, 55.2901
10.968878616, 96.390, 3016.0, 54.9181
10.995139181, 96.390, 3083.0, 55.5248
11.021399746, 96.390, 2968.0, 54.4794
11.047660312, 96.390, 3010.0, 54.8635
11.073920877, 96.390, 2947.0, 54.2863
11.100181442, 96.390, 3008.0, 54.8452
11.126442008, 96.390, 3020.0, 54.9545
11.152702573, 96.390, 2976.0, 54.5527
11.178963138, 96.390, 2971.0, 54.5069
11.205223704, 96.390, 2952.0, 54.3323
11.231484269, 96.390, 2925.0, 54.0833
11.257744834, 96.390, 2965.0, 54.4518
11.284005400, 96.390, 2868.0, 53.5537
11.310265965, 96.390, 2904.0, 53.8888
11.336526530, 96.390, 2879.0, 53.6563
11.362787096, 96.390, 2901.0, 53.8609
11.389047661, 96.390, 2874.0, 53.6097
11.415308227, 96.390, 2816.0, 53.0660
11.441568792, 96.390, 2853.0, 53.4135
11.467829357, 96.390, 2978.0, 54.5711
11.494089923, 96.390, 2969.0, 54.4885
11.520350488, 96.390, 2949.0, 54.3047
11.546611053, 96.390, 2878.0, 53.6470
11.572871619, 96.390, 2977.0, 54.5619
11.599132184, 96.390, 2796.0, 52.8772
11.625392749, 96.390, 2869.0, 53.5630
11.651653315, 96.390, 2830.0, 53.1977
11.677913880, 96.390, 2850.0, 53.3854
11.704174445, 96.390, 2878.0, 53.6470
11.730435011, 96.390, 2762.0, 52.5547
11.756695576, 96.390, 2787.0, 52.7920
11.782956141, 96.390, 2683.0, 51.7977
11.809216707, 96.390, 2793.0, 52.8488
11.835477272, 96.390, 2814.0, 53.0471
11.861737838, 96.390, 2869.0, 53.5630
11.887998403, 96.390, 2798.0, 52.8961
11.914258968, 96.390, 2783.0, 52.7541
11.940519534, 96.390, 2732.0, 52.2685
11.966780099, 96.390, 2768.0, 52.6118
11.993040664, 96.390, 2801.0, 52.9245
12.019301230, 96.390, 2768.0, 52.6118
12.045561795, 96.390, 2715.0, 52.1057
12.071822360, 96.390, 2719.0, 52.1440
12.098082926, 96.390, 2720.0, 52.1536
12.124343491, 96.390, 2740.0, 52.3450
12.150604056, 96.390, 2647.0, 51.4490
12.176864622, 96.390, 2666.0, 51.6333
12.203125187, 96.390, 2738.0, 52.3259
12.229385753, 96.390, 2664.0, 51.6140
12.255646318, 96.390, 2774.0, 52.6688
12.281906883, 96.390, 2688.0, 51.8459
12.308167449, 96.390, 2670.0, 51.6720
12.334428014, 96.390, 2642.0, 51.4004
12.360688579, 96.390, 2620.0, 51.1859
12.386949145, 96.390, 2562.0, 50.6162
12.413209710, 96.390, 2766.0, 52.5928
12.439470275, 96.390, 2685.0, 51.8170
12.465730841, 96.390, 2651.0, 51.4879
12.491991406, 96.390, 2657.0, 51.5461
12.518251971, 96.390, 2613.0, 51.1175
12.544512537, 96.390, 2684.0, 51.8073
12.570773102, 96.390, 2676.0, 51.7301
12.597033667, 96.390, 2641.0, 51.3907
12.623294233, 96.390, 2733.0, 52.2781
12.649554798, 96.390, 2671.0, 51.6817
12.675815364, 96.390, 2600.0, 50.9902
12.702075929, 96.390, 2592.0, 50.9117
12.728336494, 96.390, 2524.0, 50.2394
12.754597060, 96.390, 2545.0, 50.4480
12.780857625, 96.390, 2703.0, 51.9904
12.807118190, 96.390, 2488.0, 49.8799
12.833378756, 96.390, 2538.0, 50.3786
12.859639321, 96.390, 2624.0, 51.2250
12.885899886, 96.390, 2537.0, 50.3686
12.912160452, 96.390, 2449.0, 49.4874
12.938421017, 96.390, 2656.0, 51.5364
12.964681582, 96.390, 2664.0, 51.6140
12.990942148, 96.390, 2505.0, 50.0500
13.017202713, 96.390, 2483.0, 49.8297
13.043463279, 96.390, 2541.0, 50.4083
13.069723844, 96.390, 2500.0, 50.0000
13.095984409, 96.390, 2481.0, 49.8096
13.122244975, 96.390, 2503.0, 50.0300
13.148505540, 96.390, 2535.0, 50.3488
13.174766105, 96.390, 2568.0, 50.6754
13.201026671, 96.390, 2425.0, 49.2443
13.227287236, 96.390, 2569.0, 50.6853
13.253547801, 96.390, 2579.0, 50.7839
13.279808367, 96.390, 2484.0, 49.8397
13.306068932, 96.390, 2527.0, 50.2693
13.332329497, 96.390, 2500.0, 50.0000
13.358590063, 96.390, 2607.0, 51.0588
13.384850628, 96.390, 2480.0, 49.7996
13.411111193, 96.390, 2669.0, 51.6624
13.437371759, 96.390, 2679.0, 51.7591
13.463632324, 96.390, 2719.0, 52.1440
13.489892890, 96.390, 3010.0, 54.8635
13.516153455, 96.390, 2943.0, 54.2494
13.542414020, 96.390, 2681.0, 51.7784
13.568674586, 96.390, 2586.0, 50.8527
13.594935151, 96.390, 2363.0, 48.6107
13.621195716, 96.390, 2423.0, 49.2240
13.647456282, 96.390, 2393.0, 48.9183
13.673716847, 96.390, 2463.0, 49.6286
13.699977412, 96.390, 2484.0, 49.8397
13.726237978, 96.390, 2479.0, 49.7896
13.752498543, 96.390, 2487.0, 49.8698
13.778759108, 96.390, 2554.0, 50.5371
13.805019674, 96.390, 2629.0, 51.2738
13.831280239, 96.390, 2665.0, 51.6236
13.857540805, 96.390, 2621.0, 51.1957
13.883801370, 96.390, 2601.0, 51.0000
13.910061935, 96.390, 2686.0, 51.8266
13.936322501, 96.390, 2575.0, 50.7445
13.962583066, 96.390, 2505.0, 50.0500
13.988843631, 96.390, 2354.0, 48.5180
14.015104197, 96.390, 2427.0, 49.2646
14.041364762, 96.390, 2393.0, 48.9183
14.067625327, 96.390, 2419.0, 49.1833
14.093885893, 96.390, 2414.0, 49.1325
14.120146458, 96.390, 2510.0, 50.0999
14.146407023, 96.390, 2494.0, 49.9400
14.172667589, 96.390, 2680.0, 51.7687
14.198928154, 96.390, 2774.0, 52.6688
14.225188719, 96.390, 2889.0, 53.7494
14.251449285, 96.390, 3110.0, 55.7674
14.277709850, 96.390, 3143.0, 56.0625
14.303970416, 96.390, 2953.0, 54.3415
14.330230981, 96.390, 2705.0, 52.0096
14.356491546, 96.390, 2359.0, 48.5695
14.382752112, 96.390, 2397.0, 48.9592
14.409012677, 96.390, 2328.0, 48.2494
14.435273242, 96.390, 2361.0, 48.5901
14.461533808, 96.390, 2310.0, 48.0625
14.487794373, 96.390, 2433.0, 49.3254
14.514054938, 96.390, 2519.0, 50.1896
14.540315504, 96.390, 2600.0, 50.9902
14.566576069, 96.390, 2535.0, 50.3488
14.592836634, 96.390, 2365.0, 48.6313
14.619097200, 96.390, 2212.0, 47.0319
14.645357765, 96.390, 2228.0, 47.2017
14.671618331, 96.390, 2218.0, 47.0956
14.697878896, 96.390, 2251.0, 47.4447
14.724139461, 96.390, 2199.0, 46.8935
14.750400027, 96.390, 2161.0, 46.4866
14.776660592, 96.390, 2190.0, 46.7974
14.802921157, 96.390, 2252.0, 47.4552
14.829181723, 96.390, 2154.0, 46.4112
14.855442288, 96.390, 2292.0, 47.8748
14.881702853, 96.390, 2198.0, 46.8828
14.907963419, 96.390, 2251.0, 47.4447
14.934223984, 96.390, 2267.0, 47.6130
14.960484549, 96.390, 2231.0, 47.2335
14.986745115, 96.390, 2196.0, 46.8615
15.013005680, 96.390, 2208.0, 46.9894
15.039266245, 96.390, 2248.0, 47.4131
15.065526811, 96.390, 2270.0, 47.6445
15.091787376, 96.390, 2345.0, 48.4252
15.118047942, 96.390, 2352.0, 48.4974
15.144308507, 96.390, 2375.0, 48.7340
15.170569072, 96.390, 2547.0, 50.4678
15.196829638, 96.390, 2714.0, 52.0961
15.223090203, 96.390, 2880.0, 53.6656
15.249350768, 96.390, 2884.0, 53.7029
15.275611334, 96.390, 3109.0, 55.7584
15.301871899, 96.390, 2909.0, 53.9351
15.328132464, 96.390, 2537.0, 50.3686
15.354393030, 96.390, 2464.0, 49.6387
15.380653595, 96.390, 2300.0, 47.9583
15.406914160, 96.390, 2201.0, 46.9148
15.433174726, 96.390, 2191.0, 46.8081
15.459435291, 96.390, 2109.0, 45.9239
15.485695857, 96.390, 2159.0, 46.4650
15.511956422, 96.390, 2126.0, 46.1086
15.538216987, 96.390, 2144.0, 46.3033
15.564477553, 96.390, 1987.0, 44.5758
15.590738118, 96.390, 2114.0, 45.9783
15.616998683, 96.390, 2151.0, 46.3789
15.643259249, 96.390, 2096.0, 45.7821
15.669519814, 96.390, 2119.0, 46.0326
15.695780379, 96.390, 2050.0, 45.2769
15.722040945, 96.390, 2122.0, 46.0652
15.748301510, 96.390, 2090.0, 45.7165
15.774562075, 96.390, 2050.0, 45.2769
15.800822641, 96.390, 2096.0, 45.7821
15.827083206, 96.390, 2057.0, 45.3542
15.853343771, 96.390, 2049.0, 45.2659
15.879604337, 96.390, 2100.0, 45.8258
15.905864902, 96.390, 2080.0, 45.6070
15.932125468, 96.390, 2034.0, 45.0999
15.958386033, 96.390, 2067.0, 45.4643
15.984646598, 96.390, 2039.0, 45.1553
16.010907164, 96.390, 2023.0, 44.9778
16.037167729, 96.390, 2058.0, 45.3652
16.063428294, 96.390, 2023.0, 44.9778
16.089688860, 96.390, 2000.0, 44.7214
16.115949425, 96.390, 2056.0, 45.3431
16.142209990, 96.390, 2016.0, 44.8999
16.168470556, 96.390, 2071.0, 45.5082
16.194731121, 96.390, 2070.0, 45.4973
16.220991686, 96.390, 2091.0, 45.7275
16.247252252, 96.390, 2117.0, 46.0109
16.273512817, 96.390, 2076.0, 45.5631
16.299773382, 96.390, 2218.0, 47.0956
16.326033948, 96.390, 2260.0, 47.5395
16.352294513, 96.390, 2170.0, 46.5833
16.378555079, 96.390, 2100.0, 45.8258
16.404815644, 96.390, 1956.0, 44.2267
16.431076209, 96.390, 2008.0, 44.8107
16.457336775, 96.390, 1978.0, 44.4747
16.483597340, 96.390, 1964.0, 44.3170
16.509857905, 96.390, 2093.0, 45.7493
16.536118471, 96.390, 1912.0, 43.7264
16.562379036, 96.390, 1931.0, 43.9431
16.588639601, 96.390, 2004.0, 44.7661
16.614900167, 96.390, 1911.0, 43.7150
16.641160732, 96.390, 2047.0, 45.2438
16.667421297, 96.390, 1915.0, 43.7607
16.693681863, 96.390, 2020.0, 44.9444
16.719942428, 96.390, 2030.0, 45.0555
16.746202994, 96.390, 2017.0, 44.9110
16.772463559, 96.390, 1941.0, 44.0568
16.798724124, 96.390, 1994.0, 44.6542
16.824984690, 96.390, 2006.0, 44.7884
16.851245255, 96.390, 1973.0, 44.4185
16.877505820, 96.390, 1940.0, 44.0454
16.903766386, 96.390, 1887.0, 43.4396
16.930026951, 96.390, 1962.0, 44.2945
16.956287516, 96.390, 1982.0, 44.5197
16.982548082, 96.390, 2049.0, 45.2659
17.008808647, 96.390, 1917.0, 43.7836
17.035069212, 96.390, 1923.0, 43.8520
17.061329778, 96.390, 2013.0, 44.8665
17.087590343, 96.390, 1933.0, 43.9659
17.113850908, 96.390, 1860.0, 43.1277
17.140111474, 96.390, 1934.0, 43.9773
17.166372039, 96.390, 1912.0, 43.7264
17.192632605, 96.390, 1895.0, 43.5316
17.218893170, 96.390, 1936.0, 44.0000
17.245153735, 96.390, 1973.0, 44.4185
17.271414301, 96.390, 1993.0, 44.6430
17.297674866, 96.390, 1978.0, 44.4747
17.323935431, 96.390, 1992.0, 44.6318
17.350195997, 96.390, 1988.0, 44.5870
17.376456562, 96.390, 2032.0, 45.0777
17.402717127, 96.390, 2151.0, 46.3789
17.428977693, 96.390, 2004.0, 44.7661
17.455238258, 96.390, 2021.0, 44.9555
17.481498823, 96.390, 1897.0, 43.5546
17.507759389, 96.390, 1896.0, 43.5431
17.534019954, 96.390, 1838.0, 42.8719
17.560280520, 96.390, 1872.0, 43.2666
17.586541085, 96.390, 1909.0, 43.6921
17.612801650, 96.390, 1914.0, 43.7493
17.639062216, 96.390, 1877.0, 43.3244
17.665322781, 96.390, 1889.0, 43.4626
17.691583346, 96.390, 1822.0, 42.6849
17.717843912, 96.390, 1919.0, 43.8064
17.744104477, 96.390, 1931.0, 43.9431
17.770365042, 96.390, 1985.0, 44.5533
17.796625608, 96.390, 1876.0, 43.3128
17.822886173, 96.390, 1914.0, 43.7493
17.849146738, 96.390, 1928.0, 43.9090
17.875407304, 96.390, 1892.0, 43.4971
17.901667869, 96.390, 1846.0, 42.9651
17.927928434, 96.390, 1928.0, 43.9090
17.954189000, 96.390, 1916.0, 43.7721
17.980449565, 96.390, 1975.0, 44.4410
18.006710131, 96.390, 1869.0, 43.2319
18.032970696, 96.390, 1906.0, 43.6578
18.059231261, 96.390, 1929.0, 43.9204
18.085491827, 96.390, 1863.0, 43.1625
18.111752392, 96.390, 1969.0, 44.3734
18.138012957, 96.390, 1895.0, 43.5316
18.164273523, 96.390, 1941.0, 44.0568
18.190534088, 96.390, 1896.0, 43.5431
18.216794653, 96.390, 2032.0, 45.0777
18.243055219, 96.390, 1981.0, 44.5084
18.269315784, 96.390, 2020.0, 44.9444
18.295576349, 96.390, 2154.0, 46.4112
18.321836915, 96.390, 2076.0, 45.5631
18.348097480, 96.390, 2078.0, 45.5851
18.374358046, 96.390, 2193.0, 46.8295
18.400618611, 96.390, 2062.0, 45.4093
18.426879176, 96.390, 1999.0, 44.7102
18.453139742, 96.390, 2042.0, 45.1885
18.479400307, 96.390, 1976.0, 44.4522
18.505660872, 96.390, 1946.0, 44.1135
18.531921438, 96.390, 1947.0, 44.1248
18.558182003, 96.390, 1954.0, 44.2041
18.584442568, 96.390, 1891.0, 43.4856
18.610703134, 96.390, 1894.0, 43.5201
18.636963699, 96.390, 1923.0, 43.8520
18.663224264, 96.390, 1930.0, 43.9318
18.689484830, 96.390, 1977.0, 44.4635
18.715745395, 96.390, 1948.0, 44.1362
18.742005960, 96.390, 1991.0, 44.6206
18.768266526, 96.390, 1938.0, 44.0227
18.794527091, 96.390, 2007.0, 44.7996
18.820787657, 96.390, 1998.0, 44.6990
18.847048222, 96.390, 2109.0, 45.9239
18.873308787, 96.390, 2167.0, 46.5510
18.899569353, 96.390, 2142.0, 46.2817
18.925829918, 96.390, 2152.0, 46.3897
18.952090483, 96.390, 2209.0, 47.0000
18.978351049, 96.390, 2240.0, 47.3286
19.004611614, 96.390, 2142.0, 46.2817
19.030872179, 96.390, 2157.0, 46.4435
19.057132745, 96.390, 1970.0, 44.3847
19.083393310, 96.390, 2038.0, 45.1442
19.109653875, 96.390, 2013.0, 44.8665
19.135914441, 96.390, 2064.0, 45.4313
19.162175006, 96.390, 1929.0, 43.9204
19.188435572, 96.390, 2033.0, 45.0888
19.214696137, 96.390, 2007.0, 44.7996
19.240956702, 96.390, 1978.0, 44.4747
19.267217268, 96.390, 1986.0, 44.5646
19.293477833, 96.390, 2107.0, 45.9021
19.319738398, 96.390, 2064.0, 45.4313
19.345998964, 96.390, 2183.0, 46.7226
19.372259529, 96.390, 2327.0, 48.2390
19.398520094, 96.390, 2404.0, 49.0306
19.424780660, 96.390, 2408.0, 49.0714
19.451041225, 96.390, 2474.0, 49.7393
19.477301790, 96.390, 2369.0, 48.6724
19.503562356, 96.390, 2339.0, 48.3632
19.529822921, 96.390, 2156.0, 46.4327
19.556083486, 96.390, 2081.0, 45.6180
19.582344052, 96.390, 2001.0, 44.7325
19.608604617, 96.390, 2070.0, 45.4973
19.634865183, 96.390, 2061.0, 45.3982
19.661125748, 96.390, 2176.0, 46.6476
19.687386313, 96.390, 2209.0, 47.0000
19.713646879, 96.390, 2241.0, 47.3392
19.739907444, 96.390, 2376.0, 48.7442
19.766168009, 96.390, 2441.0, 49.4065
19.792428575, 96.390, 2587.0, 50.8626
19.818689140, 96.390, 2706.0, 52.0192
19.844949705, 96.390, 2550.0, 50.4975
19.871210271, 96.390, 2693.0, 51.8941
19.897470836, 96.390, 2771.0, 52.6403
19.923731401, 96.390, 3000.0, 54.7723
19.949991967, 96.390, 3430.0, 58.5662
19.976252532, 96.390, 3587.0, 59.8916
20.002513098, 96.390, 3307.0, 57.5065
20.028773663, 96.390, 2807.0, 52.9811
20.055034228, 96.390, 2502.0, 50.0200
20.081294794, 96.390, 2229.0, 47.2123
20.107555359, 96.390, 2081.0, 45.6180
20.133815924, 96.390, 2110.0, 45.9347
20.160076490, 96.390, 2107.0, 45.9021
20.186337055, 96.390, 2018.0, 44.9222
20.212597620, 96.390, 2080.0, 45.6070
20.238858186, 96.390, 1965.0, 44.3283
20.265118751, 96.390, 2096.0, 45.7821
20.291379316, 96.390, 2108.0, 45.9130
20.317639882, 96.390, 2194.0, 46.8402
20.343900447, 96.390, 2271.0, 47.6550
20.370161012, 96.390, 2336.0, 48.3322
20.396421578, 96.390, 2455.0, 49.5480
20.422682143, 96.390, 2621.0, 51.1957
20.448942709, 96.390, 2722.0, 52.1728
20.475203274, 96.390, 2613.0, 51.1175
20.501463839, 96.390, 2559.0, 50.5866
20.527724405, 96.390, 2668.0, 51.6527
20.553984970, 96.390, 2870.0, 53.5724
20.580245535, 96.390, 3080.0, 55.4977
20.606506101, 96.390, 3557.0, 59.6406
20.632766666, 96.390, 4191.0, 64.7379
20.659027231, 96.390, 5028.0, 70.9084
20.685287797, 96.390, 5906.0, 76.8505
20.711548362, 96.390, 6539.0, 80.8641
20.737808927, 96.390, 5701.0, 75.5050
20.764069493, 96.390, 4583.0, 67.6979
20.790330058, 96.390, 3724.0, 61.0246
20.816590623, 96.390, 2892.0, 53.7773
20.842851189, 96.390, 2436.0, 49.3559
20.869111754, 96.390, 2354.0, 48.5180
20.895372320, 96.390, 2256.0, 47.4974
20.921632885, 96.390, 2231.0, 47.2335
20.947893450, 96.390, 2282.0, 47.7703
20.974154016, 96.390, 2224.0, 47.1593
21.000414581, 96.390, 2218.0, 47.0956
21.026675146, 96.390, 2172.0, 46.6047
21.052935712, 96.390, 2156.0, 46.4327
21.079196277, 96.390, 2228.0, 47.2017
21.105456842, 96.390, 2142.0, 46.2817
21.131717408, 96.390, 2081.0, 45.6180
21.157977973, 96.390, 2187.0, 46.7654
21.184238538, 96.390, 2153.0, 46.4004
21.210499104, 96.390, 2190.0, 46.7974
21.236759669, 96.390, 2153.0, 46.4004
21.263020235, 96.390, 2213.0, 47.0425
21.289280800, 96.390, 2350.0, 48.4768
21.315541365, 96.390, 2230.0, 47.2229
21.341801931, 96.390, 2272.0, 47.6655
21.368062496, 96.390, 2243.0, 47.3603
21.394323061, 96.390, 2179.0, 46.6798
21.420583627, 96.390, 2164.0, 46.5188
21.446844192, 96.390, 2170.0, 46.5833
21.473104757, 96.390, 2208.0, 46.9894
21.499365323, 96.390, 2170.0, 46.5833
21.525625888, 96.390, 2112.0, 45.9565
21.551886453, 96.390, 2168.0, 46.5618
21.578147019, 96.390, 2237.0, 47.2969
21.604407584, 96.390, 2333.0, 48.3011
21.630668149, 96.390, 2341.0, 48.3839
21.656928715, 96.390, 2329.0, 48.2597
21.683189280, 96.390, 2298.0, 47.9375
21.709449846, 96.390, 2405.0, 49.0408
21.735710411, 96.390, 2238.0, 47.3075
21.761970976, 96.390, 2314.0, 48.1041
21.788231542, 96.390, 2192.0, 46.8188
21.814492107, 96.390, 2342.0, 48.3942
21.840752672, 96.390, 2271.0, 47.6550
21.867013238, 96.390, 2209.0, 47.0000
21.893273803, 96.390, 2119.0, 46.0326
21.919534368, 96.390, 2166.0, 46.5403
21.945794934, 96.390, 2191.0, 46.8081
21.972055499, 96.390, 2255.0, 47.4868
21.998316064, 96.390, 2286.0, 47.8121
22.024576630, 96.390, 2202.0, 46.9255
22.050837195, 96.390, 2287.0, 47.8226
22.077097761, 96.390, 2149.0, 46.3573
22.103358326, 96.390, 2335.0, 48.3218
22.129618891, 96.390, 2263.0, 47.5710
22.155879457, 96.390, 2280.0, 47.7493
22.182140022, 96.390, 2224.0, 47.1593
22.208400587, 96.390, 2191.0, 46.8081
22.234661153, 96.390, 2233.0, 47.2546
22.260921718, 96.390, 2218.0, 47.0956
22.287182283, 96.390, 2286.0, 47.8121
22.313442849, 96.390, 2196.0, 46.8615
22.339703414, 96.390, 2299.0, 47.9479
22.365963979, 96.390, 2311.0, 48.0729
22.392224545, 96.390, 2327.0, 48.2390
22.418485110, 96.390, 2234.0, 47.2652
22.444745675, 96.390, 2325.0, 48.2183
22.471006241, 96.390, 2272.0, 47.6655
22.497266806, 96.390, 2279.0, 47.7389
22.523527372, 96.390, 2246.0, 47.3920
22.549787937, 96.390, 2361.0, 48.5901
22.576048502, 96.390, 2311.0, 48.0729
22.602309068, 96.390, 2273.0, 47.6760
22.628569633, 96.390, 2326.0, 48.2286
22.654830198, 96.390, 2311.0, 48.0729
22.681090764, 96.390, 2417.0, 49.1630
22.707351329, 96.390, 2364.0, 48.6210
22.733611894, 96.390, 2438.0, 49.3761
22.759872460, 96.390, 2335.0, 48.3218
22.786133025, 96.390, 2394.0, 48.9285
22.812393590, 96.390, 2464.0, 49.6387
22.838654156, 96.390, 2525.0, 50.2494
22.864914721, 96.390, 2518.0, 50.1797
22.891175287, 96.390, 2478.0, 49.7795
22.917435852, 96.390, 2571.0, 50.7050
22.943696417, 96.390, 2423.0, 49.2240
22.969956983, 96.390, 2450.0, 49.4975
22.996217548, 96.390, 2320.0, 48.1664
23.022478113, 96.390, 2359.0, 48.5695
23.048738679, 96.390, 2453.0, 49.5278
23.074999244, 96.390, 2326.0, 48.2286
23.101259809, 96.390, 2464.0, 49.6387
23.127520375, 96.390, 2421.0, 49.2037
23.153780940, 96.390, 2463.0, 49.6286
23.180041505, 96.390, 2599.0, 50.9804
23.206302071, 96.390, 2464.0, 49.6387
23.232562636, 96.390, 2430.0, 49.2950
23.258823201, 96.390, 2448.0, 49.4773
23.285083767, 96.390, 2412.0, 49.1121
23.311344332, 96.390, 2509.0, 50.0899
23.337604898, 96.390, 2478.0, 49.7795
23.363865463, 96.390, 2538.0, 50.3786
23.390126028, 96.390, 2481.0, 49.8096
23.416386594, 96.390, 2448.0, 49.4773
23.442647159, 96.390, 2448.0, 49.4773
23.468907724, 96.390, 2489.0, 49.8899
23.495168290, 96.390, 2545.0, 50.4480
23.521428855, 96.390, 2483.0, 49.8297
23.547689420, 96.390, 2502.0, 50.0200
23.573949986, 96.390, 2597.0, 50.9608
23.600210551, 96.390, 2426.0, 49.2544
23.626471116, 96.390, 2487.0, 49.8698
23.652731682, 96.390, 2461.0, 49.6085
23.678992247, 96.390, 2337.0, 48.3425
23.705252813, 96.390, 2270.0, 47.6445
23.731513378, 96.390, 2348.0, 48.4562
23.757773943, 96.390, 2328.0, 48.2494
23.784034509, 96.390, 2318.0, 48.1456
23.810295074, 96.390, 2375.0, 48.7340
23.836555639, 96.390, 2316.0, 48.1248
23.862816205, 96.390, 2326.0, 48.2286
23.889076770, 96.390, 2381.0, 48.7955
23.915337335, 96.390, 2317.0, 48.1352
23.941597901, 96.390, 2341.0, 48.3839
23.967858466, 96.390, 2363.0, 48.6107
23.994119031, 96.390, 2348.0, 48.4562
24.020379597, 96.390, 2376.0, 48.7442
24.046640162, 96.390, 2372.0, 48.7032
24.072900727, 96.390, 2472.0, 49.7192
24.099161293, 96.390, 2444.0, 49.4368
24.125421858, 96.390, 2642.0, 51.4004
24.151682424, 96.390, 2747.0, 52.4118
24.177942989, 96.390, 2744.0, 52.3832
24.204203554, 96.390, 2759.0, 52.5262
24.230464120, 96.390, 2613.0, 51.1175
24.256724685, 96.390, 2598.0, 50.9706
24.282985250, 96.390, 2500.0, 50.0000
24.309245816, 96.390, 2427.0, 49.2646
24.335506381, 96.390, 2370.0, 48.6826
24.361766946, 96.390, 2366.0, 48.6415
24.388027512, 96.390, 2328.0, 48.2494
24.414288077, 96.390, 2273.0, 47.6760
24.440548642, 96.390, 2249.0, 47.4236
24.466809208, 96.390, 2376.0, 48.7442
24.493069773, 96.390, 2326.0, 48.2286
24.519330338, 96.390, 2345.0, 48.4252
24.545590904, 96.390, 2307.0, 48.0312
24.571851469, 96.390, 2412.0, 49.1121
24.598112035, 96.390, 2384.0, 48.8262
24.624372600, 96.390, 2372.0, 48.7032
24.650633165, 96.390, 2275.0, 47.6970
24.676893731, 96.390, 2254.0, 47.4763
24.703154296, 96.390, 2376.0, 48.7442
24.729414861, 96.390, 2329.0, 48.2597
24.755675427, 96.390, 2388.0, 48.8672
24.781935992, 96.390, 2341.0, 48.3839
24.808196557, 96.390, 2297.0, 47.9270
24.834457123, 96.390, 2254.0, 47.4763
24.860717688, 96.390, 2321.0, 48.1768
24.886978253, 96.390, 2268.0, 47.6235
24.913238819, 96.390, 2312.0, 48.0833
24.939499384, 96.390, 2259.0, 47.5289
24.965759950, 96.390, 2231.0, 47.2335
24.992020515, 96.390, 2357.0, 48.5489
25.018281080, 96.390, 2364.0, 48.6210
25.044541646, 96.390, 2190.0, 46.7974
25.070802211, 96.390, 2262.0, 47.5605
25.097062776, 96.390, 2247.0, 47.4025
25.123323342, 96.390, 2320.0, 48.1664
25.149583907, 96.390, 2217.0, 47.0850
25.175844472, 96.390, 2346.0, 48.4355
25.202105038, 96.390, 2391.0, 48.8979
25.228365603, 96.390, 2352.0, 48.4974
25.254626168, 96.390, 2292.0, 47.8748
25.280886734, 96.390, 2368.0, 48.6621
25.307147299, 96.390, 2416.0, 49.1528
25.333407864, 96.390, 2546.0, 50.4579
25.359668430, 96.390, 2641.0, 51.3907
25.385928995, 96.390, 2926.0, 54.0925
25.412189561, 96.390, 3078.0, 55.4797
25.438450126, 96.390, 3245.0, 56.9649
25.464710691, 96.390, 3026.0, 55.0091
25.490971257, 96.390, 2916.0, 54.0000
25.517231822, 96.390, 2711.0, 52.0673
25.543492387, 96.390, 2706.0, 52.0192
25.569752953, 96.390, 2443.0, 49.4267
25.596013518, 96.390, 2355.0, 48.5283
25.622274083, 96.390, 2331.0, 48.2804
25.648534649, 96.390, 2351.0, 48.4871
25.674795214, 96.390, 2384.0, 48.8262
25.701055779, 96.390, 2317.0, 48.1352
25.727316345, 96.390, 2362.0, 48.6004
25.753576910, 96.390, 2369.0, 48.6724
25.779837476, 96.390, 2366.0, 48.6415
25.806098041, 96.390, 2336.0, 48.3322
25.832358606, 96.390, 2402.0, 49.0102
25.858619172, 96.390, 2389.0, 48.8774
25.884879737, 96.390, 2432.0, 49.3153
25.911140302, 96.390, 2349.0, 48.4665
25.937400868, 96.390, 2399.0, 48.9796
25.963661433, 96.390, 2363.0, 48.6107
25.989921998, 96.390, 2310.0, 48.0625
26.016182564, 96.390, 2391.0, 48.8979
26.042443129, 96.390, 2316.0, 48.1248
26.068703694, 96.390, 2369.0, 48.6724
26.094964260, 96.390, 2283.0, 47.7807
26.121224825, 96.390, 2308.0, 48.0416
26.147485390, 96.390, 2377.0, 48.7545
26.173745956, 96.390, 2307.0, 48.0312
26.200006521, 96.390, 2343.0, 48.4045
26.226267087, 96.390, 2330.0, 48.2701
26.252527652, 96.390, 2354.0, 48.5180
26.278788217, 96.390, 2338.0, 48.3529
26.305048783, 96.390, 2349.0, 48.4665
26.331309348, 96.390, 2425.0, 49.2443
26.357569913, 96.390, 2363.0, 48.6107
26.383830479, 96.390, 2363.0, 48.6107
26.410091044, 96.390, 2396.0, 48.9490
26.436351609, 96.390, 2419.0, 49.1833
26.462612175, 96.390, 2418.0, 49.1732
26.488872740, 96.390, 2351.0, 48.4871
26.515133305, 96.390, 2316.0, 48.1248
26.541393871, 96.390, 2270.0, 47.6445
26.567654436, 96.390, 2357.0, 48.5489
26.593915002, 96.390, 2361.0, 48.5901
26.620175567, 96.390, 2368.0, 48.6621
26.646436132, 96.390, 2421.0, 49.2037
26.672696698, 96.390, 2427.0, 49.2646
26.698957263, 96.390, 2410.0, 49.0918
26.725217828, 96.390, 2544.0, 50.4381
26.751478394, 96.390, 2487.0, 49.8698
26.777738959, 96.390, 2567.0, 50.6656
26.803999524, 96.390, 2549.0, 50.4876
26.830260090, 96.390, 2588.0, 50.8724
26.856520655, 96.390, 2487.0, 49.8698
26.882781220, 96.390, 2536.0, 50.3587
26.909041786, 96.390, 2572.0, 50.7149
26.935302351, 96.390, 2512.0, 50.1199
26.961562916, 96.390, 2586.0, 50.8527
26.987823482, 96.390, 2614.0, 51.1273
27.014084047, 96.390, 2599.0, 50.9804
27.040344613, 96.390, 2683.0, 51.7977
27.066605178, 96.390, 2818.0, 53.0848
27.092865743, 96.390, 2885.0, 53.7122
27.119126309, 96.390, 3215.0, 56.7010
27.145386874, 96.390, 3365.0, 58.0086
27.171647439, 96.390, 3550.0, 59.5819
27.197908005, 96.390, 3708.0, 60.8933
27.224168570, 96.390, 3533.0, 59.4390
27.250429135, 96.390, 3220.0, 56.7450
27.276689701, 96.390, 2927.0, 54.1018
27.302950266, 96.390, 2764.0, 52.5738
27.329210831, 96.390, 2609.0, 51.0784
27.355471397, 96.390, 2511.0, 50.1099
27.381731962, 96.390, 2593.0, 50.9215
27.407992528, 96.390, 2484.0, 49.8397
27.434253093, 96.390, 2409.0, 49.0816
27.460513658, 96.390, 2424.0, 49.2341
27.486774224, 96.390, 2358.0, 48.5592
27.513034789, 96.390, 2400.0, 48.9898
27.539295354, 96.390, 2460.0, 49.5984
27.565555920, 96.390, 2404.0, 49.0306
27.591816485, 96.390, 2478.0, 49.7795
27.618077050, 96.390, 2402.0, 49.0102
27.644337616, 96.390, 2318.0, 48.1456
27.670598181, 96.390, 2462.0, 49.6185
27.696858746, 96.390, 2362.0, 48.6004
27.723119312, 96.390, 2428.0, 49.2747
27.749379877, 96.390, 2430.0, 49.2950
27.775640442, 96.390, 2350.0, 48.4768
27.801901008, 96.390, 2482.0, 49.8197
27.828161573, 96.390, 2440.0, 49.3964
27.854422139, 96.390, 2367.0, 48.6518
27.880682704, 96.390, 2411.0, 49.1019
27.906943269, 96.390, 2355.0, 48.5283
27.933203835, 96.390, 2428.0, 49.2747
27.959464400, 96.390, 2421.0, 49.2037
27.985724965, 96.390, 2442.0, 49.4166
28.011985531, 96.390, 2430.0, 49.2950
28.038246096, 96.390, 2413.0, 49.1223
28.064506661, 96.390, 2460.0, 49.5984
28.090767227, 96.390, 2433.0, 49.3254
28.117027792, 96.390, 2400.0, 48.9898
28.143288357, 96.390, 2386.0, 48.8467
28.169548923, 96.390, 2400.0, 48.9898
28.195809488, 96.390, 2400.0, 48.9898
28.222070054, 96.390, 2446.0, 49.4571
28.248330619, 96.390, 2350.0, 48.4768
28.274591184, 96.390, 2373.0, 48.7134
28.300851750, 96.390, 2344.0, 48.4149
28.327112315, 96.390, 2416.0, 49.1528
28.353372880, 96.390, 2435.0, 49.3457
28.379633446, 96.390, 2461.0, 49.6085
28.405894011, 96.390, 2384.0, 48.8262
28.432154576, 96.390, 2285.0, 47.8017
28.458415142, 96.390, 2335.0, 48.3218
28.484675707, 96.390, 2307.0, 48.0312
28.510936272, 96.390, 2294.0, 47.8957
28.537196838, 96.390, 2321.0, 48.1768
28.563457403, 96.390, 2278.0, 47.7284
28.589717968, 96.390, 2381.0, 48.7955
28.615978534, 96.390, 2373.0, 48.7134
28.642239099, 96.390, 2361.0, 48.5901
28.668499665, 96.390, 2368.0, 48.6621
28.694760230, 96.390, 2423.0, 49.2240
28.721020795, 96.390, 2464.0, 49.6387
28.747281361, 96.390, 2614.0, 51.1273
28.773541926, 96.390, 2602.0, 51.0098
28.799802491, 96.390, 2458.0, 49.5782
28.826063057, 96.390, 2403.0, 49.0204
28.852323622, 96.390, 2392.0, 48.9081
28.878584187, 96.390, 2352.0, 48.4974
28.904844753, 96.390, 2324.0, 48.2079
28.931105318, 96.390, 2372.0, 48.7032
28.957365883, 96.390, 2280.0, 47.7493
28.983626449, 96.390, 2437.0, 49.3660
29.009887014, 96.390, 2425.0, 49.2443
29.036147579, 96.390, 2474.0, 49.7393
29.062408145, 96.390, 2613.0, 51.1175
29.088668710, 96.390, 2597.0, 50.9608
29.114929276, 96.390, 2736.0, 52.3068
29.141189841, 96.390, 2648.0, 51.4587
29.167450406, 96.390, 2689.0, 51.8556
29.193710972, 96.390, 2602.0, 51.0098
29.219971537, 96.390, 2597.0, 50.9608
29.246232102, 96.390, 2482.0, 49.8197
29.272492668, 96.390, 2550.0, 50.4975
29.298753233, 96.390, 2456.0, 49.5580
29.325013798, 96.390, 2443.0, 49.4267
29.351274364, 96.390, 2448.0, 49.4773
29.377534929, 96.390, 2469.0, 49.6890
29.403795494, 96.390, 2425.0, 49.2443
29.430056060, 96.390, 2410.0, 49.0918
29.456316625, 96.390, 2373.0, 48.7134
29.482577191, 96.390, 2411.0, 49.1019
29.508837756, 96.390, 2409.0, 49.0816
29.535098321, 96.390, 2404.0, 49.0306
29.561358887, 96.390, 2381.0, 48.7955
29.587619452, 96.390, 2315.0, 48.1144
29.613880017, 96.390, 2256.0, 47.4974
29.640140583, 96.390, 2252.0, 47.4552
29.666401148, 96.390, 2264.0, 47.5815
29.692661713, 96.390, 2245.0, 47.3814
29.718922279, 96.390, 2187.0, 46.7654
29.745182844, 96.390, 2278.0, 47.7284
29.771443409, 96.390, 2203.0, 46.9361
29.797703975, 96.390, 2073.0, 45.5302
29.823964540, 96.390, 2155.0, 46.4220
29.850225105, 96.390, 2190.0, 46.7974
29.876485671, 96.390, 2173.0, 46.6154
29.902746236, 96.390, 2227.0, 47.1911
29.929006802, 96.390, 2133.0, 46.1844
29.955267367, 96.390, 2156.0, 46.4327
29.981527932, 96.390, 2193.0, 46.8295
30.007788498, 96.390, 2211.0, 47.0213
30.034049063, 96.390, 2089.0, 45.7056
30.060309628, 96.390, 2068.0, 45.4753
30.086570194, 96.390, 2103.0, 45.8585
30.112830759, 96.390, 2072.0, 45.5192
30.139091324, 96.390, 2106.0, 45.8912
30.165351890, 96.390, 2167.0, 46.5510
30.191612455, 96.390, 2080.0, 45.6070
30.217873020, 96.390, 2090.0, 45.7165
30.244133586, 96.390, 2012.0, 44.8553
30.270394151, 96.390, 2123.0, 46.0760
30.296654717, 96.390, 2038.0, 45.1442
30.322915282, 96.390, 2033.0, 45.0888
30.349175847, 96.390, 2135.0, 46.2061
30.375436413, 96.390, 2068.0, 45.4753
30.401696978, 96.390, 2091.0, 45.7275
30.427957543, 96.390, 2199.0, 46.8935
30.454218109, 96.390, 2216.0, 47.0744
30.480478674, 96.390, 2164.0, 46.5188
30.506739239, 96.390, 2334.0, 48.3115
30.532999805, 96.390, 2289.0, 47.8435
30.559260370, 96.390, 2264.0, 47.5815
30.585520935, 96.390, 2295.0, 47.9062
30.611781501, 96.390, 2423.0, 49.2240
30.638042066, 96.390, 2463.0, 49.6286
30.664302631, 96.390, 2537.0, 50.3686
30.690563197, 96.390, 2501.0, 50.0100
30.716823762, 96.390, 2588.0, 50.8724
30.743084328, 96.390, 2471.0, 49.7092
30.769344893, 96.390, 2457.0, 49.5681
30.795605458, 96.390, 2480.0, 49.7996
30.821866024, 96.390, 2522.0, 50.2195
30.848126589, 96.390, 2366.0, 48.6415
30.874387154, 96.390, 2293.0, 47.8853
30.900647720, 96.390, 2167.0, 46.5510
30.926908285, 96.390, 2197.0, 46.8722
30.953168850, 96.390, 2084.0, 45.6508
30.979429416, 96.390, 2058.0, 45.3652
31.005689981, 96.390, 2073.0, 45.5302
31.031950546, 96.390, 2077.0, 45.5741
31.058211112, 96.390, 2067.0, 45.4643
31.084471677, 96.390, 2181.0, 46.7012
31.110732243, 96.390, 2285.0, 47.8017
31.136992808, 96.390, 2457.0, 49.5681
31.163253373, 96.390, 2627.0, 51.2543
31.189513939, 96.390, 2787.0, 52.7920
31.215774504, 96.390, 2963.0, 54.4334
31.242035069, 96.390, 3019.0, 54.9454
31.268295635, 96.390, 2765.0, 52.5833
31.294556200, 96.390, 2686.0, 51.8266
31.320816765, 96.390, 2508.0, 50.0799
31.347077331, 96.390, 2337.0, 48.3425
31.373337896, 96.390, 2287.0, 47.8226
31.399598461, 96.390, 2183.0, 46.7226
31.425859027, 96.390, 2244.0, 47.3709
31.452119592, 96.390, 2183.0, 46.7226
31.478380157, 96.390, 2222.0, 47.1381
31.504640723, 96.390, 2268.0, 47.6235
31.530901288, 96.390, 2307.0, 48.0312
31.557161854, 96.390, 2335.0, 48.3218
31.583422419, 96.390, 2222.0, 47.1381
31.609682984, 96.390, 2270.0, 47.6445
31.635943550, 96.390, 2317.0, 48.1352
31.662204115, 96.390, 2327.0, 48.2390
31.688464680, 96.390, 2328.0, 48.2494
31.714725246, 96.390, 2272.0, 47.6655
31.740985811, 96.390, 2205.0, 46.9574
31.767246376, 96.390, 2160.0, 46.4758
31.793506942, 96.390, 2237.0, 47.2969
31.819767507, 96.390, 2134.0, 46.1952
31.846028072, 96.390, 2006.0, 44.7884
31.872288638, 96.390, 2190.0, 46.7974
31.898549203, 96.390, 2229.0, 47.2123
31.924809769, 96.390, 2572.0, 50.7149
31.951070334, 96.390, 2856.0, 53.4416
31.977330899, 96.390, 3300.0, 57.4456
32.003591465, 96.390, 4130.0, 64.2651
32.029852030, 96.390, 4767.0, 69.0435
32.056112595, 96.390, 5196.0, 72.0833
32.082373161, 96.390, 5048.0, 71.0493
32.108633726, 96.390, 4345.0, 65.9166
32.134894291, 96.390, 3862.0, 62.1450
32.161154857, 96.390, 3396.0, 58.2752
32.187415422, 96.390, 2871.0, 53.5817
32.213675987, 96.390, 2426.0, 49.2544
32.239936553, 96.390, 2211.0, 47.0213
32.266197118, 96.390, 2195.0, 46.8508
32.292457683, 96.390, 2018.0, 44.9222
32.318718249, 96.390, 1963.0, 44.3058
32.344978814, 96.390, 2020.0, 44.9444
32.371239380, 96.390, 1893.0, 43.5086
32.397499945, 96.390, 1795.0, 42.3674
32.423760510, 96.390, 1817.0, 42.6263
32.450021076, 96.390, 1717.0, 41.4367
32.476281641, 96.390, 1789.0, 42.2966
32.502542206, 96.390, 1733.0, 41.6293
32.528802772, 96.390, 1728.0, 41.5692
32.555063337, 96.390, 1717.0, 41.4367
32.581323902, 96.390, 1801.0, 42.4382
32.607584468, 96.390, 1840.0, 42.8952
32.633845033, 96.390, 1835.0, 42.8369
32.660105598, 96.390, 1834.0, 42.8252
32.686366164, 96.390, 1887.0, 43.4396
32.712626729, 96.390, 1837.0, 42.8602
32.738887295, 96.390, 1860.0, 43.1277
32.765147860, 96.390, 1761.0, 41.9643
32.791408425, 96.390, 1794.0, 42.3556
32.817668991, 96.390, 1703.0, 41.2674
32.843929556, 96.390, 1767.0, 42.0357
32.870190121, 96.390, 1795.0, 42.3674
32.896450687, 96.390, 1736.0, 41.6653
32.922711252, 96.390, 1779.0, 42.1782
32.948971817, 96.390, 1801.0, 42.4382
32.975232383, 96.390, 1868.0, 43.2204
33.001492948, 96.390, 1884.0, 43.4051
33.027753513, 96.390, 1876.0, 43.3128
33.054014079, 96.390, 1869.0, 43.2319
33.080274644, 96.390, 1884.0, 43.4051
33.106535209, 96.390, 1906.0, 43.6578
33.132795775, 96.390, 1862.0, 43.1509
33.159056340, 96.390, 1962.0, 44.2945
33.185316906, 96.390, 1874.0, 43.2897
33.211577471, 96.390, 1860.0, 43.1277
33.237838036, 96.390, 1923.0, 43.8520
33.264098602, 96.390, 1952.0, 44.1814
33.290359167, 96.390, 1884.0, 43.4051
33.316619732, 96.390, 1839.0, 42.8836
33.342880298, 96.390, 1819.0, 42.6497
33.369140863, 96.390, 1854.0, 43.0581
33.395401428, 96.390, 1858.0, 43.1045
33.421661994, 96.390, 2083.0, 45.6399
33.447922559, 96.390, 1894.0, 43.5201
33.474183124, 96.390, 2003.0, 44.7549
33.500443690, 96.390, 1825.0, 42.7200
33.526704255, 96.390, 1804.0, 42.4735
33.552964820, 96.390, 1743.0, 41.7493
33.579225386, 96.390, 1691.0, 41.1218
33.605485951, 96.390, 1626.0, 40.3237
33.631746517, 96.390, 1716.0, 41.4246
33.658007082, 96.390, 1625.0, 40.3113
33.684267647, 96.390, 1768.0, 42.0476
33.710528213, 96.390, 1738.0, 41.6893
33.736788778, 96.390, 1714.0, 41.4005
33.763049343, 96.390, 1693.0, 41.1461
33.789309909, 96.390, 1739.0, 41.7013
33.815570474, 96.390, 1837.0, 42.8602
33.841831039, 96.390, 1888.0, 43.4511
33.868091605, 96.390, 2071.0, 45.5082
33.894352170, 96.390, 2402.0, 49.0102
33.920612735, 96.390, 2557.0, 50.5668
33.946873301, 96.390, 2798.0, 52.8961
33.973133866, 96.390, 2804.0, 52.9528
33.999394432, 96.390, 2612.0, 51.1077
34.025654997, 96.390, 2455.0, 49.5480
34.051915562, 96.390, 2480.0, 49.7996
34.078176128, 96.390, 2207.0, 46.9787
34.104436693, 96.390, 1957.0, 44.2380
34.130697258, 96.390, 1944.0, 44.0908
34.156957824, 96.390, 1913.0, 43.7379
34.183218389, 96.390, 1897.0, 43.5546
34.209478954, 96.390, 1811.0, 42.5558
34.235739520, 96.390, 1876.0, 43.3128
34.262000085, 96.390, 1862.0, 43.1509
34.288260650, 96.390, 1816.0, 42.6146
34.314521216, 96.390, 1960.0, 44.2719
34.340781781, 96.390, 1947.0, 44.1248
34.367042346, 96.390, 1900.0, 43.5890
34.393302912, 96.390, 1980.0, 44.4972
34.419563477, 96.390, 2058.0, 45.3652
34.445824043, 96.390, 2115.0, 45.9891
34.472084608, 96.390, 2194.0, 46.8402
34.498345173, 96.390, 2163.0, 46.5081
34.524605739, 96.390, 2116.0, 46.0000
34.550866304, 96.390, 2183.0, 46.7226
34.577126869, 96.390, 2226.0, 47.1805
34.603387435, 96.390, 2160.0, 46.4758
34.629648000, 96.390, 2077.0, 45.5741
34.655908565, 96.390, 2025.0, 45.0000
34.682169131, 96.390, 1924.0, 43.8634
34.708429696, 96.390, 1996.0, 44.6766
34.734690261, 96.390, 1918.0, 43.7950
34.760950827, 96.390, 1934.0, 43.9773
34.787211392, 96.390, 2031.0, 45.0666
34.813471958, 96.390, 2011.0, 44.8442
34.839732523, 96.390, 2248.0, 47.4131
34.865993088, 96.390, 2377.0, 48.7545
34.892253654, 96.390, 2728.0, 52.2303
34.918514219, 96.390, 2791.0, 52.8299
34.944774784, 96.390, 2840.0, 53.2917
34.971035350, 96.390, 2779.0, 52.7162
34.997295915, 96.390, 2494.0, 49.9400
35.023556480, 96.390, 2404.0, 49.0306
35.049817046, 96.390, 2340.0, 48.3735
35.076077611, 96.390, 2136.0, 46.2169
35.102338176, 96.390, 1952.0, 44.1814
35.128598742, 96.390, 1894.0, 43.5201
35.154859307, 96.390, 1826.0, 42.7317
35.181119872, 96.390, 1889.0, 43.4626
35.207380438, 96.390, 1943.0, 44.0795
35.233641003, 96.390, 1821.0, 42.6732
35.259901569, 96.390, 1789.0, 42.2966
35.286162134, 96.390, 1754.0, 41.8808
35.312422699, 96.390, 1801.0, 42.4382
35.338683265, 96.390, 1626.0, 40.3237
35.364943830, 96.390, 1663.0, 40.7799
35.391204395, 96.390, 1680.0, 40.9878
35.417464961, 96.390, 1544.0, 39.2938
35.443725526, 96.390, 1645.0, 40.5586
35.469986091, 96.390, 1612.0, 40.1497
35.496246657, 96.390, 1568.0, 39.5980
35.522507222, 96.390, 1603.0, 40.0375
35.548767787, 96.390, 1594.0, 39.9249
35.575028353, 96.390, 1636.0, 40.4475
35.601288918, 96.390, 1642.0, 40.5216
35.627549484, 96.390, 1725.0, 41.5331
35.653810049, 96.390, 1667.0, 40.8289
35.680070614, 96.390, 1625.0, 40.3113
35.706331180, 96.390, 1723.0, 41.5090
35.732591745, 96.390, 1601.0, 40.0125
35.758852310, 96.390, 1614.0, 40.1746
35.785112876, 96.390, 1711.0, 41.3642
35.811373441, 96.390, 1652.0, 40.6448
35.837634006, 96.390, 1628.0, 40.3485
35.863894572, 96.390, 1632.0, 40.3980
35.890155137, 96.390, 1646.0, 40.5709
35.916415702, 96.390, 1607.0, 40.0874
35.942676268, 96.390, 1726.0, 41.5452
35.968936833, 96.390, 1702.0, 41.2553
35.995197398, 96.390, 1671.0, 40.8779
36.021457964, 96.390, 1723.0, 41.5090
36.047718529, 96.390, 1630.0, 40.3733
36.073979095, 96.390, 1652.0, 40.6448
36.100239660, 96.390, 1664.0, 40.7922
36.126500225, 96.390, 1662.0, 40.7676
36.152760791, 96.390, 1730.0, 41.5933
36.179021356, 96.390, 1713.0, 41.3884
36.205281921, 96.390, 1730.0, 41.5933
36.231542487, 96.390, 1637.0, 40.4599
36.257803052, 96.390, 1626.0, 40.3237
36.284063617, 96.390, 1588.0, 39.8497
36.310324183, 96.390, 1621.0, 40.2616
36.336584748, 96.390, 1570.0, 39.6232
36.362845313, 96.390, 1509.0, 38.8458
36.389105879, 96.390, 1562.0, 39.5221
36.415366444, 96.390, 1549.0, 39.3573
36.441627010, 96.390, 1500.0, 38.7298
36.467887575, 96.390, 1512.0, 38.8844
36.494148140, 96.390, 1447.0, 38.0395
36.520408706, 96.390, 1448.0, 38.0526
36.546669271, 96.390, 1406.0, 37.4967
36.572929836, 96.390, 1439.0, 37.9342
36.599190402, 96.390, 1427.0, 37.7757
36.625450967, 96.390, 1381.0, 37.1618
36.651711532, 96.390, 1470.0, 38.3406
36.677972098, 96.390, 1407.0, 37.5100
36.704232663, 96.390, 1375.0, 37.0810
36.730493228, 96.390, 1361.0, 36.8917
36.756753794, 96.390, 1350.0, 36.7423
36.783014359, 96.390, 1336.0, 36.5513
36.809274924, 96.390, 1339.0, 36.5923
36.835535490, 96.390, 1290.0, 35.9166
36.861796055, 96.390, 1310.0, 36.1939
36.888056621, 96.390, 1311.0, 36.2077
36.914317186, 96.390, 1338.0, 36.5787
36.940577751, 96.390, 1307.0, 36.1525
36.966838317, 96.390, 1390.0, 37.2827
36.993098882, 96.390, 1293.0, 35.9583
37.019359447, 96.390, 1310.0, 36.1939
37.045620013, 96.390, 1386.0, 37.2290
37.071880578, 96.390, 1317.0, 36.2905
37.098141143, 96.390, 1250.0, 35.3553
37.124401709, 96.390, 1384.0, 37.2022
37.150662274, 96.390, 1348.0, 36.7151
37.176922839, 96.390, 1356.0, 36.8239
37.203183405, 96.390, 1325.0, 36.4005
37.229443970, 96.390, 1340.0, 36.6060
37.255704535, 96.390, 1385.0, 37.2156
37.281965101, 96.390, 1335.0, 36.5377
37.308225666, 96.390, 1354.0, 36.7967
37.334486232, 96.390, 1352.0, 36.7696
37.360746797, 96.390, 1297.0, 36.0139
37.387007362, 96.390, 1380.0, 37.1484
37.413267928, 96.390, 1347.0, 36.7015
37.439528493, 96.390, 1351.0, 36.7560
37.465789058, 96.390, 1405.0, 37.4833
37.492049624, 96.390, 1349.0, 36.7287
37.518310189, 96.390, 1517.0, 38.9487
37.544570754, 96.390, 1483.0, 38.5097
37.570831320, 96.390, 1450.0, 38.0789
37.597091885, 96.390, 1484.0, 38.5227
37.623352450, 96.390, 1486.0, 38.5487
37.649613016, 96.390, 1554.0, 39.4208
37.675873581, 96.390, 1623.0, 40.2865
37.702134147, 96.390, 1701.0, 41.2432
37.728394712, 96.390, 1793.0, 42.3438
37.754655277, 96.390, 1798.0, 42.4028
37.780915843, 96.390, 1714.0, 41.4005
37.807176408, 96.390, 1680.0, 40.9878
37.833436973, 96.390, 1688.0, 41.0853
37.859697539, 96.390, 1623.0, 40.2865
37.885958104, 96.390, 1537.0, 39.2046
37.912218669, 96.390, 1486.0, 38.5487
37.938479235, 96.390, 1412.0, 37.5766
37.964739800, 96.390, 1381.0, 37.1618
37.991000365, 96.390, 1407.0, 37.5100
38.017260931, 96.390, 1387.0, 37.2424
38.043521496, 96.390, 1322.0, 36.3593
38.069782061, 96.390, 1355.0, 36.8103
38.096042627, 96.390, 1375.0, 37.0810
38.122303192, 96.390, 1426.0, 37.7624
38.148563758, 96.390, 1432.0, 37.8418
38.174824323, 96.390, 1500.0, 38.7298
38.201084888, 96.390, 1474.0, 38.3927
38.227345454, 96.390, 1425.0, 37.7492
38.253606019, 96.390, 1428.0, 37.7889
38.279866584, 96.390, 1447.0, 38.0395
38.306127150, 96.390, 1394.0, 37.3363
38.332387715, 96.390, 1322.0, 36.3593
38.358648280, 96.390, 1270.0, 35.6371
38.384908846, 96.390, 1332.0, 36.4966
38.411169411, 96.390, 1340.0, 36.6060
38.437429976, 96.390, 1342.0, 36.6333
38.463690542, 96.390, 1336.0, 36.5513
38.489951107, 96.390, 1324.0, 36.3868
38.516211673, 96.390, 1308.0, 36.1663
38.542472238, 96.390, 1273.0, 35.6791
38.568732803, 96.390, 1343.0, 36.6470
38.594993369, 96.390, 1331.0, 36.4829
38.621253934, 96.390, 1409.0, 37.5366
38.647514499, 96.390, 1293.0, 35.9583
38.673775065, 96.390, 1294.0, 35.9722
38.700035630, 96.390, 1407.0, 37.5100
38.726296195, 96.390, 1463.0, 38.2492
38.752556761, 96.390, 1514.0, 38.9102
38.778817326, 96.390, 1553.0, 39.4081
38.805077891, 96.390, 1440.0, 37.9473
38.831338457, 96.390, 1384.0, 37.2022
38.857599022, 96.390, 1396.0, 37.3631
38.883859587, 96.390, 1391.0, 37.2961
38.910120153, 96.390, 1307.0, 36.1525
38.936380718, 96.390, 1303.0, 36.0971
38.962641284, 96.390, 1237.0, 35.1710
38.988901849, 96.390, 1289.0, 35.9026
39.015162414, 96.390, 1265.0, 35.5668
39.041422980, 96.390, 1251.0, 35.3695
39.067683545, 96.390, 1191.0, 34.5109
39.093944110, 96.390, 1243.0, 35.2562
39.120204676, 96.390, 1253.0, 35.3977
39.146465241, 96.390, 1276.0, 35.7211
39.172725806, 96.390, 1272.0, 35.6651
39.198986372, 96.390, 1254.0, 35.4119
39.225246937, 96.390, 1305.0, 36.1248
39.251507502, 96.390, 1376.0, 37.0945
39.277768068, 96.390, 1347.0, 36.7015
39.304028633, 96.390, 1373.0, 37.0540
39.330289199, 96.390, 1475.0, 38.4057
39.356549764, 96.390, 1481.0, 38.4838
39.382810329, 96.390, 1539.0, 39.2301
39.409070895, 96.390, 1707.0, 41.3159
39.435331460, 96.390, 1746.0, 41.7852
39.461592025, 96.390, 1608.0, 40.0999
39.487852591, 96.390, 1474.0, 38.3927
39.514113156, 96.390, 1415.0, 37.6165
39.540373721, 96.390, 1490.0, 38.6005
39.566634287, 96.390, 1359.0, 36.8646
39.592894852, 96.390, 1296.0, 36.0000
39.619155417, 96.390, 1238.0, 35.1852
39.645415983, 96.390, 1274.0, 35.6931
39.671676548, 96.390, 1265.0, 35.5668
39.697937113, 96.390, 1258.0, 35.4683
39.724197679, 96.390, 1327.0, 36.4280
39.750458244, 96.390, 1259.0, 35.4824
39.776718810, 96.390, 1294.0, 35.9722
39.802979375, 96.390, 1290.0, 35.9166
39.829239940, 96.390, 1263.0, 35.5387
39.855500506, 96.390, 1218.0, 34.8999
39.881761071, 96.390, 1264.0, 35.5528
39.908021636, 96.390, 1235.0, 35.1426
39.934282202, 96.390, 1260.0, 35.4965
39.960542767, 96.390, 1232.0, 35.0999
39.986803332, 96.390, 1325.0, 36.4005
40.013063898, 96.390, 1219.0, 34.9142
40.039324463, 96.390, 1216.0, 34.8712
40.065585028, 96.390, 1212.0, 34.8138
40.091845594, 96.390, 1303.0, 36.0971
40.118106159, 96.390, 1330.0, 36.4692
40.144366725, 96.390, 1279.0, 35.7631
40.170627290, 96.390, 1283.0, 35.8190
40.196887855, 96.390, 1263.0, 35.5387
40.223148421, 96.390, 1201.0, 34.6554
40.249408986, 96.390, 1213.0, 34.8281
40.275669551, 96.390, 1178.0, 34.3220
40.301930117, 96.390, 1149.0, 33.8969
40.328190682, 96.390, 1179.0, 34.3366
40.354451247, 96.390, 1134.0, 33.6749
40.380711813, 96.390, 1149.0, 33.8969
40.406972378, 96.390, 1114.0, 33.3766
40.433232943, 96.390, 1184.0, 34.4093
40.459493509, 96.390, 1141.0, 33.7787
40.485754074, 96.390, 1164.0, 34.1174
40.512014639, 96.390, 1239.0, 35.1994
40.538275205, 96.390, 1213.0, 34.8281
40.564535770, 96.390, 1260.0, 35.4965
40.590796336, 96.390, 1303.0, 36.0971
40.617056901, 96.390, 1267.0, 35.5949
40.643317466, 96.390, 1305.0, 36.1248
40.669578032, 96.390, 1210.0, 34.7851
40.695838597, 96.390, 1209.0, 34.7707
40.722099162, 96.390, 1263.0, 35.5387
40.748359728, 96.390, 1169.0, 34.1906
40.774620293, 96.390, 1151.0, 33.9264
40.800880858, 96.390, 1157.0, 34.0147
40.827141424, 96.390, 1137.0, 33.7194
40.853401989, 96.390, 1112.0, 33.3467
40.879662554, 96.390, 1133.0, 33.6601
40.905923120, 96.390, 1110.0, 33.3167
40.932183685, 96.390, 1088.0, 32.9848
40.958444251, 96.390, 1072.0, 32.7414
40.984704816, 96.390, 1124.0, 33.5261
41.010965381, 96.390, 1184.0, 34.4093
41.037225947, 96.390, 1097.0, 33.1210
41.063486512, 96.390, 1142.0, 33.7935
41.089747077, 96.390, 1138.0, 33.7343
41.116007643, 96.390, 1080.0, 32.8634
41.142268208, 96.390, 1129.0, 33.6006
41.168528773, 96.390, 1143.0, 33.8083
41.194789339, 96.390, 1185.0, 34.4238
41.221049904, 96.390, 1150.0, 33.9116
41.247310469, 96.390, 1202.0, 34.6699
41.273571035, 96.390, 1326.0, 36.4143
41.299831600, 96.390, 1306.0, 36.1386
41.326092165, 96.390, 1472.0, 38.3667
41.352352731, 96.390, 1612.0, 40.1497
41.378613296, 96.390, 1694.0, 41.1582
41.404873862, 96.390, 1582.0, 39.7744
41.431134427, 96.390, 1488.0, 38.5746
41.457394992, 96.390, 1471.0, 38.3536
41.483655558, 96.390, 1368.0, 36.9865
41.509916123, 96.390, 1384.0, 37.2022
41.536176688, 96.390, 1301.0, 36.0694
41.562437254, 96.390, 1155.0, 33.9853
41.588697819, 96.390, 1148.0, 33.8821
41.614958384, 96.390, 1097.0, 33.1210
41.641218950, 96.390, 1156.0, 34.0000
41.667479515, 96.390, 1113.0, 33.3617
41.693740080, 96.390, 1063.0, 32.6037
41.720000646, 96.390, 1059.0, 32.5423
41.746261211, 96.390, 1083.0, 32.9090
41.772521776, 96.390, 1108.0, 33.2866
41.798782342, 96.390, 1114.0, 33.3766
41.825042907, 96.390, 1123.0, 33.5112
41.851303473, 96.390, 1121.0, 33.4813
41.877564038, 96.390, 1112.0, 33.3467
41.903824603, 96.390, 1085.0, 32.9393
41.930085169, 96.390, 1061.0, 32.5730
41.956345734, 96.390, 1069.0, 32.6956
41.982606299, 96.390, 1129.0, 33.6006
42.008866865, 96.390, 1081.0, 32.8786
42.035127430, 96.390, 1171.0, 34.2199
42.061387995, 96.390, 1273.0, 35.6791
42.087648561, 96.390, 1312.0, 36.2215
42.113909126, 96.390, 1419.0, 37.6696
42.140169691, 96.390, 1464.0, 38.2623
42.166430257, 96.390, 1306.0, 36.1386
42.192690822, 96.390, 1386.0, 37.2290
42.218951388, 96.390, 1352.0, 36.7696
42.245211953, 96.390, 1264.0, 35.5528
42.271472518, 96.390, 1293.0, 35.9583
42.297733084, 96.390, 1232.0, 35.0999
42.323993649, 96.390, 1184.0, 34.4093
42.350254214, 96.390, 1162.0, 34.0881
42.376514780, 96.390, 1089.0, 33.0000
42.402775345, 96.390, 1027.0, 32.0468
42.429035910, 96.390, 1161.0, 34.0735
42.455296476, 96.390, 1189.0, 34.4819
42.481557041, 96.390, 1153.0, 33.9559
42.507817606, 96.390, 1231.0, 35.0856
42.534078172, 96.390, 1348.0, 36.7151
42.560338737, 96.390, 1287.0, 35.8748
42.586599302, 96.390, 1231.0, 35.0856
42.612859868, 96.390, 1178.0, 34.3220
42.639120433, 96.390, 1215.0, 34.8569
42.665380999, 96.390, 1119.0, 33.4515
42.691641564, 96.390, 1132.0, 33.6452
42.717902129, 96.390, 1110.0, 33.3167
42.744162695, 96.390, 1030.0, 32.0936
42.770423260, 96.390, 1076.0, 32.8024
42.796683825, 96.390, 1053.0, 32.4500
42.822944391, 96.390, 1069.0, 32.6956
42.849204956, 96.390, 1094.0, 33.0757
42.875465521, 96.390, 1079.0, 32.8481
42.901726087, 96.390, 1049.0, 32.3883
42.927986652, 96.390, 1023.0, 31.9844
42.954247217, 96.390, 1072.0, 32.7414
42.980507783, 96.390, 1082.0, 32.8938
43.006768348, 96.390, 1063.0, 32.6037
43.033028914, 96.390, 1063.0, 32.6037
43.059289479, 96.390, 980.0, 31.3050
43.085550044, 96.390, 1074.0, 32.7719
43.111810610, 96.390, 1029.0, 32.0780
43.138071175, 96.390, 1047.0, 32.3574
43.164331740, 96.390, 1044.0, 32.3110
43.190592306, 96.390, 1081.0, 32.8786
43.216852871, 96.390, 1111.0, 33.3317
43.243113436, 96.390, 944.0, 30.7246
43.269374002, 96.390, 1073.0, 32.7567
43.295634567, 96.390, 978.0, 31.2730
43.321895132, 96.390, 1000.0, 31.6228
43.348155698, 96.390, 1027.0, 32.0468
43.374416263, 96.390, 975.0, 31.2250
43.400676828, 96.390, 1078.0, 32.8329
43.426937394, 96.390, 1045.0, 32.3265
43.453197959, 96.390, 987.0, 31.4166
43.479458525, 96.390, 1070.0, 32.7109
43.505719090, 96.390, 994.0, 31.5278
43.531979655, 96.390, 1034.0, 32.1559
43.558240221, 96.390, 1103.0, 33.2114
43.584500786, 96.390, 1029.0, 32.0780
43.610761351, 96.390, 1051.0, 32.4191
43.637021917, 96.390, 1190.0, 34.4964
43.663282482, 96.390, 1254.0, 35.4119
43.689543047, 96.390, 1229.0, 35.0571
43.715803613, 96.390, 1396.0, 37.3631
43.742064178, 96.390, 1494.0, 38.6523
43.768324743, 96.390, 1526.0, 39.0640
43.794585309, 96.390, 1462.0, 38.2361
43.820845874, 96.390, 1343.0, 36.6470
43.847106440, 96.390, 1379.0, 37.1349
43.873367005, 96.390, 1378.0, 37.1214
43.899627570, 96.390, 1304.0, 36.1109
43.925888136, 96.390, 1325.0, 36.4005
43.952148701, 96.390, 1122.0, 33.4963
43.978409266, 96.390, 1189.0, 34.4819
44.004669832, 96.390, 1124.0, 33.5261
44.030930397, 96.390, 1127.0, 33.5708
44.057190962, 96.390, 1070.0, 32.7109
44.083451528, 96.390, 1086.0, 32.9545
44.109712093, 96.390, 1085.0, 32.9393
44.135972658, 96.390, 1038.0, 32.2180
44.162233224, 96.390, 1098.0, 33.1361
44.188493789, 96.390, 1037.0, 32.2025
44.214754354, 96.390, 1131.0, 33.6303
44.241014920, 96.390, 1103.0, 33.2114
44.267275485, 96.390, 1184.0, 34.4093
44.293536051, 96.390, 1233.0, 35.1141
44.319796616, 96.390, 1254.0, 35.4119
44.346057181, 96.390, 1333.0, 36.5103
44.372317747, 96.390, 1396.0, 37.3631
44.398578312, 96.390, 1301.0, 36.0694
44.424838877, 96.390, 1395.0, 37.3497
44.451099443, 96.390, 1220.0, 34.9285
44.477360008, 96.390, 1232.0, 35.0999
44.503620573, 96.390, 1269.0, 35.6230
44.529881139, 96.390, 1217.0, 34.8855
44.556141704, 96.390, 1172.0, 34.2345
44.582402269, 96.390, 1125.0, 33.5410
44.608662835, 96.390, 1093.0, 33.0606
44.634923400, 96.390, 1093.0, 33.0606
44.661183966, 96.390, 1072.0, 32.7414
44.687444531, 96.390, 1050.0, 32.4037
44.713705096, 96.390, 1128.0, 33.5857
44.739965662, 96.390, 1138.0, 33.7343
44.766226227, 96.390, 1077.0, 32.8177
44.792486792, 96.390, 1117.0, 33.4215
44.818747358, 96.390, 1134.0, 33.6749
44.845007923, 96.390, 1196.0, 34.5832
44.871268488, 96.390, 1107.0, 33.2716
44.897529054, 96.390, 1173.0, 34.2491
44.923789619, 96.390, 1075.0, 32.7872
44.950050184, 96.390, 1147.0, 33.8674
44.976310750, 96.390, 1146.0, 33.8526
45.002571315, 96.390, 1174.0, 34.2637
45.028831880, 96.390, 1214.0, 34.8425
45.055092446, 96.390, 1263.0, 35.5387
45.081353011, 96.390, 1335.0, 36.5377
45.107613577, 96.390, 1380.0, 37.1484
45.133874142, 96.390, 1432.0, 37.8418
45.160134707, 96.390, 1383.0, 37.1887
45.186395273, 96.390, 1294.0, 35.9722
45.212655838, 96.390, 1267.0, 35.5949
45.238916403, 96.390, 1351.0, 36.7560
45.265176969, 96.390, 1337.0, 36.5650
45.291437534, 96.390, 1284.0, 35.8329
45.317698099, 96.390, 1330.0, 36.4692
45.343958665, 96.390, 1293.0, 35.9583
45.370219230, 96.390, 1284.0, 35.8329
45.396479795, 96.390, 1341.0, 36.6197
45.422740361, 96.390, 1314.0, 36.2491
45.449000926, 96.390, 1438.0, 37.9210
45.475261492, 96.390, 1376.0, 37.0945
45.501522057, 96.390, 1361.0, 36.8917
45.527782622, 96.390, 1220.0, 34.9285
45.554043188, 96.390, 1313.0, 36.2353
45.580303753, 96.390, 1189.0, 34.4819
45.606564318, 96.390, 1174.0, 34.2637
45.632824884, 96.390, 1130.0, 33.6155
45.659085449, 96.390, 1097.0, 33.1210
45.685346014, 96.390, 1092.0, 33.0454
45.711606580, 96.390, 1059.0, 32.5423
45.737867145, 96.390, 1046.0, 32.3419
45.764127710, 96.390, 1083.0, 32.9090
45.790388276, 96.390, 1076.0, 32.8024
45.816648841, 96.390, 1075.0, 32.7872
45.842909406, 96.390, 1062.0, 32.5883
45.869169972, 96.390, 1167.0, 34.1614
45.895430537, 96.390, 1137.0, 33.7194
45.921691103, 96.390, 1057.0, 32.5115
45.947951668, 96.390, 1142.0, 33.7935
45.974212233, 96.390, 1082.0, 32.8938
46.000472799, 96.390, 1045.0, 32.3265
46.026733364, 96.390, 1041.0, 32.2645
46.052993929, 96.390, 1128.0, 33.5857
46.079254495, 96.390, 1115.0, 33.3916
46.105515060, 96.390, 1222.0, 34.9571
46.131775625, 96.390, 1175.0, 34.2783
46.158036191, 96.390, 1212.0, 34.8138
46.184296756, 96.390, 1284.0, 35.8329
46.210557321, 96.390, 1325.0, 36.4005
46.236817887, 96.390, 1405.0, 37.4833
46.263078452, 96.390, 1360.0, 36.8782
46.289339017, 96.390, 1375.0, 37.0810
46.315599583, 96.390, 1294.0, 35.9722
46.341860148, 96.390, 1259.0, 35.4824
46.368120714, 96.390, 1281.0, 35.7911
46.394381279, 96.390, 1209.0, 34.7707
46.420641844, 96.390, 1235.0, 35.1426
46.446902410, 96.390, 1217.0, 34.8855
46.473162975, 96.390, 1116.0, 33.4066
46.499423540, 96.390, 1104.0, 33.2265
46.525684106, 96.390, 1025.0, 32.0156
46.551944671, 96.390, 1067.0, 32.6650
46.578205236, 96.390, 1022.0, 31.9687
46.604465802, 96.390, 1131.0, 33.6303
46.630726367, 96.390, 1080.0, 32.8634
46.656986932, 96.390, 1141.0, 33.7787
46.683247498, 96.390, 1077.0, 32.8177
46.709508063, 96.390, 1086.0, 32.9545
46.735768629, 96.390, 1109.0, 33.3017
46.762029194, 96.390, 1109.0, 33.3017
46.788289759, 96.390, 1110.0, 33.3167
46.814550325, 96.390, 1180.0, 34.3511
46.840810890, 96.390, 1108.0, 33.2866
46.867071455, 96.390, 1059.0, 32.5423
46.893332021, 96.390, 1125.0, 33.5410
46.919592586, 96.390, 1110.0, 33.3167
46.945853151, 96.390, 1142.0, 33.7935
46.972113717, 96.390, 1159.0, 34.0441
46.998374282, 96.390, 1131.0, 33.6303
47.024634847, 96.390, 1123.0, 33.5112
47.050895413, 96.390, 1086.0, 32.9545
47.077155978, 96.390, 1062.0, 32.5883
47.103416543, 96.390, 1147.0, 33.8674
47.129677109, 96.390, 1109.0, 33.3017
47.155937674, 96.390, 1099.0, 33.1512
47.182198240, 96.390, 1007.0, 31.7333
47.208458805, 96.390, 1058.0, 32.5269
47.234719370, 96.390, 1066.0, 32.6497
47.260979936, 96.390, 990.0, 31.4643
47.287240501, 96.390, 994.0, 31.5278
47.313501066, 96.390, 1035.0, 32.1714
47.339761632, 96.390, 1028.0, 32.0624
47.366022197, 96.390, 1051.0, 32.4191
47.392282762, 96.390, 1025.0, 32.0156
47.418543328, 96.390, 996.0, 31.5595
47.444803893, 96.390, 1090.0, 33.0151
47.471064458, 96.390, 1034.0, 32.1559
47.497325024, 96.390, 986.0, 31.4006
47.523585589, 96.390, 1058.0, 32.5269
47.549846155, 96.390, 954.0, 30.8869
47.576106720, 96.390, 1058.0, 32.5269
47.602367285, 96.390, 1037.0, 32.2025
47.628627851, 96.390, 1032.0, 32.1248
47.654888416, 96.390, 1034.0, 32.1559
47.681148981, 96.390, 1000.0, 31.6228
47.707409547, 96.390, 1080.0, 32.8634
47.733670112, 96.390, 979.0, 31.2890
47.759930677, 96.390, 1001.0, 31.6386
47.786191243, 96.390, 1005.0, 31.7017
47.812451808, 96.390, 1006.0, 31.7175
47.838712373, 96.390, 1032.0, 32.1248
47.864972939, 96.390, 977.0, 31.2570
47.891233504, 96.390, 993.0, 31.5119
47.917494069, 96.390, 1040.0, 32.2490
47.943754635, 96.390, 1022.0, 31.9687
47.970015200, 96.390, 997.0, 31.5753
47.996275766, 96.390, 1112.0, 33.3467
48.022536331, 96.390, 1050.0, 32.4037
48.048796896, 96.390, 1068.0, 32.6803
48.075057462, 96.390, 1074.0, 32.7719
48.101318027, 96.390, 1216.0, 34.8712
48.127578592, 96.390, 1133.0, 33.6601
48.153839158, 96.390, 1163.0, 34.1028
48.180099723, 96.390, 1112.0, 33.3467
48.206360288, 96.390, 1088.0, 32.9848
48.232620854, 96.390, 1157.0, 34.0147
48.258881419, 96.390, 1099.0, 33.1512
48.285141984, 96.390, 1074.0, 32.7719
48.311402550, 96.390, 1079.0, 32.8481
48.337663115, 96.390, 1076.0, 32.8024
48.363923681, 96.390, 1068.0, 32.6803
48.390184246, 96.390, 1124.0, 33.5261
48.416444811, 96.390, 1139.0, 33.7491
48.442705377, 96.390, 1166.0, 34.1467
48.468965942, 96.390, 1249.0, 35.3412
48.495226507, 96.390, 1214.0, 34.8425
48.521487073, 96.390, 1217.0, 34.8855
48.547747638, 96.390, 1187.0, 34.4529
48.574008203, 96.390, 1110.0, 33.3167
48.600268769, 96.390, 1149.0, 33.8969
48.626529334, 96.390, 1047.0, 32.3574
48.652789899, 96.390, 1082.0, 32.8938
48.679050465, 96.390, 965.0, 31.0644
48.705311030, 96.390, 998.0, 31.5911
48.731571595, 96.390, 1010.0, 31.7805
48.757832161, 96.390, 948.0, 30.7896
48.784092726, 96.390, 946.0, 30.7571
48.810353292, 96.390, 980.0, 31.3050
48.836613857, 96.390, 938.0, 30.6268
48.862874422, 96.390, 980.0, 31.3050
48.889134988, 96.390, 991.0, 31.4802
48.915395553, 96.390, 1037.0, 32.2025
48.941656118, 96.390, 918.0, 30.2985
48.967916684, 96.390, 959.0, 30.9677
48.994177249, 96.390, 1009.0, 31.7648
49.020437814, 96.390, 928.0, 30.4631
49.046698380, 96.390, 982.0, 31.3369
49.072958945, 96.390, 958.0, 30.9516
49.099219510, 96.390, 994.0, 31.5278
49.125480076, 96.390, 1002.0, 31.6544
49.151740641, 96.390, 988.0, 31.4325
49.178001207, 96.390, 1030.0, 32.0936
49.204261772, 96.390, 964.0, 31.0483
49.230522337, 96.390, 983.0, 31.3528
49.256782903, 96.390, 995.0, 31.5436
49.283043468, 96.390, 993.0, 31.5119
49.309304033, 96.390, 941.0, 30.6757
49.335564599, 96.390, 968.0, 31.1127
49.361825164, 96.390, 1005.0, 31.7017
49.388085729, 96.390, 985.0, 31.3847
49.414346295, 96.390, 930.0, 30.4959
49.440606860, 96.390, 970.0, 31.1448
49.466867425, 96.390, 1041.0, 32.2645
49.493127991, 96.390, 918.0, 30.2985
49.519388556, 96.390, 991.0, 31.4802
49.545649121, 96.390, 994.0, 31.5278
49.571909687, 96.390, 979.0, 31.2890
49.598170252, 96.390, 959.0, 30.9677
49.624430818, 96.390, 941.0, 30.6757
49.650691383, 96.390, 1019.0, 31.9218
49.676951948, 96.390, 905.0, 30.0832
49.703212514, 96.390, 964.0, 31.0483
49.729473079, 96.390, 903.0, 30.0500
49.755733644, 96.390, 953.0, 30.8707
49.781994210, 96.390, 934.0, 30.5614
49.808254775, 96.390, 923.0, 30.3809
49.834515340, 96.390, 907.0, 30.1164
49.860775906, 96.390, 979.0, 31.2890
49.887036471, 96.390, 931.0, 30.5123
49.913297036, 96.390, 922.0, 30.3645
49.939557602, 96.390, 866.0, 29.4279
49.965818167, 96.390, 924.0, 30.3974
49.992078733, 96.390, 901.0, 30.0167
50.018339298, 96.390, 874.0, 29.5635
50.044599863, 96.390, 882.0, 29.6985
50.070860429, 96.390, 897.0, 29.9500
50.097120994, 96.390, 925.0, 30.4138
50.123381559, 96.390, 940.0, 30.6594
50.149642125, 96.390, 905.0, 30.0832
50.175902690, 96.390, 1023.0, 31.9844
50.202163255, 96.390, 1108.0, 33.2866
50.228423821, 96.390, 1112.0, 33.3467
50.254684386, 96.390, 1185.0, 34.4238
50.280944951, 96.390, 1047.0, 32.3574
50.307205517, 96.390, 1066.0, 32.6497
50.333466082, 96.390, 1075.0, 32.7872
50.359726647, 96.390, 1042.0, 32.2800
50.385987213, 96.390, 1032.0, 32.1248
50.412247778, 96.390, 1031.0, 32.1092
50.438508344, 96.390, 1032.0, 32.1248
50.464768909, 96.390, 918.0, 30.2985
50.491029474, 96.390, 989.0, 31.4484
50.517290040, 96.390, 917.0, 30.2820
50.543550605, 96.390, 960.0, 30.9839
50.569811170, 96.390, 867.0, 29.4449
50.596071736, 96.390, 941.0, 30.6757
50.622332301, 96.390, 925.0, 30.4138
50.648592866, 96.390, 922.0, 30.3645
50.674853432, 96.390, 921.0, 30.3480
50.701113997, 96.390, 867.0, 29.4449
50.727374562, 96.390, 919.0, 30.3150
50.753635128, 96.390, 878.0, 29.6311
50.779895693, 96.390, 927.0, 30.4467
50.806156258, 96.390, 926.0, 30.4302
50.832416824, 96.390, 884.0, 29.7321
50.858677389, 96.390, 815.0, 28.5482
50.884937955, 96.390, 870.0, 29.4958
50.911198520, 96.390, 883.0, 29.7153
50.937459085, 96.390, 852.0, 29.1890
50.963719651, 96.390, 940.0, 30.6594
50.989980216, 96.390, 887.0, 29.7825
51.016240781, 96.390, 959.0, 30.9677
51.042501347, 96.390, 900.0, 30.0000
51.068761912, 96.390, 949.0, 30.8058
51.095022477, 96.390, 896.0, 29.9333
51.121283043, 96.390, 947.0, 30.7734
51.147543608, 96.390, 1055.0, 32.4808
51.173804173, 96.390, 975.0, 31.2250
51.200064739, 96.390, 982.0, 31.3369
51.226325304, 96.390, 1027.0, 32.0468
51.252585870, 96.390, 993.0, 31.5119
51.278846435, 96.390, 976.0, 31.2410
51.305107000, 96.390, 965.0, 31.0644
51.331367566, 96.390, 974.0, 31.2090
51.357628131, 96.390, 924.0, 30.3974
51.383888696, 96.390, 962.0, 31.0161
51.410149262, 96.390, 933.0, 30.5450
51.436409827, 96.390, 912.0, 30.1993
51.462670392, 96.390, 861.0, 29.3428
51.488930958, 96.390, 889.0, 29.8161
51.515191523, 96.390, 810.0, 28.4605
51.541452088, 96.390, 791.0, 28.1247
51.567712654, 96.390, 880.0, 29.6648
51.593973219, 96.390, 912.0, 30.1993
51.620233784, 96.390, 894.0, 29.8998
51.646494350, 96.390, 898.0, 29.9666
51.672754915, 96.390, 867.0, 29.4449
51.699015481, 96.390, 886.0, 29.7658
51.725276046, 96.390, 918.0, 30.2985
51.751536611, 96.390, 938.0, 30.6268
51.777797177, 96.390, 877.0, 29.6142
51.804057742, 96.390, 891.0, 29.8496
51.830318307, 96.390, 901.0, 30.0167
51.856578873, 96.390, 856.0, 29.2575
51.882839438, 96.390, 907.0, 30.1164
51.909100003, 96.390, 872.0, 29.5296
51.935360569, 96.390, 981.0, 31.3209
51.961621134, 96.390, 858.0, 29.2916
51.987881699, 96.390, 889.0, 29.8161
52.014142265, 96.390, 918.0, 30.2985
52.040402830, 96.390, 876.0, 29.5973
52.066663396, 96.390, 985.0, 31.3847
52.092923961, 96.390, 942.0, 30.6920
52.119184526, 96.390, 1004.0, 31.6860
52.145445092, 96.390, 1079.0, 32.8481
52.171705657, 96.390, 1086.0, 32.9545
52.197966222, 96.390, 1128.0, 33.5857
52.224226788, 96.390, 1072.0, 32.7414
52.250487353, 96.390, 1134.0, 33.6749
52.276747918, 96.390, 1099.0, 33.1512
52.303008484, 96.390, 998.0, 31.5911
52.329269049, 96.390, 1009.0, 31.7648
52.355529614, 96.390, 1065.0, 32.6343
52.381790180, 96.390, 1016.0, 31.8748
52.408050745, 96.390, 959.0, 30.9677
52.434311310, 96.390, 909.0, 30.1496
52.460571876, 96.390, 907.0, 30.1164
52.486832441, 96.390, 850.0, 29.1548
52.513093007, 96.390, 861.0, 29.3428
52.539353572, 96.390, 894.0, 29.8998
52.565614137, 96.390, 876.0, 29.5973
52.591874703, 96.390, 856.0, 29.2575
52.618135268, 96.390, 878.0, 29.6311
52.644395833, 96.390, 912.0, 30.1993
52.670656399, 96.390, 886.0, 29.7658
52.696916964, 96.390, 951.0, 30.8383
52.723177529, 96.390, 906.0, 30.0998
52.749438095, 96.390, 895.0, 29.9166
52.775698660, 96.390, 914.0, 30.2324
52.801959225, 96.390, 880.0, 29.6648
52.828219791, 96.390, 911.0, 30.1828
52.854480356, 96.390, 946.0, 30.7571
52.880740922, 96.390, 975.0, 31.2250
52.907001487, 96.390, 910.0, 30.1662
52.933262052, 96.390, 941.0, 30.6757
52.959522618, 96.390, 900.0, 30.0000
52.985783183, 96.390, 920.0, 30.3315
53.012043748, 96.390, 796.0, 28.2135
53.038304314, 96.390, 919.0, 30.3150
53.064564879, 96.390, 896.0, 29.9333
53.090825444, 96.390, 880.0, 29.6648
53.117086010, 96.390, 917.0, 30.2820
53.143346575, 96.390, 972.0, 31.1769
53.169607140, 96.390, 940.0, 30.6594
53.195867706, 96.390, 966.0, 31.0805
53.222128271, 96.390, 941.0, 30.6757
53.248388836, 96.390, 893.0, 29.8831
53.274649402, 96.390, 911.0, 30.1828
53.300909967, 96.390, 909.0, 30.1496
53.327170533, 96.390, 913.0, 30.2159
53.353431098, 96.390, 931.0, 30.5123
53.379691663, 96.390, 928.0, 30.4631
53.405952229, 96.390, 913.0, 30.2159
53.432212794, 96.390, 938.0, 30.6268
53.458473359, 96.390, 878.0, 29.6311
53.484733925, 96.390, 842.0, 29.0172
53.510994490, 96.390, 838.0, 28.9482
53.537255055, 96.390, 833.0, 28.8617
53.563515621, 96.390, 821.0, 28.6531
53.589776186, 96.390, 859.0, 29.3087
53.616036751, 96.390, 880.0, 29.6648
53.642297317, 96.390, 853.0, 29.2062
53.668557882, 96.390, 834.0, 28.8791
53.694818448, 96.390, 755.0, 27.4773
53.721079013, 96.390, 811.0, 28.4781
53.747339578, 96.390, 868.0, 29.4618
53.773600144, 96.390, 863.0, 29.3769
53.799860709, 96.390, 821.0, 28.6531
53.826121274, 96.390, 781.0, 27.9464
53.852381840, 96.390, 849.0, 29.1376
53.878642405, 96.390, 802.0, 28.3196
53.904902970, 96.390, 876.0, 29.5973
53.931163536, 96.390, 831.0, 28.8271
53.957424101, 96.390, 858.0, 29.2916
53.983684666, 96.390, 864.0, 29.3939
54.009945232, 96.390, 891.0, 29.8496
54.036205797, 96.390, 946.0, 30.7571
54.062466362, 96.390, 939.0, 30.6431
54.088726928, 96.390, 930.0, 30.4959
54.114987493, 96.390, 970.0, 31.1448
54.141248059, 96.390, 984.0, 31.3688
54.167508624, 96.390, 929.0, 30.4795
54.193769189, 96.390, 947.0, 30.7734
54.220029755, 96.390, 948.0, 30.7896
54.246290320, 96.390, 953.0, 30.8707
54.272550885, 96.390, 967.0, 31.0966
54.298811451, 96.390, 957.0, 30.9354
54.325072016, 96.390, 953.0, 30.8707
54.351332581, 96.390, 979.0, 31.2890
54.377593147, 96.390, 902.0, 30.0333
54.403853712, 96.390, 889.0, 29.8161
54.430114277, 96.390, 884.0, 29.7321
54.456374843, 96.390, 898.0, 29.9666
54.482635408, 96.390, 872.0, 29.5296
54.508895973, 96.390, 844.0, 29.0517
54.535156539, 96.390, 830.0, 28.8097
54.561417104, 96.390, 877.0, 29.6142
54.587677670, 96.390, 864.0, 29.3939
54.613938235, 96.390, 801.0, 28.3019
54.640198800, 96.390, 815.0, 28.5482
54.666459366, 96.390, 817.0, 28.5832
54.692719931, 96.390, 779.0, 27.9106
54.718980496, 96.390, 857.0, 29.2746
54.745241062, 96.390, 774.0, 27.8209
54.771501627, 96.390, 742.0, 27.2397
54.797762192, 96.390, 797.0, 28.2312
54.824022758, 96.390, 821.0, 28.6531
54.850283323, 96.390, 800.0, 28.2843
54.876543888, 96.390, 780.0, 27.9285
54.902804454, 96.390, 789.0, 28.0891
54.929065019, 96.390, 833.0, 28.8617
54.955325585, 96.390, 765.0, 27.6586
54.981586150, 96.390, 818.0, 28.6007
55.007846715, 96.390, 756.0, 27.4955
55.034107281, 96.390, 785.0, 28.0179
55.060367846, 96.390, 747.0, 27.3313
55.086628411, 96.390, 755.0, 27.4773
55.112888977, 96.390, 719.0, 26.8142
55.139149542, 96.390, 761.0, 27.5862
55.165410107, 96.390, 762.0, 27.6043
55.191670673, 96.390, 815.0, 28.5482
55.217931238, 96.390, 762.0, 27.6043
55.244191803, 96.390, 815.0, 28.5482
55.270452369, 96.390, 753.0, 27.4408
55.296712934, 96.390, 783.0, 27.9821
55.322973499, 96.390, 814.0, 28.5307
55.349234065, 96.390, 780.0, 27.9285
55.375494630, 96.390, 736.0, 27.1293
55.401755196, 96.390, 842.0, 29.0172
55.428015761, 96.390, 777.0, 27.8747
55.454276326, 96.390, 768.0, 27.7128
55.480536892, 96.390, 814.0, 28.5307
55.506797457, 96.390, 820.0, 28.6356
55.533058022, 96.390, 814.0, 28.5307
55.559318588, 96.390, 879.0, 29.6479
55.585579153, 96.390, 788.0, 28.0713
55.611839718, 96.390, 822.0, 28.6705
55.638100284, 96.390, 778.0, 27.8927
55.664360849, 96.390, 772.0, 27.7849
55.690621414, 96.390, 847.0, 29.1033
55.716881980, 96.390, 813.0, 28.5132
55.743142545, 96.390, 825.0, 28.7228
55.769403111, 96.390, 786.0, 28.0357
55.795663676, 96.390, 761.0, 27.5862
55.821924241, 96.390, 771.0, 27.7669
55.848184807, 96.390, 740.0, 27.2029
55.874445372, 96.390, 801.0, 28.3019
55.900705937, 96.390, 743.0, 27.2580
55.926966503, 96.390, 753.0, 27.4408
55.953227068, 96.390, 785.0, 28.0179
55.979487633, 96.390, 776.0, 27.8568
56.005748199, 96.390, 793.0, 28.1603
56.032008764, 96.390, 824.0, 28.7054
56.058269329, 96.390, 779.0, 27.9106
56.084529895, 96.390, 813.0, 28.5132
56.110790460, 96.390, 800.0, 28.2843
56.137051025, 96.390, 851.0, 29.1719
56.163311591, 96.390, 836.0, 28.9137
56.189572156, 96.390, 799.0, 28.2666
56.215832722, 96.390, 771.0, 27.7669
56.242093287, 96.390, 800.0, 28.2843
56.268353852, 96.390, 796.0, 28.2135
56.294614418, 96.390, 783.0, 27.9821
56.320874983, 96.390, 698.0, 26.4197
56.347135548, 96.390, 786.0, 28.0357
56.373396114, 96.390, 720.0, 26.8328
56.399656679, 96.390, 747.0, 27.3313
56.425917244, 96.390, 772.0, 27.7849
56.452177810, 96.390, 738.0, 27.1662
56.478438375, 96.390, 759.0, 27.5500
56.504698940, 96.390, 709.0, 26.6271
56.530959506, 96.390, 722.0, 26.8701
56.557220071, 96.390, 714.0, 26.7208
56.583480637, 96.390, 694.0, 26.3439
56.609741202, 96.390, 722.0, 26.8701
56.636001767, 96.390, 719.0, 26.8142
56.662262333, 96.390, 755.0, 27.4773
56.688522898, 96.390, 709.0, 26.6271
56.714783463, 96.390, 750.0, 27.3861
56.741044029, 96.390, 697.0, 26.4008
56.767304594, 96.390, 792.0, 28.1425
56.793565159, 96.390, 740.0, 27.2029
56.819825725, 96.390, 724.0, 26.9072
56.846086290, 96.390, 785.0, 28.0179
56.872346855, 96.390, 740.0, 27.2029
56.898607421, 96.390, 762.0, 27.6043
56.924867986, 96.390, 699.0, 26.4386
56.951128551, 96.390, 742.0, 27.2397
56.977389117, 96.390, 719.0, 26.8142
57.003649682, 96.390, 771.0, 27.7669
57.029910248, 96.390, 759.0, 27.5500
57.056170813, 96.390, 742.0, 27.2397
57.082431378, 96.390, 779.0, 27.9106
57.108691944, 96.390, 728.0, 26.9815
57.134952509, 96.390, 739.0, 27.1846
57.161213074, 96.390, 729.0, 27.0000
57.187473640, 96.390, 724.0, 26.9072
57.213734205, 96.390, 714.0, 26.7208
57.239994770, 96.390, 749.0, 27.3679
57.266255336, 96.390, 709.0, 26.6271
57.292515901, 96.390, 751.0, 27.4044
57.318776466, 96.390, 760.0, 27.5681
57.345037032, 96.390, 755.0, 27.4773
57.371297597, 96.390, 813.0, 28.5132
57.397558163, 96.390, 754.0, 27.4591
57.423818728, 96.390, 758.0, 27.5318
57.450079293, 96.390, 726.0, 26.9444
57.476339859, 96.390, 753.0, 27.4408
57.502600424, 96.390, 810.0, 28.4605
57.528860989, 96.390, 755.0, 27.4773
57.555121555, 96.390, 724.0, 26.9072
57.581382120, 96.390, 754.0, 27.4591
57.607642685, 96.390, 743.0, 27.2580
57.633903251, 96.390, 722.0, 26.8701
57.660163816, 96.390, 706.0, 26.5707
57.686424381, 96.390, 783.0, 27.9821
57.712684947, 96.390, 780.0, 27.9285
57.738945512, 96.390, 721.0, 26.8514
57.765206077, 96.390, 731.0, 27.0370
57.791466643, 96.390, 785.0, 28.0179
57.817727208, 96.390, 745.0, 27.2947
57.843987774, 96.390, 802.0, 28.3196
57.870248339, 96.390, 744.0, 27.2764
57.896508904, 96.390, 822.0, 28.6705
57.922769470, 96.390, 755.0, 27.4773
57.949030035, 96.390, 831.0, 28.8271
57.975290600, 96.390, 810.0, 28.4605
58.001551166, 96.390, 930.0, 30.4959
58.027811731, 96.390, 907.0, 30.1164
58.054072296, 96.390, 931.0, 30.5123
58.080332862, 96.390, 988.0, 31.4325
58.106593427, 96.390, 902.0, 30.0333
58.132853992, 96.390, 862.0, 29.3598
58.159114558, 96.390, 828.0, 28.7750
58.185375123, 96.390, 857.0, 29.2746
58.211635689, 96.390, 835.0, 28.8964
58.237896254, 96.390, 783.0, 27.9821
58.264156819, 96.390, 798.0, 28.2489
58.290417385, 96.390, 772.0, 27.7849
58.316677950, 96.390, 731.0, 27.0370
58.342938515, 96.390, 712.0, 26.6833
58.369199081, 96.390, 729.0, 27.0000
58.395459646, 96.390, 702.0, 26.4953
58.421720211, 96.390, 780.0, 27.9285
58.447980777, 96.390, 711.0, 26.6646
58.474241342, 96.390, 774.0, 27.8209
58.500501907, 96.390, 750.0, 27.3861
58.526762473, 96.390, 713.0, 26.7021
58.553023038, 96.390, 744.0, 27.2764
58.579283603, 96.390, 760.0, 27.5681
58.605544169, 96.390, 731.0, 27.0370
58.631804734, 96.390, 760.0, 27.5681
58.658065300, 96.390, 746.0, 27.3130
58.684325865, 96.390, 694.0, 26.3439
58.710586430, 96.390, 699.0, 26.4386
58.736846996, 96.390, 697.0, 26.4008
58.763107561, 96.390, 704.0, 26.5330
58.789368126, 96.390, 750.0, 27.3861
58.815628692, 96.390, 696.0, 26.3818
58.841889257, 96.390, 693.0, 26.3249
58.868149822, 96.390, 708.0, 26.6083
58.894410388, 96.390, 729.0, 27.0000
58.920670953, 96.390, 716.0, 26.7582
58.946931518, 96.390, 720.0, 26.8328
58.973192084, 96.390, 711.0, 26.6646
58.999452649, 96.390, 687.0, 26.2107
59.025713214, 96.390, 715.0, 26.7395
59.051973780, 96.390, 731.0, 27.0370
59.078234345, 96.390, 721.0, 26.8514
59.104494911, 96.390, 745.0, 27.2947
59.130755476, 96.390, 696.0, 26.3818
59.157016041, 96.390, 720.0, 26.8328
59.183276607, 96.390, 784.0, 28.0000
59.209537172, 96.390, 752.0, 27.4226
59.235797737, 96.390, 769.0, 27.7308
59.262058303, 96.390, 824.0, 28.7054
59.288318868, 96.390, 744.0, 27.2764
59.314579433, 96.390, 762.0, 27.6043
59.340839999, 96.390, 822.0, 28.6705
59.367100564, 96.390, 788.0, 28.0713
59.393361129, 96.390, 783.0, 27.9821
59.419621695, 96.390, 725.0, 26.9258
59.445882260, 96.390, 728.0, 26.9815
59.472142826, 96.390, 787.0, 28.0535
59.498403391, 96.390, 724.0, 26.9072
59.524663956, 96.390, 770.0, 27.7489
59.550924522, 96.390, 688.0, 26.2298
59.577185087, 96.390, 753.0, 27.4408
59.603445652, 96.390, 735.0, 27.1109
59.629706218, 96.390, 771.0, 27.7669
59.655966783, 96.390, 792.0, 28.1425
59.682227348, 96.390, 722.0, 26.8701
59.708487914, 96.390, 835.0, 28.8964
59.734748479, 96.390, 745.0, 27.2947
59.761009044, 96.390, 784.0, 28.0000
59.787269610, 96.390, 771.0, 27.7669
59.813530175, 96.390, 839.0, 28.9655
59.839790740, 96.390, 825.0, 28.7228
59.866051306, 96.390, 804.0, 28.3549
59.892311871, 96.390, 853.0, 29.2062
59.918572437, 96.390, 825.0, 28.7228
59.944833002, 96.390, 854.0, 29.2233
59.971093567, 96.390, 787.0, 28.0535
59.997354133, 96.390, 738.0, 27.1662
60.023614698, 96.390, 834.0, 28.8791
60.049875263, 96.390, 854.0, 29.2233
60.076135829, 96.390, 837.0, 28.9310
60.102396394, 96.390, 809.0, 28.4429
60.128656959, 96.390, 849.0, 29.1376
60.154917525, 96.390, 827.0, 28.7576
60.181178090, 96.390, 860.0, 29.3258
60.207438655, 96.390, 808.0, 28.4253
60.233699221, 96.390, 907.0, 30.1164
60.259959786, 96.390, 807.0, 28.4077
60.286220352, 96.390, 817.0, 28.5832
60.312480917, 96.390, 806.0, 28.3901
60.338741482, 96.390, 815.0, 28.5482
60.365002048, 96.390, 809.0, 28.4429
60.391262613, 96.390, 848.0, 29.1204
60.417523178, 96.390, 851.0, 29.1719
60.443783744, 96.390, 793.0, 28.1603
60.470044309, 96.390, 827.0, 28.7576
60.496304874, 96.390, 853.0, 29.2062
60.522565440, 96.390, 814.0, 28.5307
60.548826005, 96.390, 852.0, 29.1890
60.575086570, 96.390, 877.0, 29.6142
60.601347136, 96.390, 857.0, 29.2746
60.627607701, 96.390, 842.0, 29.0172
60.653868266, 96.390, 935.0, 30.5778
60.680128832, 96.390, 884.0, 29.7321
60.706389397, 96.390, 870.0, 29.4958
60.732649963, 96.390, 881.0, 29.6816
60.758910528, 96.390, 900.0, 30.0000
60.785171093, 96.390, 917.0, 30.2820
60.811431659, 96.390, 896.0, 29.9333
60.837692224, 96.390, 879.0, 29.6479
60.863952789, 96.390, 853.0, 29.2062
60.890213355, 96.390, 930.0, 30.4959
60.916473920, 96.390, 971.0, 31.1609
60.942734485, 96.390, 940.0, 30.6594
60.968995051, 96.390, 951.0, 30.8383
60.995255616, 96.390, 933.0, 30.5450
61.021516181, 96.390, 908.0, 30.1330
61.047776747, 96.390, 921.0, 30.3480
61.074037312, 96.390, 966.0, 31.0805
61.100297878, 96.390, 948.0, 30.7896
61.126558443, 96.390, 952.0, 30.8545
61.152819008, 96.390, 958.0, 30.9516
61.179079574, 96.390, 972.0, 31.1769
61.205340139, 96.390, 968.0, 31.1127
61.231600704, 96.390, 958.0, 30.9516
61.257861270, 96.390, 909.0, 30.1496
61.284121835, 96.390, 996.0, 31.5595
61.310382400, 96.390, 963.0, 31.0322
61.336642966, 96.390, 963.0, 31.0322
61.362903531, 96.390, 982.0, 31.3369
61.389164096, 96.390, 982.0, 31.3369
61.415424662, 96.390, 982.0, 31.3369
61.441685227, 96.390, 971.0, 31.1609
61.467945792, 96.390, 998.0, 31.5911
61.494206358, 96.390, 1010.0, 31.7805
61.520466923, 96.390, 951.0, 30.8383
61.546727489, 96.390, 933.0, 30.5450
61.572988054, 96.390, 891.0, 29.8496
61.599248619, 96.390, 933.0, 30.5450
61.625509185, 96.390, 957.0, 30.9354
61.651769750, 96.390, 886.0, 29.7658
61.678030315, 96.390, 927.0, 30.4467
61.704290881, 96.390, 928.0, 30.4631
61.730551446, 96.390, 936.0, 30.5941
61.756812011, 96.390, 854.0, 29.2233
61.783072577, 96.390, 914.0, 30.2324
61.809333142, 96.390, 872.0, 29.5296
61.835593707, 96.390, 879.0, 29.6479
61.861854273, 96.390, 842.0, 29.0172
61.888114838, 96.390, 844.0, 29.0517
61.914375404, 96.390, 879.0, 29.6479
61.940635969, 96.390, 840.0, 28.9828
61.966896534, 96.390, 796.0, 28.2135
61.993157100, 96.390, 826.0, 28.7402
62.019417665, 96.390, 782.0, 27.9643
62.045678230, 96.390, 842.0, 29.0172
62.071938796, 96.390, 835.0, 28.8964
62.098199361, 96.390, 828.0, 28.7750
62.124459926, 96.390, 835.0, 28.8964
62.150720492, 96.390, 834.0, 28.8791
62.176981057, 96.390, 717.0, 26.7769
62.203241622, 96.390, 791.0, 28.1247
62.229502188, 96.390, 796.0, 28.2135
62.255762753, 96.390, 758.0, 27.5318
62.282023318, 96.390, 778.0, 27.8927
62.308283884, 96.390, 750.0, 27.3861
62.334544449, 96.390, 802.0, 28.3196
62.360805015, 96.390, 788.0, 28.0713
62.387065580, 96.390, 770.0, 27.7489
62.413326145, 96.390, 803.0, 28.3373
62.439586711, 96.390, 752.0, 27.4226
62.465847276, 96.390, 765.0, 27.6586
62.492107841, 96.390, 747.0, 27.3313
62.518368407, 96.390, 754.0, 27.4591
62.544628972, 96.390, 779.0, 27.9106
62.570889537, 96.390, 774.0, 27.8209
62.597150103, 96.390, 800.0, 28.2843
62.623410668, 96.390, 808.0, 28.4253
62.649671233, 96.390, 838.0, 28.9482
62.675931799, 96.390, 794.0, 28.1780
62.702192364, 96.390, 781.0, 27.9464
62.728452930, 96.390, 763.0, 27.6225
62.754713495, 96.390, 820.0, 28.6356
62.780974060, 96.390, 761.0, 27.5862
62.807234626, 96.390, 799.0, 28.2666
62.833495191, 96.390, 792.0, 28.1425
62.859755756, 96.390, 743.0, 27.2580
62.886016322, 96.390, 691.0, 26.2869
62.912276887, 96.390, 729.0, 27.0000
62.938537452, 96.390, 693.0, 26.3249
62.964798018, 96.390, 707.0, 26.5895
62.991058583, 96.390, 694.0, 26.3439
63.017319148, 96.390, 703.0, 26.5141
63.043579714, 96.390, 669.0, 25.8650
63.069840279, 96.390, 663.0, 25.7488
63.096100844, 96.390, 705.0, 26.5518
63.122361410, 96.390, 723.0, 26.8887
63.148621975, 96.390, 677.0, 26.0192
63.174882541, 96.390, 688.0, 26.2298
63.201143106, 96.390, 641.0, 25.3180
63.227403671, 96.390, 645.0, 25.3969
63.253664237, 96.390, 655.0, 25.5930
63.279924802, 96.390, 705.0, 26.5518
63.306185367, 96.390, 676.0, 26.0000
63.332445933, 96.390, 679.0, 26.0576
63.358706498, 96.390, 668.0, 25.8457
63.384967063, 96.390, 655.0, 25.5930
63.411227629, 96.390, 654.0, 25.5734
63.437488194, 96.390, 673.0, 25.9422
63.463748759, 96.390, 736.0, 27.1293
63.490009325, 96.390, 635.0, 25.1992
63.516269890, 96.390, 683.0, 26.1343
63.542530455, 96.390, 679.0, 26.0576
63.568791021, 96.390, 663.0, 25.7488
63.595051586, 96.390, 660.0, 25.6905
63.621312152, 96.390, 666.0, 25.8070
63.647572717, 96.390, 634.0, 25.1794
63.673833282, 96.390, 635.0, 25.1992
63.700093848, 96.390, 662.0, 25.7294
63.726354413, 96.390, 695.0, 26.3629
63.752614978, 96.390, 691.0, 26.2869
63.778875544, 96.390, 757.0, 27.5136
63.805136109, 96.390, 730.0, 27.0185
63.831396674, 96.390, 760.0, 27.5681
63.857657240, 96.390, 707.0, 26.5895
63.883917805, 96.390, 679.0, 26.0576
63.910178370, 96.390, 695.0, 26.3629
63.936438936, 96.390, 686.0, 26.1916
63.962699501, 96.390, 712.0, 26.6833
63.988960067, 96.390, 701.0, 26.4764
64.015220632, 96.390, 676.0, 26.0000
64.041481197, 96.390, 735.0, 27.1109
64.067741763, 96.390, 706.0, 26.5707
64.094002328, 96.390, 645.0, 25.3969
64.120262893, 96.390, 690.0, 26.2679
64.146523459, 96.390, 717.0, 26.7769
64.172784024, 96.390, 640.0, 25.2982
64.199044589, 96.390, 704.0, 26.5330
64.225305155, 96.390, 693.0, 26.3249
64.251565720, 96.390, 664.0, 25.7682
64.277826285, 96.390, 655.0, 25.5930
64.304086851, 96.390, 650.0, 25.4951
64.330347416, 96.390, 660.0, 25.6905
64.356607981, 96.390, 656.0, 25.6125
64.382868547, 96.390, 641.0, 25.3180
64.409129112, 96.390, 691.0, 26.2869
64.435389678, 96.390, 665.0, 25.7876
64.461650243, 96.390, 687.0, 26.2107
64.487910808, 96.390, 602.0, 24.5357
64.514171374, 96.390, 616.0, 24.8193
64.540431939, 96.390, 605.0, 24.5967
64.566692504, 96.390, 627.0, 25.0400
64.592953070, 96.390, 632.0, 25.1396
64.619213635, 96.390, 594.0, 24.3721
64.645474200, 96.390, 636.0, 25.2190
64.671734766, 96.390, 627.0, 25.0400
64.697995331, 96.390, 628.0, 25.0599
64.724255896, 96.390, 605.0, 24.5967
64.750516462, 96.390, 628.0, 25.0599
64.776777027, 96.390, 585.0, 24.1868
64.803037593, 96.390, 612.0, 24.7386
64.829298158, 96.390, 599.0, 24.4745
64.855558723, 96.390, 604.0, 24.5764
64.881819289, 96.390, 625.0, 25.0000
64.908079854, 96.390, 564.0, 23.7487
64.934340419, 96.390, 609.0, 24.6779
64.960600985, 96.390, 632.0, 25.1396
64.986861550, 96.390, 618.0, 24.8596
