[Measurement conditions],,,
Sample identification,Centroid08Dec21_Act13Feb23_B1_0714M_NaOH_LS0173_Num160,,
Comment - 2,"Configuration=Stage for Flat Samples/Holders, Owner=nmw10, Creation date=9/21/2022 10:06:30 AM",,
Comment - 3,Goniometer=Theta/Theta; Minimum step size 2Theta:0.0001; Minimum step size Omega:0.0001,,
Comment - 4,Sample stage=Stage for flat samples/holders,,
Comment - 5,Diffractometer system=EMPYREAN,,
Comment - 6,"Measurement program=X:\XRD\Cement\Zerobackground scan.xrdmp, Created identifier={98A3B11C-88F9-4AA6-982C-73314A311EF5}, Created by=Titus Reed, Id=tmr79, Creation date=10/26/2021 3:01:47 PM",,
Anode material,Cu,,
K-Alpha1 wavelength,1.540598,,
K-Alpha2 wavelength,1.544426,,
Ratio K-Alpha2/K-Alpha1,0.5,,
Divergence slit,Fixed,0.25,
Monochromator used,NO,,
Generator voltage,45,,
Tube current,40,,
File date and time,3/15/2023 21:13,,
Unit cell,,,
h k l, 0 0 0,,
Scan axis,Gonio,,
Scan range,4.994599997,64.99999183,
Scan step size,0.0262606,,
No. of points,2285,,
Scan type,CONTINUOUS,,
Time per step,96.39,,
[Scan points],,,
Angle, TimePerStep, Intensity, ESD
5.00773028,96.39,4150,64.4205
5.033990845,96.39,4110,64.1093
5.060251411,96.39,4181,64.6607
5.086511976,96.39,4068,63.7809
5.112772541,96.39,4125,64.2262
5.139033107,96.39,4088,63.9375
5.165293672,96.39,4039,63.5531
5.191554237,96.39,3997,63.2218
5.217814803,96.39,3923,62.6339
5.244075368,96.39,3973,63.0317
5.270335934,96.39,4032,63.498
5.296596499,96.39,3836,61.9355
5.322857064,96.39,3993,63.1902
5.34911763,96.39,3958,62.9126
5.375378195,96.39,3802,61.6604
5.40163876,96.39,3885,62.3298
5.427899326,96.39,3758,61.3025
5.454159891,96.39,3799,61.636
5.480420456,96.39,3778,61.4654
5.506681022,96.39,3855,62.0886
5.532941587,96.39,3710,60.9098
5.559202152,96.39,3883,62.3137
5.585462718,96.39,3592,59.9333
5.611723283,96.39,3631,60.2578
5.637983849,96.39,3753,61.2617
5.664244414,96.39,3496,59.127
5.690504979,96.39,3703,60.8523
5.716765545,96.39,3657,60.4731
5.74302611,96.39,3595,59.9583
5.769286675,96.39,3681,60.6712
5.795547241,96.39,3601,60.0083
5.821807806,96.39,3664,60.531
5.848068371,96.39,3680,60.663
5.874328937,96.39,3586,59.8832
5.900589502,96.39,3527,59.3886
5.926850067,96.39,3610,60.0833
5.953110633,96.39,3581,59.8415
5.979371198,96.39,3623,60.1914
6.005631763,96.39,3513,59.2706
6.031892329,96.39,3620,60.1664
6.058152894,96.39,3569,59.7411
6.08441346,96.39,3632,60.2661
6.110674025,96.39,3589,59.9083
6.13693459,96.39,3596,59.9667
6.163195156,96.39,3624,60.1997
6.189455721,96.39,3608,60.0666
6.215716286,96.39,3556,59.6322
6.241976852,96.39,3484,59.0254
6.268237417,96.39,3530,59.4138
6.294497982,96.39,3606,60.05
6.320758548,96.39,3479,58.983
6.347019113,96.39,3622,60.1831
6.373279678,96.39,3481,59
6.399540244,96.39,3414,58.4294
6.425800809,96.39,3455,58.7792
6.452061375,96.39,3515,59.2874
6.47832194,96.39,3406,58.3609
6.504582505,96.39,3448,58.7197
6.530843071,96.39,3479,58.983
6.557103636,96.39,3410,58.3952
6.583364201,96.39,3312,57.55
6.609624767,96.39,3556,59.6322
6.635885332,96.39,3491,59.0847
6.662145897,96.39,3466,58.8727
6.688406463,96.39,3436,58.6174
6.714667028,96.39,3470,58.9067
6.740927593,96.39,3412,58.4123
6.767188159,96.39,3454,58.7707
6.793448724,96.39,3416,58.4466
6.819709289,96.39,3479,58.983
6.845969855,96.39,3451,58.7452
6.87223042,96.39,3340,57.7927
6.898490986,96.39,3437,58.6259
6.924751551,96.39,3493,59.1016
6.951012116,96.39,3460,58.8218
6.977272682,96.39,3413,58.4209
7.003533247,96.39,3439,58.643
7.029793812,96.39,3480,58.9915
7.056054378,96.39,3382,58.155
7.082314943,96.39,3403,58.3352
7.108575508,96.39,3541,59.5063
7.134836074,96.39,3384,58.1722
7.161096639,96.39,3320,57.6194
7.187357204,96.39,3332,57.7235
7.21361777,96.39,3398,58.2924
7.239878335,96.39,3480,58.9915
7.2661389,96.39,3353,57.9051
7.292399466,96.39,3353,57.9051
7.318660031,96.39,3399,58.3009
7.344920597,96.39,3375,58.0948
7.371181162,96.39,3395,58.2666
7.397441727,96.39,3435,58.6089
7.423702293,96.39,3350,57.8792
7.449962858,96.39,3470,58.9067
7.476223423,96.39,3351,57.8878
7.502483989,96.39,3408,58.3781
7.528744554,96.39,3315,57.576
7.555005119,96.39,3403,58.3352
7.581265685,96.39,3345,57.836
7.60752625,96.39,3470,58.9067
7.633786815,96.39,3439,58.643
7.660047381,96.39,3225,56.7891
7.686307946,96.39,3333,57.7321
7.712568512,96.39,3415,58.438
7.738829077,96.39,3420,58.4808
7.765089642,96.39,3341,57.8014
7.791350208,96.39,3436,58.6174
7.817610773,96.39,3366,58.0172
7.843871338,96.39,3341,57.8014
7.870131904,96.39,3417,58.4551
7.896392469,96.39,3365,58.0086
7.922653034,96.39,3453,58.7622
7.9489136,96.39,3415,58.438
7.975174165,96.39,3463,58.8473
8.00143473,96.39,3303,57.4717
8.027695296,96.39,3316,57.5847
8.053955861,96.39,3330,57.7062
8.080216426,96.39,3333,57.7321
8.106476992,96.39,3391,58.2323
8.132737557,96.39,3429,58.5577
8.158998123,96.39,3374,58.0861
8.185258688,96.39,3399,58.3009
8.211519253,96.39,3328,57.6888
8.237779819,96.39,3487,59.0508
8.264040384,96.39,3409,58.3866
8.290300949,96.39,3371,58.0603
8.316561515,96.39,3378,58.1206
8.34282208,96.39,3279,57.2626
8.369082645,96.39,3377,58.112
8.395343211,96.39,3415,58.438
8.421603776,96.39,3397,58.2838
8.447864341,96.39,3469,58.8982
8.474124907,96.39,3411,58.4038
8.500385472,96.39,3457,58.7963
8.526646038,96.39,3457,58.7963
8.552906603,96.39,3472,58.9237
8.579167168,96.39,3357,57.9396
8.605427734,96.39,3424,58.515
8.631688299,96.39,3290,57.3585
8.657948864,96.39,3343,57.8187
8.68420943,96.39,3320,57.6194
8.710469995,96.39,3287,57.3324
8.73673056,96.39,3434,58.6003
8.762991126,96.39,3303,57.4717
8.789251691,96.39,3457,58.7963
8.815512256,96.39,3277,57.2451
8.841772822,96.39,3379,58.1292
8.868033387,96.39,3327,57.6802
8.894293952,96.39,3417,58.4551
8.920554518,96.39,3368,58.0345
8.946815083,96.39,3432,58.5833
8.973075649,96.39,3437,58.6259
8.999336214,96.39,3353,57.9051
9.025596779,96.39,3391,58.2323
9.051857345,96.39,3188,56.4624
9.07811791,96.39,3399,58.3009
9.104378475,96.39,3374,58.0861
9.130639041,96.39,3268,57.1664
9.156899606,96.39,3274,57.2189
9.183160171,96.39,3264,57.1314
9.209420737,96.39,3304,57.4804
9.235681302,96.39,3366,58.0172
9.261941867,96.39,3379,58.1292
9.288202433,96.39,3296,57.4108
9.314462998,96.39,3347,57.8533
9.340723564,96.39,3348,57.8619
9.366984129,96.39,3309,57.5239
9.393244694,96.39,3310,57.5326
9.41950526,96.39,3376,58.1034
9.445765825,96.39,3268,57.1664
9.47202639,96.39,3405,58.3524
9.498286956,96.39,3457,58.7963
9.524547521,96.39,3354,57.9137
9.550808086,96.39,3368,58.0345
9.577068652,96.39,3380,58.1378
9.603329217,96.39,3336,57.7581
9.629589782,96.39,3331,57.7148
9.655850348,96.39,3295,57.4021
9.682110913,96.39,3372,58.0689
9.708371478,96.39,3297,57.4195
9.734632044,96.39,3334,57.7408
9.760892609,96.39,3291,57.3672
9.787153175,96.39,3296,57.4108
9.81341374,96.39,3250,57.0088
9.839674305,96.39,3248,56.9912
9.865934871,96.39,3309,57.5239
9.892195436,96.39,3282,57.2887
9.918456001,96.39,3329,57.6975
9.944716567,96.39,3371,58.0603
9.970977132,96.39,3363,57.9914
9.997237697,96.39,3283,57.2975
10.02349826,96.39,3278,57.2538
10.04975883,96.39,3302,57.463
10.07601939,96.39,3284,57.3062
10.10227996,96.39,3338,57.7754
10.12854052,96.39,3326,57.6715
10.15480109,96.39,3349,57.8705
10.18106166,96.39,3345,57.836
10.20732222,96.39,3341,57.8014
10.23358279,96.39,3291,57.3672
10.25984335,96.39,3254,57.0438
10.28610392,96.39,3252,57.0263
10.31236448,96.39,3241,56.9298
10.33862505,96.39,3309,57.5239
10.36488561,96.39,3360,57.9655
10.39114618,96.39,3252,57.0263
10.41740674,96.39,3382,58.155
10.44366731,96.39,3280,57.2713
10.46992787,96.39,3324,57.6541
10.49618844,96.39,3267,57.1577
10.522449,96.39,3314,57.5674
10.54870957,96.39,3245,56.9649
10.57497014,96.39,3271,57.1927
10.6012307,96.39,3245,56.9649
10.62749127,96.39,3261,57.1052
10.65375183,96.39,3235,56.8771
10.6800124,96.39,3272,57.2014
10.70627296,96.39,3228,56.8155
10.73253353,96.39,3276,57.2364
10.75879409,96.39,3264,57.1314
10.78505466,96.39,3223,56.7715
10.81131522,96.39,3176,56.356
10.83757579,96.39,3276,57.2364
10.86383635,96.39,3191,56.4889
10.89009692,96.39,3262,57.1139
10.91635749,96.39,3246,56.9737
10.94261805,96.39,3301,57.4543
10.96887862,96.39,3322,57.6368
10.99513918,96.39,3246,56.9737
11.02139975,96.39,3211,56.6657
11.04766031,96.39,3195,56.5243
11.07392088,96.39,3144,56.0714
11.10018144,96.39,3195,56.5243
11.12644201,96.39,3130,55.9464
11.15270257,96.39,3141,56.0446
11.17896314,96.39,3162,56.2317
11.2052237,96.39,3121,55.8659
11.23148427,96.39,3102,55.6956
11.25774483,96.39,3054,55.263
11.2840054,96.39,3186,56.4447
11.31026597,96.39,3107,55.7405
11.33652653,96.39,3072,55.4256
11.3627871,96.39,3149,56.116
11.38904766,96.39,3124,55.8928
11.41530823,96.39,3061,55.3263
11.44156879,96.39,3136,56
11.46782936,96.39,3146,56.0892
11.49408992,96.39,3004,54.8088
11.52035049,96.39,3086,55.5518
11.54661105,96.39,2966,54.461
11.57287162,96.39,3044,55.1725
11.59913218,96.39,2923,54.0648
11.62539275,96.39,3060,55.3173
11.65165332,96.39,3034,55.0818
11.67791388,96.39,2950,54.3139
11.70417445,96.39,3094,55.6237
11.73043501,96.39,3076,55.4617
11.75669558,96.39,3049,55.2178
11.78295614,96.39,2966,54.461
11.80921671,96.39,2893,53.7866
11.83547727,96.39,3061,55.3263
11.86173784,96.39,2885,53.7122
11.8879984,96.39,2909,53.9351
11.91425897,96.39,2875,53.619
11.94051953,96.39,2883,53.6936
11.9667801,96.39,2921,54.0463
11.99304066,96.39,2909,53.9351
12.01930123,96.39,2818,53.0848
12.0455618,96.39,2927,54.1018
12.07182236,96.39,2879,53.6563
12.09808293,96.39,2809,53
12.12434349,96.39,2879,53.6563
12.15060406,96.39,2870,53.5724
12.17686462,96.39,2840,53.2917
12.20312519,96.39,2837,53.2635
12.22938575,96.39,2875,53.619
12.25564632,96.39,2917,54.0093
12.28190688,96.39,2822,53.1225
12.30816745,96.39,2817,53.0754
12.33442801,96.39,2857,53.4509
12.36068858,96.39,2848,53.3667
12.38694915,96.39,2806,52.9717
12.41320971,96.39,2779,52.7162
12.43947028,96.39,2855,53.4322
12.46573084,96.39,2762,52.5547
12.49199141,96.39,2726,52.2111
12.51825197,96.39,2745,52.3927
12.54451254,96.39,2764,52.5738
12.5707731,96.39,2760,52.5357
12.59703367,96.39,2823,53.1319
12.62329423,96.39,2752,52.4595
12.6495548,96.39,2814,53.0471
12.67581536,96.39,2817,53.0754
12.70207593,96.39,2759,52.5262
12.72833649,96.39,2816,53.066
12.75459706,96.39,2742,52.3641
12.78085763,96.39,2782,52.7447
12.80711819,96.39,2684,51.8073
12.83337876,96.39,2734,52.2877
12.85963932,96.39,2694,51.9038
12.88589989,96.39,2620,51.1859
12.91216045,96.39,2588,50.8724
12.93842102,96.39,2666,51.6333
12.96468158,96.39,2685,51.817
12.99094215,96.39,2572,50.7149
13.01720271,96.39,2594,50.9313
13.04346328,96.39,2628,51.264
13.06972384,96.39,2616,51.1468
13.09598441,96.39,2559,50.5866
13.12224498,96.39,2567,50.6656
13.14850554,96.39,2662,51.5946
13.17476611,96.39,2588,50.8724
13.20102667,96.39,2595,50.9411
13.22728724,96.39,2546,50.4579
13.2535478,96.39,2595,50.9411
13.27980837,96.39,2535,50.3488
13.30606893,96.39,2587,50.8626
13.3323295,96.39,2585,50.8429
13.35859006,96.39,2745,52.3927
13.38485063,96.39,2683,51.7977
13.41111119,96.39,2744,52.3832
13.43737176,96.39,2802,52.9339
13.46363232,96.39,2964,54.4426
13.48989289,96.39,2984,54.626
13.51615346,96.39,2857,53.4509
13.54241402,96.39,2593,50.9215
13.56867459,96.39,2753,52.469
13.59493515,96.39,2595,50.9411
13.62119572,96.39,2609,51.0784
13.64745628,96.39,2633,51.3128
13.67371685,96.39,2551,50.5074
13.69997741,96.39,2683,51.7977
13.72623798,96.39,2746,52.4023
13.75249854,96.39,2817,53.0754
13.77875911,96.39,2878,53.647
13.80501967,96.39,2831,53.2071
13.83128024,96.39,2818,53.0848
13.85754081,96.39,2687,51.8363
13.88380137,96.39,2712,52.0769
13.91006194,96.39,2712,52.0769
13.9363225,96.39,2578,50.774
13.96258307,96.39,2480,49.7996
13.98884363,96.39,2442,49.4166
14.0151042,96.39,2456,49.558
14.04136476,96.39,2487,49.8698
14.06762533,96.39,2574,50.7346
14.09388589,96.39,2588,50.8724
14.12014646,96.39,2587,50.8626
14.14640702,96.39,2736,52.3068
14.17266759,96.39,2895,53.8052
14.19892815,96.39,3147,56.0981
14.22518872,96.39,3276,57.2364
14.25144929,96.39,3241,56.9298
14.27770985,96.39,3046,55.1906
14.30397042,96.39,2661,51.5849
14.33023098,96.39,2488,49.8799
14.35649155,96.39,2442,49.4166
14.38275211,96.39,2354,48.518
14.40901268,96.39,2455,49.548
14.43527324,96.39,2370,48.6826
14.46153381,96.39,2417,49.163
14.48779437,96.39,2250,47.4342
14.51405494,96.39,2396,48.949
14.5403155,96.39,2411,49.1019
14.56657607,96.39,2226,47.1805
14.59283663,96.39,2427,49.2646
14.6190972,96.39,2365,48.6313
14.64535777,96.39,2303,47.9896
14.67161833,96.39,2322,48.1871
14.6978789,96.39,2258,47.5184
14.72413946,96.39,2336,48.3322
14.75040003,96.39,2414,49.1325
14.77666059,96.39,2355,48.5283
14.80292116,96.39,2288,47.833
14.82918172,96.39,2301,47.9687
14.85544229,96.39,2351,48.4871
14.88170285,96.39,2261,47.55
14.90796342,96.39,2295,47.9062
14.93422398,96.39,2336,48.3322
14.96048455,96.39,2269,47.634
14.98674512,96.39,2300,47.9583
15.01300568,96.39,2363,48.6107
15.03926625,96.39,2409,49.0816
15.06552681,96.39,2324,48.2079
15.09178738,96.39,2480,49.7996
15.11804794,96.39,2439,49.3862
15.14430851,96.39,2444,49.4368
15.17056907,96.39,2532,50.319
15.19682964,96.39,2851,53.3948
15.2230902,96.39,2842,53.3104
15.24935077,96.39,3070,55.4076
15.27561133,96.39,2791,52.8299
15.3018719,96.39,2643,51.4101
15.32813246,96.39,2461,49.6085
15.35439303,96.39,2325,48.2183
15.3806536,96.39,2339,48.3632
15.40691416,96.39,2330,48.2701
15.43317473,96.39,2274,47.6865
15.45943529,96.39,2266,47.6025
15.48569586,96.39,2258,47.5184
15.51195642,96.39,2199,46.8935
15.53821699,96.39,2259,47.5289
15.56447755,96.39,2152,46.3897
15.59073812,96.39,2179,46.6798
15.61699868,96.39,2166,46.5403
15.64325925,96.39,2163,46.5081
15.66951981,96.39,2037,45.1331
15.69578038,96.39,2217,47.085
15.72204095,96.39,2113,45.9674
15.74830151,96.39,2206,46.9681
15.77456208,96.39,2143,46.2925
15.80082264,96.39,2078,45.5851
15.82708321,96.39,2139,46.2493
15.85334377,96.39,2106,45.8912
15.87960434,96.39,2152,46.3897
15.9058649,96.39,2204,46.9468
15.93212547,96.39,2124,46.0869
15.95838603,96.39,2242,47.3498
15.9846466,96.39,2212,47.0319
16.01090716,96.39,2181,46.7012
16.03716773,96.39,2169,46.5725
16.06342829,96.39,2210,47.0106
16.08968886,96.39,2166,46.5403
16.11594943,96.39,2142,46.2817
16.14220999,96.39,2155,46.422
16.16847056,96.39,2152,46.3897
16.19473112,96.39,2158,46.4543
16.22099169,96.39,2024,44.9889
16.24725225,96.39,2181,46.7012
16.27351282,96.39,2120,46.0435
16.29977338,96.39,2186,46.7547
16.32603395,96.39,2179,46.6798
16.35229451,96.39,2176,46.6476
16.37855508,96.39,2212,47.0319
16.40481564,96.39,2205,46.9574
16.43107621,96.39,2244,47.3709
16.45733678,96.39,2210,47.0106
16.48359734,96.39,2194,46.8402
16.50985791,96.39,2222,47.1381
16.53611847,96.39,2068,45.4753
16.56237904,96.39,2135,46.2061
16.5886396,96.39,2199,46.8935
16.61490017,96.39,2154,46.4112
16.64116073,96.39,2090,45.7165
16.6674213,96.39,2184,46.7333
16.69368186,96.39,2081,45.618
16.71994243,96.39,2218,47.0956
16.74620299,96.39,2172,46.6047
16.77246356,96.39,2154,46.4112
16.79872412,96.39,2186,46.7547
16.82498469,96.39,2177,46.6583
16.85124526,96.39,2256,47.4974
16.87750582,96.39,2240,47.3286
16.90376639,96.39,2271,47.655
16.93002695,96.39,2137,46.2277
16.95628752,96.39,2170,46.5833
16.98254808,96.39,2123,46.076
17.00880865,96.39,2132,46.1736
17.03506921,96.39,2121,46.0543
17.06132978,96.39,2161,46.4866
17.08759034,96.39,2153,46.4004
17.11385091,96.39,2065,45.4423
17.14011147,96.39,2103,45.8585
17.16637204,96.39,2170,46.5833
17.19263261,96.39,2015,44.8888
17.21889317,96.39,2105,45.8803
17.24515374,96.39,2068,45.4753
17.2714143,96.39,2155,46.422
17.29767487,96.39,2172,46.6047
17.32393543,96.39,2230,47.2229
17.350196,96.39,2280,47.7493
17.37645656,96.39,2248,47.4131
17.40271713,96.39,2290,47.8539
17.42897769,96.39,2213,47.0425
17.45523826,96.39,2133,46.1844
17.48149882,96.39,2109,45.9239
17.50775939,96.39,2086,45.6727
17.53401995,96.39,2149,46.3573
17.56028052,96.39,2219,47.1063
17.58654109,96.39,2154,46.4112
17.61280165,96.39,2100,45.8258
17.63906222,96.39,2055,45.3321
17.66532278,96.39,2104,45.8694
17.69158335,96.39,2142,46.2817
17.71784391,96.39,2064,45.4313
17.74410448,96.39,2144,46.3033
17.77036504,96.39,2094,45.7602
17.79662561,96.39,2099,45.8148
17.82288617,96.39,2079,45.5961
17.84914674,96.39,2145,46.3141
17.8754073,96.39,2168,46.5618
17.90166787,96.39,2047,45.2438
17.92792843,96.39,2191,46.8081
17.954189,96.39,2147,46.3357
17.98044957,96.39,2204,46.9468
18.00671013,96.39,2122,46.0652
18.0329707,96.39,2037,45.1331
18.05923126,96.39,2156,46.4327
18.08549183,96.39,2196,46.8615
18.11175239,96.39,2194,46.8402
18.13801296,96.39,2211,47.0213
18.16427352,96.39,2200,46.9042
18.19053409,96.39,2296,47.9166
18.21679465,96.39,2313,48.0937
18.24305522,96.39,2442,49.4166
18.26931578,96.39,2544,50.4381
18.29557635,96.39,2609,51.0784
18.32183692,96.39,2514,50.1398
18.34809748,96.39,2403,49.0204
18.37435805,96.39,2367,48.6518
18.40061861,96.39,2317,48.1352
18.42687918,96.39,2284,47.7912
18.45313974,96.39,2241,47.3392
18.47940031,96.39,2173,46.6154
18.50566087,96.39,2263,47.571
18.53192144,96.39,2205,46.9574
18.558182,96.39,2119,46.0326
18.58444257,96.39,2066,45.4533
18.61070313,96.39,2186,46.7547
18.6369637,96.39,2135,46.2061
18.66322426,96.39,2235,47.2758
18.68948483,96.39,2215,47.0638
18.7157454,96.39,2216,47.0744
18.74200596,96.39,2182,46.7119
18.76826653,96.39,2269,47.634
18.79452709,96.39,2226,47.1805
18.82078766,96.39,2174,46.6262
18.84704822,96.39,2338,48.3529
18.87330879,96.39,2207,46.9787
18.89956935,96.39,2242,47.3498
18.92582992,96.39,2260,47.5395
18.95209048,96.39,2247,47.4025
18.97835105,96.39,2313,48.0937
19.00461161,96.39,2352,48.4974
19.03087218,96.39,2160,46.4758
19.05713275,96.39,2261,47.55
19.08339331,96.39,2367,48.6518
19.10965388,96.39,2299,47.9479
19.13591444,96.39,2245,47.3814
19.16217501,96.39,2286,47.8121
19.18843557,96.39,2222,47.1381
19.21469614,96.39,2276,47.7074
19.2409567,96.39,2260,47.5395
19.26721727,96.39,2239,47.3181
19.29347783,96.39,2345,48.4252
19.3197384,96.39,2418,49.1732
19.34599896,96.39,2426,49.2544
19.37225953,96.39,2520,50.1996
19.39852009,96.39,2642,51.4004
19.42478066,96.39,2652,51.4976
19.45104123,96.39,2719,52.144
19.47730179,96.39,2553,50.5272
19.50356236,96.39,2435,49.3457
19.52982292,96.39,2441,49.4065
19.55608349,96.39,2376,48.7442
19.58234405,96.39,2327,48.239
19.60860462,96.39,2374,48.7237
19.63486518,96.39,2553,50.5272
19.66112575,96.39,2627,51.2543
19.68738631,96.39,2630,51.2835
19.71364688,96.39,2865,53.5257
19.73990744,96.39,3002,54.7905
19.76616801,96.39,3195,56.5243
19.79242858,96.39,3100,55.6776
19.81868914,96.39,3014,54.8999
19.84494971,96.39,2909,53.9351
19.87121027,96.39,2980,54.5894
19.89747084,96.39,3274,57.2189
19.9237314,96.39,3560,59.6657
19.94999197,96.39,3539,59.4895
19.97625253,96.39,3378,58.1206
20.0025131,96.39,2956,54.3691
20.02877366,96.39,2631,51.2933
20.05503423,96.39,2516,50.1597
20.08129479,96.39,2368,48.6621
20.10755536,96.39,2319,48.156
20.13381592,96.39,2356,48.5386
20.16007649,96.39,2443,49.4267
20.18633706,96.39,2426,49.2544
20.21259762,96.39,2454,49.5379
20.23885819,96.39,2429,49.2849
20.26511875,96.39,2588,50.8724
20.29137932,96.39,2555,50.547
20.31763988,96.39,2741,52.3546
20.34390045,96.39,2991,54.69
20.37016101,96.39,3121,55.8659
20.39642158,96.39,3467,58.8812
20.42268214,96.39,3467,58.8812
20.44894271,96.39,3352,57.8965
20.47520327,96.39,3209,56.648
20.50146384,96.39,3120,55.857
20.52772441,96.39,3279,57.2626
20.55398497,96.39,3569,59.7411
20.58024554,96.39,3911,62.538
20.6065061,96.39,4479,66.9253
20.63276667,96.39,5113,71.5052
20.65902723,96.39,5806,76.1971
20.6852878,96.39,5949,77.1298
20.71154836,96.39,5336,73.0479
20.73780893,96.39,4366,66.0757
20.76406949,96.39,3564,59.6992
20.79033006,96.39,3097,55.6507
20.81659062,96.39,2761,52.5452
20.84285119,96.39,2642,51.4004
20.86911175,96.39,2576,50.7543
20.89537232,96.39,2499,49.99
20.92163289,96.39,2549,50.4876
20.94789345,96.39,2516,50.1597
20.97415402,96.39,2580,50.7937
21.00041458,96.39,2435,49.3457
21.02667515,96.39,2435,49.3457
21.05293571,96.39,2441,49.4065
21.07919628,96.39,2397,48.9592
21.10545684,96.39,2385,48.8365
21.13171741,96.39,2344,48.4149
21.15797797,96.39,2481,49.8096
21.18423854,96.39,2444,49.4368
21.2104991,96.39,2373,48.7134
21.23675967,96.39,2366,48.6415
21.26302024,96.39,2382,48.8057
21.2892808,96.39,2435,49.3457
21.31554137,96.39,2434,49.3356
21.34180193,96.39,2404,49.0306
21.3680625,96.39,2404,49.0306
21.39432306,96.39,2280,47.7493
21.42058363,96.39,2308,48.0416
21.44684419,96.39,2353,48.5077
21.47310476,96.39,2337,48.3425
21.49936532,96.39,2320,48.1664
21.52562589,96.39,2415,49.1426
21.55188645,96.39,2352,48.4974
21.57814702,96.39,2339,48.3632
21.60440758,96.39,2413,49.1223
21.63066815,96.39,2523,50.2295
21.65692872,96.39,2515,50.1498
21.68318928,96.39,2540,50.3984
21.70944985,96.39,2537,50.3686
21.73571041,96.39,2381,48.7955
21.76197098,96.39,2443,49.4267
21.78823154,96.39,2430,49.295
21.81449211,96.39,2372,48.7032
21.84075267,96.39,2328,48.2494
21.86701324,96.39,2318,48.1456
21.8932738,96.39,2308,48.0416
21.91953437,96.39,2305,48.0104
21.94579493,96.39,2322,48.1871
21.9720555,96.39,2383,48.816
21.99831606,96.39,2421,49.2037
22.02457663,96.39,2394,48.9285
22.0508372,96.39,2331,48.2804
22.07709776,96.39,2576,50.7543
22.10335833,96.39,2431,49.3052
22.12961889,96.39,2435,49.3457
22.15587946,96.39,2407,49.0612
22.18214002,96.39,2324,48.2079
22.20840059,96.39,2403,49.0204
22.23466115,96.39,2351,48.4871
22.26092172,96.39,2282,47.7703
22.28718228,96.39,2373,48.7134
22.31344285,96.39,2322,48.1871
22.33970341,96.39,2430,49.295
22.36596398,96.39,2372,48.7032
22.39222455,96.39,2320,48.1664
22.41848511,96.39,2309,48.0521
22.44474568,96.39,2431,49.3052
22.47100624,96.39,2283,47.7807
22.49726681,96.39,2392,48.9081
22.52352737,96.39,2372,48.7032
22.54978794,96.39,2330,48.2701
22.5760485,96.39,2392,48.9081
22.60230907,96.39,2373,48.7134
22.62856963,96.39,2390,48.8876
22.6548302,96.39,2441,49.4065
22.68109076,96.39,2393,48.9183
22.70735133,96.39,2404,49.0306
22.73361189,96.39,2416,49.1528
22.75987246,96.39,2428,49.2747
22.78613303,96.39,2473,49.7293
22.81239359,96.39,2387,48.8569
22.83865416,96.39,2407,49.0612
22.86491472,96.39,2420,49.1935
22.89117529,96.39,2396,48.949
22.91743585,96.39,2368,48.6621
22.94369642,96.39,2408,49.0714
22.96995698,96.39,2309,48.0521
22.99621755,96.39,2348,48.4562
23.02247811,96.39,2330,48.2701
23.04873868,96.39,2343,48.4045
23.07499924,96.39,2287,47.8226
23.10125981,96.39,2346,48.4355
23.12752038,96.39,2299,47.9479
23.15378094,96.39,2288,47.833
23.18004151,96.39,2358,48.5592
23.20630207,96.39,2263,47.571
23.23256264,96.39,2310,48.0625
23.2588232,96.39,2349,48.4665
23.28508377,96.39,2302,47.9792
23.31134433,96.39,2281,47.7598
23.3376049,96.39,2319,48.156
23.36386546,96.39,2448,49.4773
23.39012603,96.39,2486,49.8598
23.41638659,96.39,2517,50.1697
23.44264716,96.39,2480,49.7996
23.46890772,96.39,2497,49.97
23.49516829,96.39,2629,51.2738
23.52142886,96.39,2652,51.4976
23.54768942,96.39,2538,50.3786
23.57394999,96.39,2446,49.4571
23.60021055,96.39,2452,49.5177
23.62647112,96.39,2388,48.8672
23.65273168,96.39,2359,48.5695
23.67899225,96.39,2370,48.6826
23.70525281,96.39,2336,48.3322
23.73151338,96.39,2270,47.6445
23.75777394,96.39,2351,48.4871
23.78403451,96.39,2344,48.4149
23.81029507,96.39,2330,48.2701
23.83655564,96.39,2294,47.8957
23.86281621,96.39,2256,47.4974
23.88907677,96.39,2214,47.0532
23.91533734,96.39,2315,48.1144
23.9415979,96.39,2250,47.4342
23.96785847,96.39,2245,47.3814
23.99411903,96.39,2273,47.676
24.0203796,96.39,2321,48.1768
24.04664016,96.39,2396,48.949
24.07290073,96.39,2314,48.1041
24.09916129,96.39,2399,48.9796
24.12542186,96.39,2501,50.01
24.15168242,96.39,2655,51.5267
24.17794299,96.39,2758,52.5167
24.20420355,96.39,2710,52.0577
24.23046412,96.39,2606,51.049
24.25672469,96.39,2367,48.6518
24.28298525,96.39,2467,49.6689
24.30924582,96.39,2415,49.1426
24.33550638,96.39,2299,47.9479
24.36176695,96.39,2247,47.4025
24.38802751,96.39,2277,47.7179
24.41428808,96.39,2139,46.2493
24.44054864,96.39,2095,45.7712
24.46680921,96.39,2226,47.1805
24.49306977,96.39,2166,46.5403
24.51933034,96.39,2105,45.8803
24.5455909,96.39,2201,46.9148
24.57185147,96.39,2072,45.5192
24.59811204,96.39,2049,45.2659
24.6243726,96.39,2084,45.6508
24.65063317,96.39,1992,44.6318
24.67689373,96.39,2056,45.3431
24.7031543,96.39,2047,45.2438
24.72941486,96.39,2060,45.3872
24.75567543,96.39,1975,44.441
24.78193599,96.39,2008,44.8107
24.80819656,96.39,2000,44.7214
24.83445712,96.39,1957,44.238
24.86071769,96.39,1988,44.587
24.88697825,96.39,2039,45.1553
24.91323882,96.39,2004,44.7661
24.93949938,96.39,1895,43.5316
24.96575995,96.39,1971,44.3959
24.99202052,96.39,2044,45.2106
25.01828108,96.39,1959,44.2606
25.04454165,96.39,1943,44.0795
25.07080221,96.39,1884,43.4051
25.09706278,96.39,1890,43.4741
25.12332334,96.39,1917,43.7836
25.14958391,96.39,1855,43.0697
25.17584447,96.39,1865,43.1856
25.20210504,96.39,1922,43.8406
25.2283656,96.39,1977,44.4635
25.25462617,96.39,2048,45.2548
25.28088673,96.39,1988,44.587
25.3071473,96.39,2172,46.6047
25.33340786,96.39,2302,47.9792
25.35966843,96.39,2499,49.99
25.385929,96.39,2548,50.4777
25.41218956,96.39,2657,51.5461
25.43845013,96.39,2552,50.5173
25.46471069,96.39,2456,49.558
25.49097126,96.39,2179,46.6798
25.51723182,96.39,1926,43.8862
25.54349239,96.39,1992,44.6318
25.56975295,96.39,1895,43.5316
25.59601352,96.39,1917,43.7836
25.62227408,96.39,1829,42.7668
25.64853465,96.39,1762,41.9762
25.67479521,96.39,1852,43.0349
25.70105578,96.39,1806,42.4971
25.72731635,96.39,1866,43.1972
25.75357691,96.39,1871,43.2551
25.77983748,96.39,1887,43.4396
25.80609804,96.39,1913,43.7379
25.83235861,96.39,1871,43.2551
25.85861917,96.39,1985,44.5533
25.88487974,96.39,1952,44.1814
25.9111403,96.39,1830,42.7785
25.93740087,96.39,1866,43.1972
25.96366143,96.39,1875,43.3013
25.989922,96.39,1817,42.6263
26.01618256,96.39,1759,41.9404
26.04244313,96.39,1773,42.107
26.06870369,96.39,1706,41.3038
26.09496426,96.39,1701,41.2432
26.12122483,96.39,1671,40.8779
26.14748539,96.39,1767,42.0357
26.17374596,96.39,1808,42.5206
26.20000652,96.39,1690,41.1096
26.22626709,96.39,1767,42.0357
26.25252765,96.39,1765,42.0119
26.27878822,96.39,1766,42.0238
26.30504878,96.39,1836,42.8486
26.33130935,96.39,1779,42.1782
26.35756991,96.39,1807,42.5088
26.38383048,96.39,1797,42.391
26.41009104,96.39,1738,41.6893
26.43635161,96.39,1838,42.8719
26.46261218,96.39,1777,42.1545
26.48887274,96.39,1695,41.1704
26.51513331,96.39,1722,41.497
26.54139387,96.39,1717,41.4367
26.56765444,96.39,1655,40.6817
26.593915,96.39,1722,41.497
26.62017557,96.39,1670,40.8656
26.64643613,96.39,1686,41.0609
26.6726967,96.39,1668,40.8412
26.69895726,96.39,1743,41.7493
26.72521783,96.39,1696,41.1825
26.75147839,96.39,1690,41.1096
26.77773896,96.39,1624,40.2989
26.80399952,96.39,1711,41.3642
26.83026009,96.39,1685,41.0488
26.85652066,96.39,1716,41.4246
26.88278122,96.39,1745,41.7732
26.90904179,96.39,1863,43.1625
26.93530235,96.39,1759,41.9404
26.96156292,96.39,1773,42.107
26.98782348,96.39,1758,41.9285
27.01408405,96.39,1834,42.8252
27.04034461,96.39,1917,43.7836
27.06660518,96.39,1917,43.7836
27.09286574,96.39,2164,46.5188
27.11912631,96.39,2340,48.3735
27.14538687,96.39,2519,50.1896
27.17164744,96.39,2503,50.03
27.19790801,96.39,2290,47.8539
27.22416857,96.39,2179,46.6798
27.25042914,96.39,2089,45.7056
27.2766897,96.39,1891,43.4856
27.30295027,96.39,1875,43.3013
27.32921083,96.39,1934,43.9773
27.3554714,96.39,1801,42.4382
27.38173196,96.39,1774,42.1189
27.40799253,96.39,1757,41.9166
27.43425309,96.39,1666,40.8167
27.46051366,96.39,1658,40.7185
27.48677422,96.39,1661,40.7554
27.51303479,96.39,1704,41.2795
27.53929535,96.39,1656,40.694
27.56555592,96.39,1632,40.398
27.59181649,96.39,1702,41.2553
27.61807705,96.39,1712,41.3763
27.64433762,96.39,1801,42.4382
27.67059818,96.39,1744,41.7612
27.69685875,96.39,1697,41.1947
27.72311931,96.39,1706,41.3038
27.74937988,96.39,1669,40.8534
27.77564044,96.39,1639,40.4846
27.80190101,96.39,1693,41.1461
27.82816157,96.39,1669,40.8534
27.85442214,96.39,1669,40.8534
27.8806827,96.39,1587,39.8372
27.90694327,96.39,1692,41.1339
27.93320384,96.39,1684,41.0366
27.9594644,96.39,1652,40.6448
27.98572497,96.39,1714,41.4005
28.01198553,96.39,1658,40.7185
28.0382461,96.39,1644,40.5463
28.06450666,96.39,1653,40.6571
28.09076723,96.39,1651,40.6325
28.11702779,96.39,1755,41.8927
28.14328836,96.39,1758,41.9285
28.16954892,96.39,1760,41.9524
28.19580949,96.39,1710,41.3521
28.22207005,96.39,1819,42.6497
28.24833062,96.39,1763,41.9881
28.27459118,96.39,1840,42.8952
28.30085175,96.39,1875,43.3013
28.32711232,96.39,1777,42.1545
28.35337288,96.39,1701,41.2432
28.37963345,96.39,1727,41.5572
28.40589401,96.39,1632,40.398
28.43215458,96.39,1628,40.3485
28.45841514,96.39,1714,41.4005
28.48467571,96.39,1662,40.7676
28.51093627,96.39,1664,40.7922
28.53719684,96.39,1613,40.1622
28.5634574,96.39,1686,41.0609
28.58971797,96.39,1651,40.6325
28.61597853,96.39,1677,40.9512
28.6422391,96.39,1676,40.939
28.66849967,96.39,1745,41.7732
28.69476023,96.39,1749,41.821
28.7210208,96.39,1889,43.4626
28.74728136,96.39,1739,41.7013
28.77354193,96.39,1734,41.6413
28.79980249,96.39,1765,42.0119
28.82606306,96.39,1710,41.3521
28.85232362,96.39,1652,40.6448
28.87858419,96.39,1612,40.1497
28.90484475,96.39,1624,40.2989
28.93110532,96.39,1667,40.8289
28.95736588,96.39,1706,41.3038
28.98362645,96.39,1679,40.9756
29.00988701,96.39,1831,42.7902
29.03614758,96.39,1771,42.0833
29.06240815,96.39,1894,43.5201
29.08866871,96.39,1907,43.6692
29.11492928,96.39,1875,43.3013
29.14118984,96.39,1820,42.6615
29.16745041,96.39,1744,41.7612
29.19371097,96.39,1728,41.5692
29.21997154,96.39,1603,40.0375
29.2462321,96.39,1593,39.9124
29.27249267,96.39,1627,40.3361
29.29875323,96.39,1665,40.8044
29.3250138,96.39,1571,39.6358
29.35127436,96.39,1624,40.2989
29.37753493,96.39,1583,39.7869
29.40379549,96.39,1701,41.2432
29.43005606,96.39,1599,39.9875
29.45631663,96.39,1704,41.2795
29.48257719,96.39,1583,39.7869
29.50883776,96.39,1612,40.1497
29.53509832,96.39,1658,40.7185
29.56135889,96.39,1559,39.4842
29.58761945,96.39,1636,40.4475
29.61388002,96.39,1696,41.1825
29.64014058,96.39,1593,39.9124
29.66640115,96.39,1547,39.3319
29.69266171,96.39,1610,40.1248
29.71892228,96.39,1641,40.5093
29.74518284,96.39,1557,39.4588
29.77144341,96.39,1504,38.7814
29.79770398,96.39,1614,40.1746
29.82396454,96.39,1622,40.2741
29.85022511,96.39,1616,40.1995
29.87648567,96.39,1610,40.1248
29.90274624,96.39,1617,40.2119
29.9290068,96.39,1568,39.598
29.95526737,96.39,1534,39.1663
29.98152793,96.39,1572,39.6485
30.0077885,96.39,1496,38.6782
30.03404906,96.39,1571,39.6358
30.06030963,96.39,1576,39.6989
30.08657019,96.39,1594,39.9249
30.11283076,96.39,1650,40.6202
30.13909132,96.39,1691,41.1218
30.16535189,96.39,1625,40.3113
30.19161246,96.39,1689,41.0974
30.21787302,96.39,1689,41.0974
30.24413359,96.39,1696,41.1825
30.27039415,96.39,1633,40.4104
30.29665472,96.39,1622,40.2741
30.32291528,96.39,1657,40.7063
30.34917585,96.39,1616,40.1995
30.37543641,96.39,1672,40.8901
30.40169698,96.39,1749,41.821
30.42795754,96.39,1750,41.833
30.45421811,96.39,1793,42.3438
30.48047867,96.39,1896,43.5431
30.50673924,96.39,1889,43.4626
30.53299981,96.39,1823,42.6966
30.55926037,96.39,1947,44.1248
30.58552094,96.39,1855,43.0697
30.6117815,96.39,1938,44.0227
30.63804207,96.39,2060,45.3872
30.66430263,96.39,2272,47.6655
30.6905632,96.39,2329,48.2597
30.71682376,96.39,2267,47.613
30.74308433,96.39,2156,46.4327
30.76934489,96.39,2157,46.4435
30.79560546,96.39,2134,46.1952
30.82186602,96.39,1959,44.2606
30.84812659,96.39,1872,43.2666
30.87438715,96.39,1855,43.0697
30.90064772,96.39,1694,41.1582
30.92690829,96.39,1718,41.4488
30.95316885,96.39,1637,40.4599
30.97942942,96.39,1745,41.7732
31.00568998,96.39,1747,41.7971
31.03195055,96.39,1751,41.845
31.05821111,96.39,1779,42.1782
31.08447168,96.39,1830,42.7785
31.11073224,96.39,2052,45.299
31.13699281,96.39,2109,45.9239
31.16325337,96.39,2307,48.0312
31.18951394,96.39,2329,48.2597
31.2157745,96.39,2257,47.5079
31.24203507,96.39,2148,46.3465
31.26829564,96.39,2060,45.3872
31.2945562,96.39,1967,44.3509
31.32081677,96.39,1889,43.4626
31.34707733,96.39,1842,42.9185
31.3733379,96.39,1748,41.8091
31.39959846,96.39,1811,42.5558
31.42585903,96.39,1920,43.8178
31.45211959,96.39,1912,43.7264
31.47838016,96.39,2064,45.4313
31.50464072,96.39,2077,45.5741
31.53090129,96.39,2055,45.3321
31.55716185,96.39,2024,44.9889
31.58342242,96.39,2008,44.8107
31.60968298,96.39,2033,45.0888
31.63594355,96.39,2127,46.1194
31.66220412,96.39,2166,46.5403
31.68846468,96.39,2183,46.7226
31.71472525,96.39,2080,45.607
31.74098581,96.39,2038,45.1442
31.76724638,96.39,1903,43.6234
31.79350694,96.39,1895,43.5316
31.81976751,96.39,1804,42.4735
31.84602807,96.39,1809,42.5323
31.87228864,96.39,1980,44.4972
31.8985492,96.39,1984,44.5421
31.92480977,96.39,2340,48.3735
31.95107033,96.39,2788,52.8015
31.9773309,96.39,3282,57.2887
32.00359147,96.39,4076,63.8436
32.02985203,96.39,4377,66.1589
32.0561126,96.39,3997,63.2218
32.08237316,96.39,3540,59.4979
32.10863373,96.39,3184,56.4269
32.13489429,96.39,2750,52.4404
32.16115486,96.39,2260,47.5395
32.18741542,96.39,1963,44.3058
32.21367599,96.39,1715,41.4126
32.23993655,96.39,1747,41.7971
32.26619712,96.39,1650,40.6202
32.29245768,96.39,1735,41.6533
32.31871825,96.39,1707,41.3159
32.34497881,96.39,1637,40.4599
32.37123938,96.39,1683,41.0244
32.39749995,96.39,1597,39.9625
32.42376051,96.39,1584,39.7995
32.45002108,96.39,1632,40.398
32.47628164,96.39,1624,40.2989
32.50254221,96.39,1531,39.128
32.52880277,96.39,1517,38.9487
32.55506334,96.39,1588,39.8497
32.5813239,96.39,1686,41.0609
32.60758447,96.39,1719,41.4608
32.63384503,96.39,1728,41.5692
32.6601056,96.39,1772,42.0951
32.68636616,96.39,1650,40.6202
32.71262673,96.39,1696,41.1825
32.7388873,96.39,1618,40.2244
32.76514786,96.39,1566,39.5727
32.79140843,96.39,1570,39.6232
32.81766899,96.39,1447,38.0395
32.84392956,96.39,1536,39.1918
32.87019012,96.39,1559,39.4842
32.89645069,96.39,1719,41.4608
32.92271125,96.39,1807,42.5088
32.94897182,96.39,1766,42.0238
32.97523238,96.39,1859,43.1161
33.00149295,96.39,1884,43.4051
33.02775351,96.39,1816,42.6146
33.05401408,96.39,1936,44
33.08027464,96.39,1926,43.8862
33.10653521,96.39,2027,45.0222
33.13279578,96.39,2018,44.9222
33.15905634,96.39,1920,43.8178
33.18531691,96.39,1920,43.8178
33.21157747,96.39,1897,43.5546
33.23783804,96.39,1955,44.2154
33.2640986,96.39,1870,43.2435
33.29035917,96.39,1852,43.0349
33.31661973,96.39,1800,42.4264
33.3428803,96.39,2082,45.6289
33.36914086,96.39,2109,45.9239
33.39540143,96.39,2336,48.3322
33.42166199,96.39,2308,48.0416
33.44792256,96.39,2233,47.2546
33.47418312,96.39,2055,45.3321
33.50044369,96.39,1967,44.3509
33.52670426,96.39,1913,43.7379
33.55296482,96.39,1787,42.2729
33.57922539,96.39,1687,41.0731
33.60548595,96.39,1708,41.328
33.63174652,96.39,1581,39.7618
33.65800708,96.39,1688,41.0853
33.68426765,96.39,1809,42.5323
33.71052821,96.39,1721,41.4849
33.73678878,96.39,1795,42.3674
33.76304934,96.39,1772,42.0951
33.78930991,96.39,1864,43.1741
33.81557047,96.39,1920,43.8178
33.84183104,96.39,2179,46.6798
33.86809161,96.39,2283,47.7807
33.89435217,96.39,2613,51.1175
33.92061274,96.39,2621,51.1957
33.9468733,96.39,2856,53.4416
33.97313387,96.39,2646,51.4393
33.99939443,96.39,2588,50.8724
34.025655,96.39,2523,50.2295
34.05191556,96.39,2196,46.8615
34.07817613,96.39,2107,45.9021
34.10443669,96.39,2130,46.1519
34.13069726,96.39,2077,45.5741
34.15695782,96.39,2056,45.3431
34.18321839,96.39,2073,45.5302
34.20947895,96.39,2141,46.2709
34.23573952,96.39,2180,46.6905
34.26200009,96.39,2187,46.7654
34.28826065,96.39,2156,46.4327
34.31452122,96.39,2200,46.9042
34.34078178,96.39,2102,45.8476
34.36704235,96.39,2167,46.551
34.39330291,96.39,2212,47.0319
34.41956348,96.39,2179,46.6798
34.44582404,96.39,2284,47.7912
34.47208461,96.39,2220,47.1169
34.49834517,96.39,2223,47.1487
34.52460574,96.39,2117,46.0109
34.5508663,96.39,2151,46.3789
34.57712687,96.39,2203,46.9361
34.60338744,96.39,2090,45.7165
34.629648,96.39,2127,46.1194
34.65590857,96.39,2196,46.8615
34.68216913,96.39,2193,46.8295
34.7084297,96.39,2146,46.3249
34.73469026,96.39,2108,45.913
34.76095083,96.39,2223,47.1487
34.78721139,96.39,2201,46.9148
34.81347196,96.39,2354,48.518
34.83973252,96.39,2544,50.4381
34.86599309,96.39,2727,52.2207
34.89225365,96.39,2828,53.1789
34.91851422,96.39,2917,54.0093
34.94477478,96.39,2928,54.111
34.97103535,96.39,2840,53.2917
34.99729592,96.39,2664,51.614
35.02355648,96.39,2458,49.5782
35.04981705,96.39,2369,48.6724
35.07607761,96.39,2300,47.9583
35.10233818,96.39,2153,46.4004
35.12859874,96.39,2063,45.4203
35.15485931,96.39,2117,46.0109
35.18111987,96.39,2146,46.3249
35.20738044,96.39,2037,45.1331
35.233641,96.39,1962,44.2945
35.25990157,96.39,1972,44.4072
35.28616213,96.39,1881,43.3705
35.3124227,96.39,1966,44.3396
35.33868327,96.39,1890,43.4741
35.36494383,96.39,1841,42.9069
35.3912044,96.39,1764,42
35.41746496,96.39,1762,41.9762
35.44372553,96.39,1732,41.6173
35.46998609,96.39,1765,42.0119
35.49624666,96.39,1754,41.8808
35.52250722,96.39,1700,41.2311
35.54876779,96.39,1739,41.7013
35.57502835,96.39,1862,43.1509
35.60128892,96.39,1919,43.8064
35.62754948,96.39,1790,42.3084
35.65381005,96.39,1824,42.7083
35.68007061,96.39,1820,42.6615
35.70633118,96.39,1860,43.1277
35.73259175,96.39,1736,41.6653
35.75885231,96.39,1764,42
35.78511288,96.39,1796,42.3792
35.81137344,96.39,1785,42.2493
35.83763401,96.39,1705,41.2916
35.86389457,96.39,1674,40.9145
35.89015514,96.39,1725,41.5331
35.9164157,96.39,1749,41.821
35.94267627,96.39,1704,41.2795
35.96893683,96.39,1726,41.5452
35.9951974,96.39,1697,41.1947
36.02145796,96.39,1711,41.3642
36.04771853,96.39,1629,40.3609
36.0739791,96.39,1596,39.95
36.10023966,96.39,1564,39.5474
36.12650023,96.39,1675,40.9268
36.15276079,96.39,1554,39.4208
36.17902136,96.39,1548,39.3446
36.20528192,96.39,1501,38.7427
36.23154249,96.39,1534,39.1663
36.25780305,96.39,1535,39.1791
36.28406362,96.39,1574,39.6737
36.31032418,96.39,1628,40.3485
36.33658475,96.39,1578,39.724
36.36284531,96.39,1668,40.8412
36.38910588,96.39,1634,40.4228
36.41536644,96.39,1600,40
36.44162701,96.39,1594,39.9249
36.46788758,96.39,1535,39.1791
36.49414814,96.39,1506,38.8072
36.52040871,96.39,1486,38.5487
36.54666927,96.39,1488,38.5746
36.57292984,96.39,1406,37.4967
36.5991904,96.39,1392,37.3095
36.62545097,96.39,1413,37.5899
36.65171153,96.39,1432,37.8418
36.6779721,96.39,1370,37.0135
36.70423266,96.39,1402,37.4433
36.73049323,96.39,1435,37.8814
36.75675379,96.39,1459,38.1969
36.78301436,96.39,1423,37.7227
36.80927492,96.39,1356,36.8239
36.83553549,96.39,1379,37.1349
36.86179606,96.39,1400,37.4166
36.88805662,96.39,1385,37.2156
36.91431719,96.39,1340,36.606
36.94057775,96.39,1365,36.9459
36.96683832,96.39,1366,36.9594
36.99309888,96.39,1359,36.8646
37.01935945,96.39,1379,37.1349
37.04562001,96.39,1336,36.5513
37.07188058,96.39,1385,37.2156
37.09814114,96.39,1404,37.47
37.12440171,96.39,1435,37.8814
37.15066227,96.39,1461,38.223
37.17692284,96.39,1377,37.108
37.20318341,96.39,1308,36.1663
37.22944397,96.39,1381,37.1618
37.25570454,96.39,1405,37.4833
37.2819651,96.39,1337,36.565
37.30822567,96.39,1379,37.1349
37.33448623,96.39,1377,37.108
37.3607468,96.39,1318,36.3043
37.38700736,96.39,1341,36.6197
37.41326793,96.39,1435,37.8814
37.43952849,96.39,1395,37.3497
37.46578906,96.39,1341,36.6197
37.49204962,96.39,1356,36.8239
37.51831019,96.39,1424,37.7359
37.54457075,96.39,1448,38.0526
37.57083132,96.39,1361,36.8917
37.59709189,96.39,1363,36.9188
37.62335245,96.39,1500,38.7298
37.64961302,96.39,1621,40.2616
37.67587358,96.39,1670,40.8656
37.70213415,96.39,1765,42.0119
37.72839471,96.39,1677,40.9512
37.75465528,96.39,1590,39.8748
37.78091584,96.39,1669,40.8534
37.80717641,96.39,1595,39.9375
37.83343697,96.39,1509,38.8458
37.85969754,96.39,1514,38.9102
37.8859581,96.39,1464,38.2623
37.91221867,96.39,1378,37.1214
37.93847924,96.39,1387,37.2424
37.9647398,96.39,1385,37.2156
37.99100037,96.39,1322,36.3593
38.01726093,96.39,1406,37.4967
38.0435215,96.39,1358,36.8511
38.06978206,96.39,1385,37.2156
38.09604263,96.39,1435,37.8814
38.12230319,96.39,1479,38.4578
38.14856376,96.39,1546,39.3192
38.17482432,96.39,1453,38.1182
38.20108489,96.39,1467,38.3014
38.22734545,96.39,1406,37.4967
38.25360602,96.39,1508,38.833
38.27986658,96.39,1470,38.3406
38.30612715,96.39,1422,37.7094
38.33238772,96.39,1441,37.9605
38.35864828,96.39,1451,38.092
38.38490885,96.39,1360,36.8782
38.41116941,96.39,1419,37.6696
38.43742998,96.39,1276,35.7211
38.46369054,96.39,1326,36.4143
38.48995111,96.39,1369,37
38.51621167,96.39,1336,36.5513
38.54247224,96.39,1352,36.7696
38.5687328,96.39,1421,37.6962
38.59499337,96.39,1334,36.524
38.62125393,96.39,1380,37.1484
38.6475145,96.39,1466,38.2884
38.67377507,96.39,1447,38.0395
38.70003563,96.39,1557,39.4588
38.7262962,96.39,1445,38.0132
38.75255676,96.39,1561,39.5095
38.77881733,96.39,1505,38.7943
38.80507789,96.39,1414,37.6032
38.83133846,96.39,1452,38.1051
38.85759902,96.39,1375,37.081
38.88385959,96.39,1333,36.5103
38.91012015,96.39,1303,36.0971
38.93638072,96.39,1243,35.2562
38.96264128,96.39,1219,34.9142
38.98890185,96.39,1277,35.7351
39.01516241,96.39,1204,34.6987
39.04142298,96.39,1299,36.0416
39.06768355,96.39,1176,34.2929
39.09394411,96.39,1257,35.4542
39.12020468,96.39,1257,35.4542
39.14646524,96.39,1310,36.1939
39.17272581,96.39,1344,36.6606
39.19898637,96.39,1342,36.6333
39.22524694,96.39,1417,37.6431
39.2515075,96.39,1414,37.6032
39.27776807,96.39,1453,38.1182
39.30402863,96.39,1370,37.0135
39.3302892,96.39,1431,37.8286
39.35654976,96.39,1550,39.37
39.38281033,96.39,1558,39.4715
39.4090709,96.39,1677,40.9512
39.43533146,96.39,1520,38.9872
39.46159203,96.39,1480,38.4708
39.48785259,96.39,1495,38.6652
39.51411316,96.39,1469,38.3275
39.54037372,96.39,1358,36.8511
39.56663429,96.39,1324,36.3868
39.59289485,96.39,1307,36.1525
39.61915542,96.39,1349,36.7287
39.64541598,96.39,1204,34.6987
39.67167655,96.39,1253,35.3977
39.69793711,96.39,1289,35.9026
39.72419768,96.39,1316,36.2767
39.75045824,96.39,1344,36.6606
39.77671881,96.39,1379,37.1349
39.80297938,96.39,1326,36.4143
39.82923994,96.39,1234,35.1283
39.85550051,96.39,1322,36.3593
39.88176107,96.39,1230,35.0714
39.90802164,96.39,1285,35.8469
39.9342822,96.39,1282,35.805
39.96054277,96.39,1233,35.1141
39.98680333,96.39,1190,34.4964
40.0130639,96.39,1172,34.2345
40.03932446,96.39,1246,35.2987
40.06558503,96.39,1295,35.9861
40.09184559,96.39,1332,36.4966
40.11810616,96.39,1314,36.2491
40.14436673,96.39,1228,35.0428
40.17062729,96.39,1343,36.647
40.19688786,96.39,1239,35.1994
40.22314842,96.39,1220,34.9285
40.24940899,96.39,1242,35.242
40.27566955,96.39,1193,34.5398
40.30193012,96.39,1122,33.4963
40.32819068,96.39,1178,34.322
40.35445125,96.39,1182,34.3802
40.38071181,96.39,1164,34.1174
40.40697238,96.39,1148,33.8821
40.43323294,96.39,1159,34.0441
40.45949351,96.39,1215,34.8569
40.48575407,96.39,1200,34.641
40.51201464,96.39,1151,33.9264
40.53827521,96.39,1255,35.426
40.56453577,96.39,1213,34.8281
40.59079634,96.39,1208,34.7563
40.6170569,96.39,1188,34.4674
40.64331747,96.39,1176,34.2929
40.66957803,96.39,1155,33.9853
40.6958386,96.39,1166,34.1467
40.72209916,96.39,1122,33.4963
40.74835973,96.39,1039,32.2335
40.77462029,96.39,1069,32.6956
40.80088086,96.39,1066,32.6497
40.82714142,96.39,1066,32.6497
40.85340199,96.39,1016,31.8748
40.87966255,96.39,1044,32.311
40.90592312,96.39,981,31.3209
40.93218369,96.39,1038,32.218
40.95844425,96.39,1061,32.573
40.98470482,96.39,1152,33.9411
41.01096538,96.39,1129,33.6006
41.03722595,96.39,1072,32.7414
41.06348651,96.39,1009,31.7648
41.08974708,96.39,1061,32.573
41.11600764,96.39,1155,33.9853
41.14226821,96.39,1123,33.5112
41.16852877,96.39,1111,33.3317
41.19478934,96.39,1067,32.665
41.2210499,96.39,1093,33.0606
41.24731047,96.39,1230,35.0714
41.27357104,96.39,1235,35.1426
41.2998316,96.39,1382,37.1753
41.32609217,96.39,1432,37.8418
41.35235273,96.39,1469,38.3275
41.3786133,96.39,1434,37.8682
41.40487386,96.39,1326,36.4143
41.43113443,96.39,1308,36.1663
41.45739499,96.39,1284,35.8329
41.48365556,96.39,1191,34.5109
41.50991612,96.39,1175,34.2783
41.53617669,96.39,1143,33.8083
41.56243725,96.39,1035,32.1714
41.58869782,96.39,1050,32.4037
41.61495838,96.39,1083,32.909
41.64121895,96.39,1103,33.2114
41.66747952,96.39,964,31.0483
41.69374008,96.39,1043,32.2955
41.72000065,96.39,1005,31.7017
41.74626121,96.39,1034,32.1559
41.77252178,96.39,969,31.1288
41.79878234,96.39,972,31.1769
41.82504291,96.39,981,31.3209
41.85130347,96.39,993,31.5119
41.87756404,96.39,1003,31.6702
41.9038246,96.39,956,30.9192
41.93008517,96.39,1013,31.8277
41.95634573,96.39,1003,31.6702
41.9826063,96.39,1002,31.6544
42.00886687,96.39,1024,32
42.03512743,96.39,1107,33.2716
42.061388,96.39,1149,33.8969
42.08764856,96.39,1269,35.623
42.11390913,96.39,1336,36.5513
42.14016969,96.39,1307,36.1525
42.16643026,96.39,1297,36.0139
42.19269082,96.39,1177,34.3074
42.21895139,96.39,1274,35.6931
42.24521195,96.39,1238,35.1852
42.27147252,96.39,1169,34.1906
42.29773308,96.39,1102,33.1964
42.32399365,96.39,1063,32.6037
42.35025421,96.39,1027,32.0468
42.37651478,96.39,1039,32.2335
42.40277535,96.39,992,31.496
42.42903591,96.39,994,31.5278
42.45529648,96.39,1061,32.573
42.48155704,96.39,1085,32.9393
42.50781761,96.39,1165,34.1321
42.53407817,96.39,1146,33.8526
42.56033874,96.39,1090,33.0151
42.5865993,96.39,1122,33.4963
42.61285987,96.39,1107,33.2716
42.63912043,96.39,1084,32.9242
42.665381,96.39,1035,32.1714
42.69164156,96.39,1039,32.2335
42.71790213,96.39,986,31.4006
42.7441627,96.39,981,31.3209
42.77042326,96.39,987,31.4166
42.79668383,96.39,949,30.8058
42.82294439,96.39,980,31.305
42.84920496,96.39,956,30.9192
42.87546552,96.39,989,31.4484
42.90172609,96.39,927,30.4467
42.92798665,96.39,969,31.1288
42.95424722,96.39,981,31.3209
42.98050778,96.39,996,31.5595
43.00676835,96.39,986,31.4006
43.03302891,96.39,970,31.1448
43.05928948,96.39,1020,31.9374
43.08555004,96.39,935,30.5778
43.11181061,96.39,946,30.7571
43.13807118,96.39,933,30.545
43.16433174,96.39,968,31.1127
43.19059231,96.39,980,31.305
43.21685287,96.39,913,30.2159
43.24311344,96.39,934,30.5614
43.269374,96.39,958,30.9516
43.29563457,96.39,925,30.4138
43.32189513,96.39,947,30.7734
43.3481557,96.39,924,30.3974
43.37441626,96.39,941,30.6757
43.40067683,96.39,1004,31.686
43.42693739,96.39,930,30.4959
43.45319796,96.39,950,30.8221
43.47945853,96.39,959,30.9677
43.50571909,96.39,967,31.0966
43.53197966,96.39,903,30.05
43.55824022,96.39,1037,32.2025
43.58450079,96.39,1035,32.1714
43.61076135,96.39,1015,31.8591
43.63702192,96.39,1027,32.0468
43.66328248,96.39,1167,34.1614
43.68954305,96.39,1239,35.1994
43.71580361,96.39,1284,35.8329
43.74206418,96.39,1326,36.4143
43.76832474,96.39,1257,35.4542
43.79458531,96.39,1180,34.3511
43.82084587,96.39,1200,34.641
43.84710644,96.39,1246,35.2987
43.87336701,96.39,1168,34.176
43.89962757,96.39,1096,33.1059
43.92588814,96.39,1024,32
43.9521487,96.39,1073,32.7567
43.97840927,96.39,1016,31.8748
44.00466983,96.39,991,31.4802
44.0309304,96.39,930,30.4959
44.05719096,96.39,947,30.7734
44.08345153,96.39,990,31.4643
44.10971209,96.39,1023,31.9844
44.13597266,96.39,1019,31.9218
44.16223322,96.39,1018,31.9061
44.18849379,96.39,1017,31.8904
44.21475435,96.39,1090,33.0151
44.24101492,96.39,1092,33.0454
44.26727549,96.39,1128,33.5857
44.29353605,96.39,1130,33.6155
44.31979662,96.39,1152,33.9411
44.34605718,96.39,1176,34.2929
44.37231775,96.39,1188,34.4674
44.39857831,96.39,1171,34.2199
44.42483888,96.39,1118,33.4365
44.45109944,96.39,1069,32.6956
44.47736001,96.39,1150,33.9116
44.50362057,96.39,1072,32.7414
44.52988114,96.39,1117,33.4215
44.5561417,96.39,1081,32.8786
44.58240227,96.39,1044,32.311
44.60866284,96.39,985,31.3847
44.6349234,96.39,1055,32.4808
44.66118397,96.39,990,31.4643
44.68744453,96.39,1017,31.8904
44.7137051,96.39,1068,32.6803
44.73996566,96.39,1124,33.5261
44.76622623,96.39,1049,32.3883
44.79248679,96.39,1097,33.121
44.81874736,96.39,1100,33.1662
44.84500792,96.39,1052,32.4345
44.87126849,96.39,1024,32
44.89752905,96.39,1044,32.311
44.92378962,96.39,1092,33.0454
44.95005018,96.39,1097,33.121
44.97631075,96.39,1070,32.7109
45.00257132,96.39,1157,34.0147
45.02883188,96.39,1205,34.7131
45.05509245,96.39,1243,35.2562
45.08135301,96.39,1284,35.8329
45.10761358,96.39,1217,34.8855
45.13387414,96.39,1230,35.0714
45.16013471,96.39,1126,33.5559
45.18639527,96.39,1218,34.8999
45.21265584,96.39,1194,34.5543
45.2389164,96.39,1246,35.2987
45.26517697,96.39,1236,35.1568
45.29143753,96.39,1202,34.6699
45.3176981,96.39,1208,34.7563
45.34395867,96.39,1153,33.9559
45.37021923,96.39,1173,34.2491
45.3964798,96.39,1215,34.8569
45.42274036,96.39,1270,35.6371
45.44900093,96.39,1323,36.3731
45.47526149,96.39,1184,34.4093
45.50152206,96.39,1085,32.9393
45.52778262,96.39,1189,34.4819
45.55404319,96.39,1194,34.5543
45.58030375,96.39,1142,33.7935
45.60656432,96.39,1192,34.5254
45.63282488,96.39,1059,32.5423
45.65908545,96.39,1057,32.5115
45.68534601,96.39,1045,32.3265
45.71160658,96.39,1010,31.7805
45.73786715,96.39,1025,32.0156
45.76412771,96.39,1061,32.573
45.79038828,96.39,1093,33.0606
45.81664884,96.39,1065,32.6343
45.84290941,96.39,1075,32.7872
45.86916997,96.39,1066,32.6497
45.89543054,96.39,1072,32.7414
45.9216911,96.39,1052,32.4345
45.94795167,96.39,1014,31.8434
45.97421223,96.39,1056,32.4962
46.0004728,96.39,1066,32.6497
46.02673336,96.39,1021,31.9531
46.05299393,96.39,1146,33.8526
46.0792545,96.39,1102,33.1964
46.10551506,96.39,1168,34.176
46.13177563,96.39,1145,33.8378
46.15803619,96.39,1220,34.9285
46.18429676,96.39,1253,35.3977
46.21055732,96.39,1237,35.171
46.23681789,96.39,1339,36.5923
46.26307845,96.39,1278,35.7491
46.28933902,96.39,1274,35.6931
46.31559958,96.39,1267,35.5949
46.34186015,96.39,1221,34.9428
46.36812071,96.39,1223,34.9714
46.39438128,96.39,1139,33.7491
46.42064184,96.39,1190,34.4964
46.44690241,96.39,1171,34.2199
46.47316298,96.39,1189,34.4819
46.49942354,96.39,1148,33.8821
46.52568411,96.39,1167,34.1614
46.55194467,96.39,1062,32.5883
46.57820524,96.39,1109,33.3017
46.6044658,96.39,1116,33.4066
46.63072637,96.39,1158,34.0294
46.65698693,96.39,1209,34.7707
46.6832475,96.39,1217,34.8855
46.70950806,96.39,1211,34.7994
46.73576863,96.39,1127,33.5708
46.76202919,96.39,1103,33.2114
46.78828976,96.39,1068,32.6803
46.81455033,96.39,1151,33.9264
46.84081089,96.39,1113,33.3617
46.86707146,96.39,1077,32.8177
46.89333202,96.39,1064,32.619
46.91959259,96.39,1097,33.121
46.94585315,96.39,1102,33.1964
46.97211372,96.39,1089,33
46.99837428,96.39,1005,31.7017
47.02463485,96.39,1091,33.0303
47.05089541,96.39,1083,32.909
47.07715598,96.39,1072,32.7414
47.10341654,96.39,1046,32.3419
47.12967711,96.39,1021,31.9531
47.15593767,96.39,1003,31.6702
47.18219824,96.39,986,31.4006
47.20845881,96.39,998,31.5911
47.23471937,96.39,1009,31.7648
47.26097994,96.39,956,30.9192
47.2872405,96.39,989,31.4484
47.31350107,96.39,1044,32.311
47.33976163,96.39,952,30.8545
47.3660222,96.39,975,31.225
47.39228276,96.39,968,31.1127
47.41854333,96.39,945,30.7409
47.44480389,96.39,963,31.0322
47.47106446,96.39,932,30.5287
47.49732502,96.39,1024,32
47.52358559,96.39,932,30.5287
47.54984616,96.39,963,31.0322
47.57610672,96.39,984,31.3688
47.60236729,96.39,928,30.4631
47.62862785,96.39,920,30.3315
47.65488842,96.39,969,31.1288
47.68114898,96.39,1001,31.6386
47.70740955,96.39,934,30.5614
47.73367011,96.39,969,31.1288
47.75993068,96.39,991,31.4802
47.78619124,96.39,992,31.496
47.81245181,96.39,945,30.7409
47.83871237,96.39,960,30.9839
47.86497294,96.39,964,31.0483
47.8912335,96.39,954,30.8869
47.91749407,96.39,937,30.6105
47.94375464,96.39,922,30.3645
47.9700152,96.39,939,30.6431
47.99627577,96.39,973,31.1929
48.02253633,96.39,1044,32.311
48.0487969,96.39,1009,31.7648
48.07505746,96.39,1068,32.6803
48.10131803,96.39,1074,32.7719
48.12757859,96.39,1048,32.3728
48.15383916,96.39,1029,32.078
48.18009972,96.39,981,31.3209
48.20636029,96.39,1018,31.9061
48.23262085,96.39,953,30.8707
48.25888142,96.39,996,31.5595
48.28514198,96.39,929,30.4795
48.31140255,96.39,885,29.7489
48.33766312,96.39,935,30.5778
48.36392368,96.39,900,30
48.39018425,96.39,981,31.3209
48.41644481,96.39,980,31.305
48.44270538,96.39,1063,32.6037
48.46896594,96.39,1069,32.6956
48.49522651,96.39,1033,32.1403
48.52148707,96.39,971,31.1609
48.54774764,96.39,1002,31.6544
48.5740082,96.39,1012,31.8119
48.60026877,96.39,982,31.3369
48.62652933,96.39,986,31.4006
48.6527899,96.39,904,30.0666
48.67905047,96.39,924,30.3974
48.70531103,96.39,896,29.9333
48.7315716,96.39,932,30.5287
48.75783216,96.39,947,30.7734
48.78409273,96.39,948,30.7896
48.81035329,96.39,931,30.5123
48.83661386,96.39,866,29.4279
48.86287442,96.39,853,29.2062
48.88913499,96.39,908,30.133
48.91539555,96.39,952,30.8545
48.94165612,96.39,910,30.1662
48.96791668,96.39,910,30.1662
48.99417725,96.39,929,30.4795
49.02043781,96.39,924,30.3974
49.04669838,96.39,899,29.9833
49.07295895,96.39,895,29.9166
49.09921951,96.39,950,30.8221
49.12548008,96.39,912,30.1993
49.15174064,96.39,872,29.5296
49.17800121,96.39,878,29.6311
49.20426177,96.39,913,30.2159
49.23052234,96.39,873,29.5466
49.2567829,96.39,870,29.4958
49.28304347,96.39,920,30.3315
49.30930403,96.39,936,30.5941
49.3355646,96.39,908,30.133
49.36182516,96.39,939,30.6431
49.38808573,96.39,869,29.4788
49.4143463,96.39,942,30.692
49.44060686,96.39,971,31.1609
49.46686743,96.39,867,29.4449
49.49312799,96.39,919,30.315
49.51938856,96.39,913,30.2159
49.54564912,96.39,928,30.4631
49.57190969,96.39,916,30.2655
49.59817025,96.39,895,29.9166
49.62443082,96.39,911,30.1828
49.65069138,96.39,910,30.1662
49.67695195,96.39,926,30.4302
49.70321251,96.39,863,29.3769
49.72947308,96.39,887,29.7825
49.75573364,96.39,904,30.0666
49.78199421,96.39,911,30.1828
49.80825478,96.39,860,29.3258
49.83451534,96.39,900,30
49.86077591,96.39,864,29.3939
49.88703647,96.39,854,29.2233
49.91329704,96.39,777,27.8747
49.9395576,96.39,803,28.3373
49.96581817,96.39,797,28.2312
49.99207873,96.39,801,28.3019
50.0183393,96.39,820,28.6356
50.04459986,96.39,745,27.2947
50.07086043,96.39,802,28.3196
50.09712099,96.39,839,28.9655
50.12338156,96.39,794,28.178
50.14964213,96.39,825,28.7228
50.17590269,96.39,907,30.1164
50.20216326,96.39,931,30.5123
50.22842382,96.39,942,30.692
50.25468439,96.39,951,30.8383
50.28094495,96.39,896,29.9333
50.30720552,96.39,906,30.0998
50.33346608,96.39,884,29.7321
50.35972665,96.39,859,29.3087
50.38598721,96.39,882,29.6985
50.41224778,96.39,873,29.5466
50.43850834,96.39,888,29.7993
50.46476891,96.39,811,28.4781
50.49102947,96.39,820,28.6356
50.51729004,96.39,816,28.5657
50.54355061,96.39,743,27.258
50.56981117,96.39,772,27.7849
50.59607174,96.39,788,28.0713
50.6223323,96.39,777,27.8747
50.64859287,96.39,763,27.6225
50.67485343,96.39,792,28.1425
50.701114,96.39,787,28.0535
50.72737456,96.39,777,27.8747
50.75363513,96.39,790,28.1069
50.77989569,96.39,794,28.178
50.80615626,96.39,747,27.3313
50.83241682,96.39,805,28.3725
50.85867739,96.39,805,28.3725
50.88493796,96.39,805,28.3725
50.91119852,96.39,782,27.9643
50.93745909,96.39,820,28.6356
50.96371965,96.39,752,27.4226
50.98998022,96.39,774,27.8209
51.01624078,96.39,866,29.4279
51.04250135,96.39,808,28.4253
51.06876191,96.39,801,28.3019
51.09502248,96.39,774,27.8209
51.12128304,96.39,739,27.1846
51.14754361,96.39,845,29.0689
51.17380417,96.39,869,29.4788
51.20006474,96.39,881,29.6816
51.2263253,96.39,833,28.8617
51.25258587,96.39,836,28.9137
51.27884644,96.39,780,27.9285
51.305107,96.39,768,27.7128
51.33136757,96.39,827,28.7576
51.35762813,96.39,767,27.6948
51.3838887,96.39,788,28.0713
51.41014926,96.39,757,27.5136
51.43640983,96.39,744,27.2764
51.46267039,96.39,723,26.8887
51.48893096,96.39,752,27.4226
51.51519152,96.39,730,27.0185
51.54145209,96.39,739,27.1846
51.56771265,96.39,780,27.9285
51.59397322,96.39,687,26.2107
51.62023378,96.39,721,26.8514
51.64649435,96.39,762,27.6043
51.67275492,96.39,733,27.074
51.69901548,96.39,749,27.3679
51.72527605,96.39,732,27.0555
51.75153661,96.39,748,27.3496
51.77779718,96.39,782,27.9643
51.80405774,96.39,770,27.7489
51.83031831,96.39,804,28.3549
51.85657887,96.39,772,27.7849
51.88283944,96.39,775,27.8388
51.9091,96.39,786,28.0357
51.93536057,96.39,726,26.9444
51.96162113,96.39,768,27.7128
51.9878817,96.39,742,27.2397
52.01414227,96.39,754,27.4591
52.04040283,96.39,797,28.2312
52.0666634,96.39,778,27.8927
52.09292396,96.39,816,28.5657
52.11918453,96.39,883,29.7153
52.14544509,96.39,857,29.2746
52.17170566,96.39,917,30.282
52.19796622,96.39,916,30.2655
52.22422679,96.39,922,30.3645
52.25048735,96.39,837,28.931
52.27674792,96.39,908,30.133
52.30300848,96.39,872,29.5296
52.32926905,96.39,802,28.3196
52.35552961,96.39,872,29.5296
52.38179018,96.39,826,28.7402
52.40805075,96.39,860,29.3258
52.43431131,96.39,771,27.7669
52.46057188,96.39,756,27.4955
52.48683244,96.39,733,27.074
52.51309301,96.39,777,27.8747
52.53935357,96.39,732,27.0555
52.56561414,96.39,739,27.1846
52.5918747,96.39,759,27.55
52.61813527,96.39,782,27.9643
52.64439583,96.39,805,28.3725
52.6706564,96.39,800,28.2843
52.69691696,96.39,787,28.0535
52.72317753,96.39,814,28.5307
52.7494381,96.39,745,27.2947
52.77569866,96.39,788,28.0713
52.80195923,96.39,759,27.55
52.82821979,96.39,826,28.7402
52.85448036,96.39,807,28.4077
52.88074092,96.39,818,28.6007
52.90700149,96.39,818,28.6007
52.93326205,96.39,770,27.7489
52.95952262,96.39,781,27.9464
52.98578318,96.39,792,28.1425
53.01204375,96.39,747,27.3313
53.03830431,96.39,720,26.8328
53.06456488,96.39,786,28.0357
53.09082544,96.39,809,28.4429
53.11708601,96.39,805,28.3725
53.14334658,96.39,850,29.1548
53.16960714,96.39,843,29.0345
53.19586771,96.39,845,29.0689
53.22212827,96.39,695,26.3629
53.24838884,96.39,746,27.313
53.2746494,96.39,823,28.688
53.30090997,96.39,795,28.1957
53.32717053,96.39,838,28.9482
53.3534311,96.39,759,27.55
53.37969166,96.39,805,28.3725
53.40595223,96.39,763,27.6225
53.43221279,96.39,746,27.313
53.45847336,96.39,707,26.5895
53.48473393,96.39,661,25.7099
53.51099449,96.39,719,26.8142
53.53725506,96.39,705,26.5518
53.56351562,96.39,681,26.096
53.58977619,96.39,684,26.1534
53.61603675,96.39,680,26.0768
53.64229732,96.39,694,26.3439
53.66855788,96.39,669,25.865
53.69481845,96.39,660,25.6905
53.72107901,96.39,690,26.2679
53.74733958,96.39,701,26.4764
53.77360014,96.39,641,25.318
53.79986071,96.39,691,26.2869
53.82612127,96.39,697,26.4008
53.85238184,96.39,664,25.7682
53.87864241,96.39,645,25.3969
53.90490297,96.39,726,26.9444
53.93116354,96.39,683,26.1343
53.9574241,96.39,702,26.4953
53.98368467,96.39,754,27.4591
54.00994523,96.39,711,26.6646
54.0362058,96.39,764,27.6405
54.06246636,96.39,763,27.6225
54.08872693,96.39,805,28.3725
54.11498749,96.39,840,28.9828
54.14124806,96.39,812,28.4956
54.16750862,96.39,781,27.9464
54.19376919,96.39,792,28.1425
54.22002976,96.39,799,28.2666
54.24629032,96.39,741,27.2213
54.27255089,96.39,857,29.2746
54.29881145,96.39,799,28.2666
54.32507202,96.39,799,28.2666
54.35133258,96.39,777,27.8747
54.37759315,96.39,740,27.2029
54.40385371,96.39,742,27.2397
54.43011428,96.39,728,26.9815
54.45637484,96.39,702,26.4953
54.48263541,96.39,705,26.5518
54.50889597,96.39,732,27.0555
54.53515654,96.39,708,26.6083
54.5614171,96.39,679,26.0576
54.58767767,96.39,729,27
54.61393824,96.39,672,25.923
54.6401988,96.39,670,25.8844
54.66645937,96.39,678,26.0384
54.69271993,96.39,666,25.807
54.7189805,96.39,670,25.8844
54.74524106,96.39,656,25.6125
54.77150163,96.39,748,27.3496
54.79776219,96.39,649,25.4755
54.82402276,96.39,692,26.3059
54.85028332,96.39,717,26.7769
54.87654389,96.39,673,25.9422
54.90280445,96.39,686,26.1916
54.92906502,96.39,648,25.4558
54.95532559,96.39,647,25.4362
54.98158615,96.39,631,25.1197
55.00784672,96.39,731,27.037
55.03410728,96.39,652,25.5343
55.06036785,96.39,725,26.9258
55.08662841,96.39,668,25.8457
55.11288898,96.39,685,26.1725
55.13914954,96.39,689,26.2488
55.16541011,96.39,667,25.8263
55.19167067,96.39,636,25.219
55.21793124,96.39,631,25.1197
55.2441918,96.39,656,25.6125
55.27045237,96.39,674,25.9615
55.29671293,96.39,688,26.2298
55.3229735,96.39,631,25.1197
55.34923407,96.39,633,25.1595
55.37549463,96.39,610,24.6982
55.4017552,96.39,636,25.219
55.42801576,96.39,732,27.0555
55.45427633,96.39,647,25.4362
55.48053689,96.39,656,25.6125
55.50679746,96.39,726,26.9444
55.53305802,96.39,716,26.7582
55.55931859,96.39,624,24.98
55.58557915,96.39,673,25.9422
55.61183972,96.39,650,25.4951
55.63810028,96.39,646,25.4165
55.66436085,96.39,663,25.7488
55.69062141,96.39,672,25.923
55.71688198,96.39,648,25.4558
55.74314255,96.39,650,25.4951
55.76940311,96.39,635,25.1992
55.79566368,96.39,632,25.1396
55.82192424,96.39,675,25.9808
55.84818481,96.39,653,25.5539
55.87444537,96.39,692,26.3059
55.90070594,96.39,636,25.219
55.9269665,96.39,603,24.5561
55.95322707,96.39,625,25
55.97948763,96.39,637,25.2389
56.0057482,96.39,580,24.0832
56.03200876,96.39,636,25.219
56.05826933,96.39,665,25.7876
56.0845299,96.39,631,25.1197
56.11079046,96.39,661,25.7099
56.13705103,96.39,607,24.6374
56.16331159,96.39,634,25.1794
56.18957216,96.39,633,25.1595
56.21583272,96.39,583,24.1454
56.24209329,96.39,641,25.318
56.26835385,96.39,604,24.5764
56.29461442,96.39,599,24.4745
56.32087498,96.39,658,25.6515
56.34713555,96.39,608,24.6577
56.37339611,96.39,654,25.5734
56.39965668,96.39,594,24.3721
56.42591724,96.39,652,25.5343
56.45217781,96.39,662,25.7294
56.47843838,96.39,607,24.6374
56.50469894,96.39,685,26.1725
56.53095951,96.39,636,25.219
56.55722007,96.39,631,25.1197
56.58348064,96.39,608,24.6577
56.6097412,96.39,622,24.9399
56.63600177,96.39,613,24.7588
56.66226233,96.39,641,25.318
56.6885229,96.39,616,24.8193
56.71478346,96.39,595,24.3926
56.74104403,96.39,628,25.0599
56.76730459,96.39,601,24.5153
56.79356516,96.39,618,24.8596
56.81982573,96.39,557,23.6008
56.84608629,96.39,608,24.6577
56.87234686,96.39,604,24.5764
56.89860742,96.39,579,24.0624
56.92486799,96.39,618,24.8596
56.95112855,96.39,630,25.0998
56.97738912,96.39,574,23.9583
57.00364968,96.39,635,25.1992
57.02991025,96.39,579,24.0624
57.05617081,96.39,599,24.4745
57.08243138,96.39,601,24.5153
57.10869194,96.39,581,24.1039
57.13495251,96.39,632,25.1396
57.16121307,96.39,585,24.1868
57.18747364,96.39,588,24.2487
57.21373421,96.39,615,24.7992
57.23999477,96.39,585,24.1868
57.26625534,96.39,633,25.1595
57.2925159,96.39,653,25.5539
57.31877647,96.39,599,24.4745
57.34503703,96.39,598,24.454
57.3712976,96.39,582,24.1247
57.39755816,96.39,607,24.6374
57.42381873,96.39,658,25.6515
57.45007929,96.39,631,25.1197
57.47633986,96.39,706,26.5707
57.50260042,96.39,681,26.096
57.52886099,96.39,651,25.5147
57.55512156,96.39,666,25.807
57.58138212,96.39,660,25.6905
57.60764269,96.39,639,25.2784
57.63390325,96.39,673,25.9422
57.66016382,96.39,674,25.9615
57.68642438,96.39,680,26.0768
57.71268495,96.39,708,26.6083
57.73894551,96.39,656,25.6125
57.76520608,96.39,685,26.1725
57.79146664,96.39,684,26.1534
57.81772721,96.39,662,25.7294
57.84398777,96.39,635,25.1992
57.87024834,96.39,633,25.1595
57.8965089,96.39,595,24.3926
57.92276947,96.39,623,24.96
57.94903004,96.39,649,25.4755
57.9752906,96.39,704,26.533
58.00155117,96.39,741,27.2213
58.02781173,96.39,762,27.6043
58.0540723,96.39,727,26.9629
58.08033286,96.39,726,26.9444
58.10659343,96.39,687,26.2107
58.13285399,96.39,694,26.3439
58.15911456,96.39,695,26.3629
58.18537512,96.39,669,25.865
58.21163569,96.39,652,25.5343
58.23789625,96.39,717,26.7769
58.26415682,96.39,637,25.2389
58.29041739,96.39,604,24.5764
58.31667795,96.39,659,25.671
58.34293852,96.39,614,24.779
58.36919908,96.39,605,24.5967
58.39545965,96.39,629,25.0799
58.42172021,96.39,590,24.2899
58.44798078,96.39,585,24.1868
58.47424134,96.39,626,25.02
58.50050191,96.39,580,24.0832
58.52676247,96.39,602,24.5357
58.55302304,96.39,612,24.7386
58.5792836,96.39,627,25.04
58.60554417,96.39,597,24.4336
58.63180473,96.39,594,24.3721
58.6580653,96.39,618,24.8596
58.68432587,96.39,613,24.7588
58.71058643,96.39,623,24.96
58.736847,96.39,602,24.5357
58.76310756,96.39,596,24.4131
58.78936813,96.39,609,24.6779
58.81562869,96.39,584,24.1661
58.84188926,96.39,629,25.0799
58.86814982,96.39,581,24.1039
58.89441039,96.39,599,24.4745
58.92067095,96.39,553,23.516
58.94693152,96.39,581,24.1039
58.97319208,96.39,579,24.0624
58.99945265,96.39,624,24.98
59.02571321,96.39,583,24.1454
59.05197378,96.39,609,24.6779
59.07823435,96.39,582,24.1247
59.10449491,96.39,543,23.3024
59.13075548,96.39,635,25.1992
59.15701604,96.39,637,25.2389
59.18327661,96.39,658,25.6515
59.20953717,96.39,645,25.3969
59.23579774,96.39,643,25.3574
59.2620583,96.39,614,24.779
59.28831887,96.39,644,25.3772
59.31457943,96.39,630,25.0998
59.34084,96.39,611,24.7184
59.36710056,96.39,634,25.1794
59.39336113,96.39,638,25.2587
59.4196217,96.39,634,25.1794
59.44588226,96.39,634,25.1794
59.47214283,96.39,608,24.6577
59.49840339,96.39,629,25.0799
59.52466396,96.39,652,25.5343
59.55092452,96.39,661,25.7099
59.57718509,96.39,625,25
59.60344565,96.39,633,25.1595
59.62970622,96.39,619,24.8797
59.65596678,96.39,635,25.1992
59.68222735,96.39,622,24.9399
59.70848791,96.39,682,26.1151
59.73474848,96.39,692,26.3059
59.76100904,96.39,668,25.8457
59.78726961,96.39,644,25.3772
59.81353018,96.39,643,25.3574
59.83979074,96.39,653,25.5539
59.86605131,96.39,684,26.1534
59.89231187,96.39,703,26.5141
59.91857244,96.39,720,26.8328
59.944833,96.39,726,26.9444
59.97109357,96.39,681,26.096
59.99735413,96.39,694,26.3439
60.0236147,96.39,713,26.7021
60.04987526,96.39,692,26.3059
60.07613583,96.39,702,26.4953
60.10239639,96.39,738,27.1662
60.12865696,96.39,690,26.2679
60.15491753,96.39,717,26.7769
60.18117809,96.39,683,26.1343
60.20743866,96.39,761,27.5862
60.23369922,96.39,728,26.9815
60.25995979,96.39,691,26.2869
60.28622035,96.39,727,26.9629
60.31248092,96.39,748,27.3496
60.33874148,96.39,724,26.9072
60.36500205,96.39,721,26.8514
60.39126261,96.39,716,26.7582
60.41752318,96.39,776,27.8568
60.44378374,96.39,773,27.8029
60.47004431,96.39,763,27.6225
60.49630487,96.39,766,27.6767
60.52256544,96.39,779,27.9106
60.54882601,96.39,766,27.6767
60.57508657,96.39,775,27.8388
60.60134714,96.39,808,28.4253
60.6276077,96.39,875,29.5804
60.65386827,96.39,864,29.3939
60.68012883,96.39,801,28.3019
60.7063894,96.39,881,29.6816
60.73264996,96.39,850,29.1548
60.75891053,96.39,833,28.8617
60.78517109,96.39,859,29.3087
60.81143166,96.39,877,29.6142
60.83769222,96.39,888,29.7993
60.86395279,96.39,875,29.5804
60.89021336,96.39,987,31.4166
60.91647392,96.39,916,30.2655
60.94273449,96.39,907,30.1164
60.96899505,96.39,859,29.3087
60.99525562,96.39,928,30.4631
61.02151618,96.39,905,30.0832
61.04777675,96.39,930,30.4959
61.07403731,96.39,946,30.7571
61.10029788,96.39,934,30.5614
61.12655844,96.39,968,31.1127
61.15281901,96.39,973,31.1929
61.17907957,96.39,916,30.2655
61.20534014,96.39,891,29.8496
61.2316007,96.39,950,30.8221
61.25786127,96.39,975,31.225
61.28412184,96.39,968,31.1127
61.3103824,96.39,944,30.7246
61.33664297,96.39,985,31.3847
61.36290353,96.39,958,30.9516
61.3891641,96.39,948,30.7896
61.41542466,96.39,949,30.8058
61.44168523,96.39,971,31.1609
61.46794579,96.39,919,30.315
61.49420636,96.39,947,30.7734
61.52046692,96.39,869,29.4788
61.54672749,96.39,921,30.348
61.57298805,96.39,931,30.5123
61.59924862,96.39,895,29.9166
61.62550919,96.39,915,30.249
61.65176975,96.39,945,30.7409
61.67803032,96.39,940,30.6594
61.70429088,96.39,889,29.8161
61.73055145,96.39,873,29.5466
61.75681201,96.39,818,28.6007
61.78307258,96.39,901,30.0167
61.80933314,96.39,879,29.6479
61.83559371,96.39,830,28.8097
61.86185427,96.39,861,29.3428
61.88811484,96.39,791,28.1247
61.9143754,96.39,814,28.5307
61.94063597,96.39,821,28.6531
61.96689653,96.39,828,28.775
61.9931571,96.39,816,28.5657
62.01941767,96.39,807,28.4077
62.04567823,96.39,853,29.2062
62.0719388,96.39,840,28.9828
62.09819936,96.39,782,27.9643
62.12445993,96.39,812,28.4956
62.15072049,96.39,771,27.7669
62.17698106,96.39,815,28.5482
62.20324162,96.39,785,28.0179
62.22950219,96.39,743,27.258
62.25576275,96.39,762,27.6043
62.28202332,96.39,825,28.7228
62.30828388,96.39,774,27.8209
62.33454445,96.39,733,27.074
62.36080502,96.39,790,28.1069
62.38706558,96.39,767,27.6948
62.41332615,96.39,752,27.4226
62.43958671,96.39,727,26.9629
62.46584728,96.39,745,27.2947
62.49210784,96.39,776,27.8568
62.51836841,96.39,704,26.533
62.54462897,96.39,768,27.7128
62.57088954,96.39,709,26.6271
62.5971501,96.39,782,27.9643
62.62341067,96.39,713,26.7021
62.64967123,96.39,771,27.7669
62.6759318,96.39,733,27.074
62.70219236,96.39,770,27.7489
62.72845293,96.39,653,25.5539
62.7547135,96.39,703,26.5141
62.78097406,96.39,705,26.5518
62.80723463,96.39,702,26.4953
62.83349519,96.39,700,26.4575
62.85975576,96.39,659,25.671
62.88601632,96.39,680,26.0768
62.91227689,96.39,644,25.3772
62.93853745,96.39,668,25.8457
62.96479802,96.39,721,26.8514
62.99105858,96.39,627,25.04
63.01731915,96.39,704,26.533
63.04357971,96.39,678,26.0384
63.06984028,96.39,617,24.8395
63.09610084,96.39,612,24.7386
63.12236141,96.39,632,25.1396
63.14862198,96.39,615,24.7992
63.17488254,96.39,606,24.6171
63.20114311,96.39,598,24.454
63.22740367,96.39,606,24.6171
63.25366424,96.39,596,24.4131
63.2799248,96.39,659,25.671
63.30618537,96.39,656,25.6125
63.33244593,96.39,641,25.318
63.3587065,96.39,586,24.2074
63.38496706,96.39,581,24.1039
63.41122763,96.39,594,24.3721
63.43748819,96.39,599,24.4745
63.46374876,96.39,566,23.7908
63.49000933,96.39,632,25.1396
63.51626989,96.39,592,24.3311
63.54253046,96.39,608,24.6577
63.56879102,96.39,611,24.7184
63.59505159,96.39,576,24
63.62131215,96.39,658,25.6515
63.64757272,96.39,586,24.2074
63.67383328,96.39,599,24.4745
63.70009385,96.39,637,25.2389
63.72635441,96.39,609,24.6779
63.75261498,96.39,669,25.865
63.77887554,96.39,670,25.8844
63.80513611,96.39,621,24.9199
63.83139667,96.39,614,24.779
63.85765724,96.39,659,25.671
63.88391781,96.39,638,25.2587
63.91017837,96.39,627,25.04
63.93643894,96.39,660,25.6905
63.9626995,96.39,654,25.5734
63.98896007,96.39,646,25.4165
64.01522063,96.39,621,24.9199
64.0414812,96.39,648,25.4558
64.06774176,96.39,606,24.6171
64.09400233,96.39,606,24.6171
64.12026289,96.39,619,24.8797
64.14652346,96.39,649,25.4755
64.17278402,96.39,588,24.2487
64.19904459,96.39,615,24.7992
64.22530516,96.39,601,24.5153
64.25156572,96.39,596,24.4131
64.27782629,96.39,538,23.1948
64.30408685,96.39,582,24.1247
64.33034742,96.39,617,24.8395
64.35660798,96.39,569,23.8537
64.38286855,96.39,610,24.6982
64.40912911,96.39,581,24.1039
64.43538968,96.39,562,23.7065
64.46165024,96.39,577,24.0208
64.48791081,96.39,553,23.516
64.51417137,96.39,535,23.1301
64.54043194,96.39,559,23.6432
64.5666925,96.39,532,23.0651
64.59295307,96.39,522,22.8473
64.61921364,96.39,553,23.516
64.6454742,96.39,551,23.4734
64.67173477,96.39,544,23.3238
64.69799533,96.39,512,22.6274
64.7242559,96.39,544,23.3238
64.75051646,96.39,533,23.0868
64.77677703,96.39,535,23.1301
64.80303759,96.39,557,23.6008
64.82929816,96.39,541,23.2594
64.85555872,96.39,567,23.8118
64.88181929,96.39,496,22.2711
64.90807985,96.39,540,23.2379
64.93434042,96.39,544,23.3238
64.96060099,96.39,564,23.7487
64.98686155,96.39,535,23.1301
