5.00773  1116.8
5.033991  1116.8
5.060252  1464.8
5.086513  1350
5.112774  1323.2
5.139035  1195.6
5.165296  1333.5
5.191557  1193.5
5.217818  1249.2
5.244079  1137.8
5.27034  1192.8
5.296601  1161.3
5.322862  1234.9
5.349123  1159.4
5.375384  1213.6
5.401645  1176.7
5.427906  1156.9
5.454167  1147.9
5.480428  1248.4
5.506689  1088.7
5.53295  1075
5.559211  1125.4
5.585472  1105.4
5.611733  1067.3
5.637994  1121.3
5.664255  1183.9
5.690516  1003.5
5.716777  1045.4
5.743038  972.4
5.769299  1145.5
5.79556  1024.7
5.821821  1034.8
5.848082  1082.6
5.874343  1006.5
5.900604  1062.1
5.926865  1010.7
5.953126  1043.3
5.979387  985.6
6.005648  1020.9
6.031909  916.6
6.05817  1077.1
6.084431  900.3
6.110692  1096.6
6.136953  873.7
6.163214  1055.8
6.189475  1028
6.215736  894.8
6.241997  954.8
6.268258  1068.6
6.294519  1034
6.32078  949.3
6.347041  957.1
6.373302  1002
6.399563  1051.1
6.425824  948.6
6.452085  980.6
6.478346  1056.4
6.504607  872.3
6.530868  937.9
6.557129  968.6
6.58339  899
6.609651  1039.4
6.635912  987.2
6.662173  1022.4
6.688434  943.5
6.714695  918.6
6.740956  962.5
6.767217  891.8
6.793478  948.1
6.819739  999
6.846  896.7
6.872261  1014.9
6.898522  912.6
6.924783  932.8
6.951044  992.4
6.977305  912.9
7.003566  970.7
7.029827  890.6
7.056088  902.1
7.082349  942.4
7.10861  979
7.134871  927.1
7.161132  976.5
7.187393  956.2
7.213654  904.1
7.239915  1001.9
7.266176  946.2
7.292437  895.1
7.318698  1039.6
7.344959  977.5
7.37122  920.9
7.397481  1058.7
7.423742  981.3
7.450003  1052.8
7.476264  820.6
7.502525  1008
7.528786  969.4
7.555047  908.4
7.581308  992.8
7.607569  964.8
7.63383  1026.5
7.660091  1018.7
7.686352  949.6
7.712613  913.1
7.738874  1103.1
7.765135  916.9
7.791396  925.3
7.817657  922.8
7.843918  987.1
7.870179  1034.6
7.89644  1083.1
7.922701  877.4
7.948962  1001.8
7.975223  1036.3
8.001484  939.5
8.027745  1033.2
8.054006  1022.9
8.080267  923.3
8.106528  1000.1
8.132789  978.3
8.15905  1042.3
8.185311  931.1
8.211572  1038
8.237833  1106.5
8.264094  1044.8
8.290355  1037.5
8.316616  1027.6
8.342877  1016.9
8.369138  1064.8
8.395399  944
8.42166  1162.7
8.447921  1033.6
8.474182  1169.9
8.500443  1083.2
8.526704  1026.6
8.552965  1089.1
8.579226  1091.5
8.605487  1120.2
8.631748  1167.3
8.658009  1022.1
8.68427  1126.1
8.710531  1101.2
8.736792  1139.6
8.763053  1128
8.789314  1131.6
8.815575  1169.2
8.841836  1182.6
8.868097  1158.3
8.894358  1223.6
8.920619  1190.2
8.94688  1156.9
8.973141  1098.5
8.999402  1127.7
9.025663  1239.2
9.051924  1279.4
9.078185  1054.3
9.104446  1276.8
9.130707  1121.5
9.156968  1085.7
9.183229  1194.4
9.20949  1160.7
9.235751  1215.4
9.262012  1199.5
9.288273  1098.9
9.314534  1225.7
9.340795  1264.5
9.367056  1195
9.393317  1353.2
9.419578  1130.8
9.445839  1235.6
9.4721  1307.8
9.498361  1244.5
9.524622  1282.2
9.550883  1198
9.577144  1268.2
9.603405  1189.1
9.629666  1325.2
9.655927  1118.8
9.682188  1385.6
9.708449  1201.1
9.73471  1243.4
9.760971  1213.7
9.787232  1325.4
9.813493  1312.6
9.839754  1208.9
9.866015  1281.1
9.892276  1327.2
9.918537  1282.7
9.944798  1167.1
9.971059  1328.2
9.99732  1160.8
10.02358  1465.1
10.04984  1202.6
10.0761  1362.6
10.10236  1222.8
10.12862  1401.1
10.15489  1335.4
10.18115  1359.7
10.20741  1214.6
10.23367  1369.1
10.25993  1214.5
10.28619  1309
10.31245  1438.3
10.33871  1255.6
10.36497  1327.9
10.39124  1269.8
10.4175  1304.8
10.44376  1310.8
10.47002  1351
10.49628  1359.3
10.52254  1288.6
10.5488  1414.8
10.57506  1390.5
10.60132  1534.8
10.62758  1296.9
10.65384  1459.4
10.68011  1273.1
10.70637  1520.1
10.73263  1322
10.75889  1342
10.78515  1442.8
10.81141  1391
10.83767  1444.3
10.86393  1336.7
10.89019  1373.3
10.91646  1509.9
10.94272  1338
10.96898  1491.2
10.99524  1321
11.0215  1442.2
11.04776  1437.9
11.07402  1231.4
11.10028  1431.6
11.12654  1418.1
11.1528  1403.2
11.17906  1358
11.20533  1420
11.23159  1426.9
11.25785  1348.9
11.28411  1493.2
11.31037  1246.6
11.33663  1468.4
11.36289  1388.1
11.38915  1339.5
11.41541  1460.4
11.44168  1293.6
11.46794  1377.6
11.4942  1388.2
11.52046  1299.9
11.54672  1384.6
11.57298  1380
11.59924  1370.1
11.6255  1406.1
11.65176  1332.8
11.67802  1452.8
11.70428  1265.8
11.73055  1479.1
11.75681  1238.9
11.78307  1313.4
11.80933  1350.3
11.83559  1259.8
11.86185  1390.2
11.88811  1279.4
11.91437  1355.3
11.94063  1072
11.9669  1329.3
11.99316  1214.2
12.01942  1272.8
12.04568  1199.1
12.07194  1305.5
12.0982  1219.9
12.12446  1284.4
12.15072  1163.8
12.17698  1160.8
12.20324  1146.7
12.2295  1327
12.25577  1123
12.28203  1158.2
12.30829  1131.7
12.33455  1203.8
12.36081  1096.5
12.38707  1171.4
12.41333  1172.3
12.43959  985.3
12.46585  1135.6
12.49212  1146.9
12.51838  1111.3
12.54464  964.7
12.5709  1183.2
12.59716  993.8
12.62342  1071.1
12.64968  1073.2
12.67594  1008.6
12.7022  1172
12.72846  866.2
12.75473  1124.5
12.78099  971.6
12.80725  1069.7
12.83351  940.1
12.85977  978.7
12.88603  1022.2
12.91229  989
12.93855  998.8
12.96481  934.8
12.99107  1035.1
13.01733  944.4
13.0436  971.9
13.06986  919.4
13.09612  911.8
13.12238  982
13.14864  979.6
13.1749  868.7
13.20116  901.2
13.22742  991.2
13.25368  926.6
13.27995  910.6
13.30621  802.9
13.33247  944.4
13.35873  822.1
13.38499  870.3
13.41125  854.4
13.43751  902.4
13.46377  757.2
13.49003  864.4
13.51629  862.5
13.54255  877.7
13.56882  749.5
13.59508  789.4
13.62134  887
13.6476  832.7
13.67386  904
13.70012  829.1
13.72638  761.1
13.75264  812.9
13.7789  822.3
13.80517  742.8
13.83143  810.4
13.85769  796.7
13.88395  832.4
13.91021  807.3
13.93647  703.7
13.96273  794.4
13.98899  821.8
14.01525  746.4
14.04151  754.6
14.06777  791.3
14.09404  729.6
14.1203  743.3
14.14656  740.2
14.17282  852.6
14.19908  689.4
14.22534  724.1
14.2516  783.5
14.27786  749
14.30412  652
14.33039  681.8
14.35665  674.7
14.38291  706.2
14.40917  708.2
14.43543  744.4
14.46169  727.4
14.48795  761.5
14.51421  767.9
14.54047  662.1
14.56673  624
14.59299  711.7
14.61926  683
14.64552  674.2
14.67178  701.1
14.69804  682.4
14.7243  765.2
14.75056  658.9
14.77682  741.3
14.80308  725.2
14.82934  644.7
14.85561  764.2
14.88187  691.6
14.90813  555.3
14.93439  794.5
14.96065  726
14.98691  669.4
15.01317  602.7
15.03943  734.4
15.06569  706.1
15.09195  667
15.11821  713.7
15.14448  743.8
15.17074  708.6
15.197  733.2
15.22326  691.8
15.24952  681.1
15.27578  666.9
15.30204  666.7
15.3283  663.5
15.35456  687.9
15.38083  613.6
15.40709  709.2
15.43335  699.7
15.45961  685.2
15.48587  763.7
15.51213  709.1
15.53839  626
15.56465  742
15.59091  652.7
15.61717  719.8
15.64343  639.9
15.6697  677.2
15.69596  654.9
15.72222  734.7
15.74848  723.7
15.77474  681.9
15.801  609.4
15.82726  755.2
15.85352  637.3
15.87978  708.2
15.90604  714.6
15.93231  606.2
15.95857  715.9
15.98483  682.3
16.01109  644
16.03735  673.2
16.06361  754.8
16.08987  630.4
16.11613  716.8
16.14239  640.6
16.16866  591.1
16.19492  736.4
16.22118  765.1
16.24744  686.3
16.2737  694.4
16.29996  711.7
16.32622  668.9
16.35248  677.8
16.37874  681.1
16.405  687.2
16.43126  758.2
16.45753  638.5
16.48379  747.2
16.51005  638.5
16.53631  751.6
16.56257  646.4
16.58883  668.9
16.61509  693.1
16.64135  713.8
16.66761  732.7
16.69387  677
16.72014  645.9
16.7464  795.9
16.77266  683.4
16.79892  671.1
16.82518  718.6
16.85144  757.2
16.8777  736.4
16.90396  746.9
16.93022  746.4
16.95649  673.5
16.98275  726.7
17.00901  799.4
17.03527  672.4
17.06153  737.5
17.08779  751.5
17.11405  719.6
17.14031  755.1
17.16657  825
17.19283  788.2
17.2191  655.6
17.24536  721.1
17.27162  788.4
17.29788  750.6
17.32414  755.4
17.3504  651
17.37666  771.4
17.40292  819.4
17.42918  796.7
17.45544  747.7
17.4817  771.5
17.50797  778
17.53423  799.1
17.56049  792.5
17.58675  801.6
17.61301  768.4
17.63927  815.7
17.66553  835.6
17.69179  782.4
17.71805  788.8
17.74431  821.3
17.77058  780.1
17.79684  877.1
17.8231  787
17.84936  876.4
17.87562  846
17.90188  783.9
17.92814  896.6
17.9544  830.6
17.98066  859.7
18.00693  744.3
18.03319  906.9
18.05945  878.1
18.08571  944.2
18.11197  808.7
18.13823  789.8
18.16449  888.8
18.19075  899.7
18.21701  839.8
18.24327  940.5
18.26954  855.8
18.2958  915
18.32206  964.2
18.34832  816.8
18.37458  896.4
18.40084  873.2
18.4271  876.9
18.45336  874.2
18.47962  832
18.50588  953.9
18.53214  820.9
18.55841  918.1
18.58467  997.4
18.61093  828.9
18.63719  922.5
18.66345  943.9
18.68971  918.9
18.71597  981
18.74223  962.3
18.76849  849.5
18.79476  925.4
18.82102  1025.4
18.84728  939.1
18.87354  918.4
18.8998  949.9
18.92606  1074.1
18.95232  941.5
18.97858  951.4
19.00484  1021.2
19.0311  1010.7
19.05737  1020.9
19.08363  1042.1
19.10989  1076.9
19.13615  1078
19.16241  1006.3
19.18867  989.7
19.21493  1111.7
19.24119  1037.6
19.26745  990.1
19.29371  1101.8
19.31997  1062.1
19.34624  1062.6
19.3725  1212.2
19.39876  1110.9
19.42502  1095
19.45128  1070.3
19.47754  1154.6
19.5038  996.3
19.53006  1115.2
19.55632  1156.8
19.58258  1181.2
19.60885  1103.3
19.63511  1151.1
19.66137  1132.2
19.68763  1286
19.71389  1167.2
19.74015  1049.6
19.76641  1077.5
19.79267  1331.1
19.81893  1057.1
19.8452  1230.3
19.87146  1193.4
19.89772  1165.9
19.92398  1191.6
19.95024  1201.5
19.9765  1158.1
20.00276  1170.2
20.02902  1197.2
20.05528  1205.2
20.08154  1252.2
20.10781  1188.4
20.13407  1240.7
20.16033  1311.1
20.18659  1185
20.21285  1215.1
20.23911  1291.7
20.26537  1378.9
20.29163  1272
20.31789  1168.6
20.34415  1207.5
20.37041  1299.1
20.39668  1398
20.42294  1234.8
20.4492  1261.8
20.47546  1260.9
20.50172  1391.6
20.52798  1299.3
20.55424  1206.5
20.5805  1318.1
20.60676  1376.2
20.63302  1431.8
20.65929  1381.4
20.68555  1250.4
20.71181  1272.8
20.73807  1441.6
20.76433  1369.1
20.79059  1310.7
20.81685  1383.4
20.84311  1365.7
20.86937  1424.2
20.89564  1376.5
20.9219  1420
20.94816  1494.1
20.97442  1382.3
21.00068  1307
21.02694  1435.3
21.0532  1495.6
21.07946  1433.8
21.10572  1400.6
21.13198  1416.7
21.15825  1606.1
21.18451  1517.3
21.21077  1373.8
21.23703  1417.3
21.26329  1575.4
21.28955  1418.6
21.31581  1397.5
21.34207  1389.7
21.36833  1463.7
21.39459  1427.4
21.42085  1457
21.44712  1483.7
21.47338  1506.3
21.49964  1521.3
21.5259  1469.5
21.55216  1534.2
21.57842  1645.4
21.60468  1463.5
21.63094  1435.1
21.6572  1557.7
21.68346  1670
21.70973  1578.2
21.73599  1559.2
21.76225  1579
21.78851  1547
21.81477  1532.3
21.84103  1543.4
21.86729  1605.9
21.89355  1557.1
21.91981  1635.8
21.94608  1692
21.97234  1612.8
21.9986  1537
22.02486  1686.6
22.05112  1711
22.07738  1598.6
22.10364  1496.5
22.1299  1564.8
22.15616  1657.8
22.18242  1667.6
22.20868  1654.2
22.23495  1658.3
22.26121  1561.9
22.28747  1634.4
22.31373  1617
22.33999  1702
22.36625  1613.6
22.39251  1604
22.41877  1616.7
22.44503  1702.7
22.47129  1545.5
22.49756  1683.6
22.52382  1713.2
22.55008  1772.3
22.57634  1669
22.6026  1659.4
22.62886  1660.5
22.65512  1669.7
22.68138  1680.1
22.70764  1669
22.73391  1687.1
22.76017  1667.3
22.78643  1638.8
22.81269  1641.5
22.83895  1668.6
22.86521  1655.4
22.89147  1653.4
22.91773  1652.6
22.94399  1668.3
22.97025  1630
22.99652  1683.8
23.02278  1702.5
23.04904  1646.6
23.0753  1682.8
23.10156  1678
23.12782  1671.2
23.15408  1601.4
23.18034  1627.8
23.2066  1678.8
23.23286  1676.8
23.25912  1593.5
23.28539  1591.5
23.31165  1654.8
23.33791  1706.7
23.36417  1672.2
23.39043  1493.2
23.41669  1480
23.44295  1549.6
23.46921  1735.2
23.49547  1663.2
23.52173  1381.7
23.548  1575.5
23.57426  1515.8
23.60052  1683
23.62678  1568.3
23.65304  1621.6
23.6793  1478.7
23.70556  1555.4
23.73182  1572.7
23.75808  1544.3
23.78435  1539.5
23.81061  1458.3
23.83687  1571.3
23.86313  1432.9
23.88939  1528.1
23.91565  1545.3
23.94191  1427.7
23.96817  1413.6
23.99443  1408
24.02069  1601
24.04696  1474.3
24.07322  1480
24.09948  1355.3
24.12574  1380.5
24.152  1449.1
24.17826  1535.7
24.20452  1420.7
24.23078  1451.6
24.25704  1452.9
24.2833  1436.8
24.30956  1454.3
24.33583  1378.6
24.36209  1416.7
24.38835  1419.6
24.41461  1329.4
24.44087  1414.9
24.46713  1351.7
24.49339  1414.1
24.51965  1319.4
24.54591  1367.8
24.57217  1323.9
24.59844  1297.8
24.6247  1380.9
24.65096  1297.3
24.67722  1292.1
24.70348  1377.8
24.72974  1284.2
24.756  1289.7
24.78226  1316.4
24.80852  1278.7
24.83479  1318.6
24.86105  1259.9
24.88731  1268.3
24.91357  1253.2
24.93983  1282.3
24.96609  1231.3
24.99235  1286.6
25.01861  1278
25.04487  1228
25.07113  1169.3
25.09739  1163.7
25.12366  1233.2
25.14992  1205.1
25.17618  1168.3
25.20244  1232.7
25.2287  1162.3
25.25496  1167.8
25.28122  1180.9
25.30748  1261.6
25.33374  1234.8
25.36  1085.3
25.38627  1188
25.41253  1195.4
25.43879  1172.4
25.46505  1163.4
25.49131  1159
25.51757  1186.6
25.54383  1131.9
25.57009  1118.4
25.59635  1194.7
25.62262  1114
25.64888  1146.9
25.67514  1175.3
25.7014  1196.7
25.72766  1101.4
25.75392  1007
25.78018  1074.5
25.80644  1160.8
25.8327  1070.3
25.85896  1159.9
25.88523  1127.6
25.91149  1124.3
25.93775  1174.1
25.96401  1158.9
25.99027  1048.3
26.01653  1053.5
26.04279  1191.4
26.06905  1099.2
26.09531  1084.3
26.12157  1141.1
26.14783  1150.4
26.1741  1123.7
26.20036  1102.6
26.22662  1095.4
26.25288  1072.3
26.27914  1100.5
26.3054  1080.7
26.33166  1116.2
26.35792  999.1
26.38418  1051.3
26.41044  1145.1
26.43671  1147.2
26.46297  1081.7
26.48923  1025.3
26.51549  1029.2
26.54175  1079.7
26.56801  1108.5
26.59427  1142.3
26.62053  1064.7
26.64679  1121.1
26.67306  933
26.69932  1164
26.72558  1006.5
26.75184  1091.1
26.7781  1068.9
26.80436  1064.1
26.83062  1167.8
26.85688  999.1
26.88314  997.3
26.9094  1008.5
26.93567  1099.9
26.96193  1093.1
26.98819  1081.4
27.01445  990.1
27.04071  1048.3
27.06697  1063.4
27.09323  1048.9
27.11949  1159
27.14575  1036.9
27.17201  995.4
27.19827  964
27.22454  1002.6
27.2508  1041.3
27.27706  1109.9
27.30332  1025.4
27.32958  977.5
27.35584  1029.7
27.3821  1113.1
27.40836  1017
27.43462  1090.3
27.46088  1119.9
27.48715  1046.2
27.51341  991
27.53967  934.7
27.56593  1053.1
27.59219  1089.6
27.61845  1042.3
27.64471  1046.6
27.67097  1059.9
27.69723  1079.9
27.7235  1058.1
27.74976  1028.1
27.77602  1067.6
27.80228  987.5
27.82854  950.4
27.8548  1020
27.88106  996.1
27.90732  956.1
27.93358  993.3
27.95984  1064.4
27.9861  1015.6
28.01237  985.8
28.03863  980.6
28.06489  953.9
28.09115  1001
28.11741  1101.4
28.14367  1033.1
28.16993  1038.9
28.19619  958.8
28.22245  1094.5
28.24871  969.9
28.27498  1015.7
28.30124  973.3
28.3275  981.8
28.35376  1038.1
28.38002  987.5
28.40628  1081.8
28.43254  913.9
28.4588  934.8
28.48506  928.8
28.51133  1060.2
28.53759  1067.8
28.56385  1045.1
28.59011  952.8
28.61637  926.3
28.64263  946.3
28.66889  1026.5
28.69515  1089.2
28.72141  1038.2
28.74767  889.8
28.77394  908.6
28.8002  1005.2
28.82646  954.1
28.85272  969.3
28.87898  950.1
28.90524  981.5
28.9315  1014
28.95776  992.3
28.98402  1077.2
29.01028  910.8
29.03654  945.2
29.06281  935.1
29.08907  948.1
29.11533  1053.7
29.14159  937.3
29.16785  940.3
29.19411  927.7
29.22037  998.1
29.24663  953.6
29.27289  1026.6
29.29915  956.5
29.32542  941.9
29.35168  940.5
29.37794  977.7
29.4042  946.6
29.43046  1031
29.45672  874.2
29.48298  973.9
29.50924  1083.7
29.5355  984.5
29.56177  977.7
29.58803  823.7
29.61429  949.6
29.64055  912.2
29.66681  973.8
29.69307  931.8
29.71933  868
29.74559  975.1
29.77185  946.9
29.79811  966.6
29.82438  959.3
29.85064  941.4
29.8769  897.6
29.90316  874.4
29.92942  937.2
29.95568  935.6
29.98194  941.7
30.0082  908.9
30.03446  896
30.06072  965.2
30.08698  977.3
30.11325  925
30.13951  834.3
30.16577  902.3
30.19203  907.4
30.21829  941.5
30.24455  947.3
30.27081  875.4
30.29707  959.8
30.32333  906.8
30.34959  869.8
30.37586  825
30.40212  903.6
30.42838  1002.8
30.45464  956.8
30.4809  898.7
30.50716  850.8
30.53342  790.5
30.55968  943.8
30.58594  887.5
30.61221  923.8
30.63847  882.8
30.66473  894.3
30.69099  881.6
30.71725  845
30.74351  856.1
30.76977  852.1
30.79603  913.6
30.82229  913.7
30.84855  901.9
30.87481  859.9
30.90108  908.4
30.92734  868.8
30.9536  876.2
30.97986  891.7
31.00612  873.7
31.03238  922.7
31.05864  867.6
31.0849  871.8
31.11116  846.5
31.13742  896.4
31.16369  845.5
31.18995  830.3
31.21621  784.9
31.24247  916.3
31.26873  821.9
31.29499  972.5
31.32125  891.9
31.34751  803.8
31.37377  778.6
31.40004  830.9
31.4263  918.1
31.45256  906.8
31.47882  858.3
31.50508  848.3
31.53134  806.5
31.5576  847.9
31.58386  808.7
31.61012  871.9
31.63638  835.7
31.66265  838.7
31.68891  900.6
31.71517  826.2
31.74143  875.7
31.76769  762.8
31.79395  845.5
31.82021  887.8
31.84647  937
31.87273  791.6
31.89899  825
31.92525  769.2
31.95152  824.2
31.97778  906.4
32.00404  799.8
32.0303  908
32.05656  753
32.08282  813.6
32.10908  811.9
32.13534  870.6
32.16161  845.3
32.18787  855.6
32.21413  775.7
32.24039  826.2
32.26665  784.9
32.29291  875.9
32.31917  897.3
32.34543  850.8
32.37169  801.5
32.39795  812
32.42421  776.5
32.45047  796.3
32.47673  814.2
32.503  824.6
32.52926  808.7
32.55552  787
32.58178  835.6
32.60804  820.7
32.6343  784.4
32.66056  828.8
32.68682  808
32.71309  846.5
32.73935  829.2
32.76561  762.9
32.79187  830.7
32.81813  763.4
32.84439  815.1
32.87065  796.9
32.89691  784.4
32.92317  826
32.94943  819.3
32.9757  835.6
33.00196  802.9
33.02822  743.5
33.05448  784.2
33.08074  778.6
33.107  835.6
33.13326  852.9
33.15952  889.8
33.18578  841
33.21204  766.1
33.2383  715.4
33.26456  760.9
33.29083  817.5
33.31709  872.1
33.34335  883.6
33.36961  756.2
33.39587  801
33.42213  740.2
33.44839  830.3
33.47466  941.6
33.50092  848.5
33.52718  788.9
33.55344  782.6
33.5797  830.8
33.60596  886.4
33.63222  817.3
33.65848  813.2
33.68474  766.8
33.711  879
33.73726  900.7
33.76352  914
33.78979  866.6
33.81605  902.8
33.84231  842.2
33.86857  906.1
33.89483  879.1
33.92109  930.8
33.94735  957.5
33.97361  876.2
33.99987  936.1
34.02613  907.2
34.05239  949.8
34.07866  1026
34.10492  1049.3
34.13118  1099.1
34.15744  974
34.1837  1045.9
34.20996  1030.8
34.23622  1168
34.26249  1164
34.28875  1115.9
34.31501  1050.3
34.34127  1126.9
34.36753  1229.4
34.39379  1205.4
34.42005  1302.9
34.44631  1148.8
34.47257  1222.1
34.49883  1225
34.52509  1226.9
34.55135  1268.8
34.57762  1291.5
34.60388  1315.7
34.63014  1291.7
34.6564  1304
34.68266  1312.6
34.70892  1265.5
34.73518  1313.7
34.76144  1338.1
34.7877  1309.8
34.81396  1310.1
34.84023  1349.4
34.86649  1343.2
34.89275  1390.2
34.91901  1324.2
34.94527  1311.8
34.97153  1306.9
34.99779  1297.4
35.02405  1301.7
35.05032  1314.1
35.07658  1321.2
35.10284  1288
35.1291  1273.7
35.15536  1249.2
35.18162  1213.3
35.20788  1206.4
35.23414  1204.3
35.2604  1209.6
35.28666  1198.3
35.31292  1192.9
35.33918  1153.7
35.36544  1155.3
35.39171  1167.1
35.41797  1195
35.44423  1127.9
35.47049  1135.7
35.49675  1183.9
35.52301  1171.2
35.54927  1194.3
35.57553  1066.2
35.6018  1145.2
35.62806  1067.6
35.65432  1154
35.68058  1096.5
35.70684  1059
35.7331  1052.7
35.75936  1075.9
35.78562  1005.9
35.81188  1043.1
35.83814  1114.2
35.86441  1016.8
35.89067  1141.8
35.91693  976.3
35.94319  1026.7
35.96945  1126.3
35.99571  930.3
36.02197  1053.1
36.04823  947.6
36.07449  889.3
36.10075  1065.2
36.12701  895
36.15327  987
36.17954  950.8
36.2058  939.9
36.23206  984.9
36.25832  953
36.28458  929.7
36.31084  986
36.3371  875.7
36.36337  861
36.38963  944.6
36.41589  969.7
36.44215  922.4
36.46841  839.1
36.49467  919
36.52093  895
36.54719  854.3
36.57345  835.2
36.59971  841
36.62597  925.7
36.65223  1008.8
36.6785  899.5
36.70476  846
36.73102  811.4
36.75728  786.2
36.78354  855
36.8098  885.2
36.83606  877.9
36.86232  811.6
36.88858  812.9
36.91484  834.2
36.9411  766.2
36.96737  919.8
36.99363  829.7
37.01989  862.8
37.04615  869.4
37.07241  837.2
37.09867  801.2
37.12493  872.7
37.1512  849.5
37.17746  844.4
37.20372  820.8
37.22998  838.8
37.25624  805.5
37.2825  854.4
37.30876  827.3
37.33502  874.2
37.36128  776.4
37.38754  822.7
37.4138  786.3
37.44006  774.6
37.46633  856.5
37.49259  762.7
37.51885  915.2
37.54511  876.6
37.57137  756.2
37.59763  871.4
37.62389  778.6
37.65015  781.4
37.67641  799.4
37.70267  786
37.72894  854.5
37.7552  914.1
37.78146  863.8
37.80772  868
37.83398  871.4
37.86024  833.2
37.8865  775.9
37.91276  812.2
37.93902  759.3
37.96529  750.1
37.99155  876.5
38.01781  920.3
38.04407  902.2
38.07033  884.5
38.09659  785.2
38.12285  824.4
38.14911  855.5
38.17537  855.6
38.20163  839.4
38.22789  904.1
38.25415  785.4
38.28042  815.5
38.30668  888.4
38.33294  790.4
38.3592  863.8
38.38546  847.3
38.41172  839
38.43798  818.3
38.46424  858.6
38.49051  818.2
38.51677  904.8
38.54303  905.9
38.56929  781.3
38.59555  888.8
38.62181  766.3
38.64807  770.3
38.67433  877.2
38.70059  777.6
38.72685  875
38.75312  893.7
38.77938  841.4
38.80564  855.6
38.8319  908.1
38.85816  749.1
38.88442  848.7
38.91068  815.6
38.93694  761.1
38.9632  819.5
38.98946  821.6
39.01572  807
39.04198  851.7
39.06825  856
39.09451  812.3
39.12077  771.5
39.14703  846.3
39.17329  777.6
39.19955  821.4
39.22581  871.1
39.25208  842.5
39.27834  939.6
39.3046  804.6
39.33086  768.8
39.35712  774.7
39.38338  763.1
39.40964  767.9
39.4359  767.5
39.46216  817.7
39.48842  801.8
39.51468  834.8
39.54094  785.6
39.56721  761
39.59347  783.8
39.61973  742.3
39.64599  757.9
39.67225  810.2
39.69851  742.7
39.72477  765.3
39.75103  798.2
39.77729  759.8
39.80355  717.3
39.82981  784.9
39.85608  724
39.88234  748.5
39.9086  791.4
39.93486  756.6
39.96112  840.8
39.98738  811.2
40.01364  755.9
40.03991  768.6
40.06617  651.3
40.09243  742.7
40.11869  660.1
40.14495  752.3
40.17121  737.5
40.19747  674.7
40.22373  768.6
40.24999  762.1
40.27625  699.2
40.30251  759.1
40.32877  710.3
40.35504  737.1
40.3813  793.9
40.40756  691.6
40.43382  689.9
40.46008  727.7
40.48634  654.5
40.5126  720.6
40.53886  676.7
40.56512  693.2
40.59138  709.3
40.61765  758.3
40.64391  728.5
40.67017  656
40.69643  733.1
40.72269  605.2
40.74895  664.1
40.77521  672.8
40.80147  656.9
40.82773  751.3
40.854  716.5
40.88026  717.3
40.90652  695.8
40.93278  601.4
40.95904  680.8
40.9853  727.4
41.01156  669.6
41.03782  678.8
41.06408  640.5
41.09034  610.4
41.1166  673.9
41.14286  668.8
41.16913  739.3
41.19539  660.7
41.22165  671.8
41.24791  654.7
41.27417  587.8
41.30043  638.8
41.32669  606.3
41.35295  680.7
41.37922  654.8
41.40548  620.3
41.43174  683.4
41.458  666.9
41.48426  658.7
41.51052  632.6
41.53678  620.6
41.56304  595.4
41.5893  660.1
41.61556  661.2
41.64183  636.2
41.66809  634
41.69435  641.6
41.72061  634
41.74687  627.9
41.77313  640.7
41.79939  630.7
41.82565  628.5
41.85191  615.8
41.87817  673.9
41.90443  648.3
41.93069  621.1
41.95696  637.7
41.98322  577.5
42.00948  607.6
42.03574  557.2
42.062  618.7
42.08826  633.2
42.11452  569.2
42.14079  617.3
42.16705  640.8
42.19331  652.4
42.21957  606.2
42.24583  610.8
42.27209  550.9
42.29835  607.1
42.32461  563.5
42.35087  629.4
42.37713  682.9
42.40339  591.9
42.42965  599.3
42.45592  622.1
42.48218  557.2
42.50844  597.1
42.5347  579.3
42.56096  606.7
42.58722  606.3
42.61348  610.5
42.63974  648.8
42.666  628.5
42.69226  628.5
42.71852  611.1
42.74479  546.2
42.77105  610.3
42.79731  573.9
42.82357  613.5
42.84983  608.9
42.87609  583.6
42.90235  636.9
42.92862  617.2
42.95488  597.7
42.98114  556.6
43.0074  593.8
43.03366  600.8
43.05992  578.6
43.08618  586.2
43.11244  647.8
43.1387  591.1
43.16496  561.1
43.19122  666.7
43.21748  617
43.24375  569.8
43.27001  632.9
43.29627  571.9
43.32253  630
43.34879  606
43.37505  567.8
43.40131  644.9
43.42757  581.9
43.45383  587.8
43.48009  702.6
43.50636  548.1
43.53262  638.6
43.55888  631.1
43.58514  584.2
43.6114  575.9
43.63766  644.6
43.66392  540.6
43.69018  636.2
43.71644  616.2
43.74271  549.6
43.76897  602.9
43.79523  598
43.82149  574.2
43.84775  654.1
43.87401  674.5
43.90027  663.3
43.92653  650.8
43.95279  601.5
43.97905  602.1
44.00531  601.8
44.03157  567.9
44.05784  611.5
44.0841  579.9
44.11036  571
44.13662  693.4
44.16288  638.1
44.18914  689.9
44.2154  596
44.24166  615.8
44.26793  564
44.29419  564.4
44.32045  637
44.34671  666
44.37297  652.8
44.39923  683.8
44.42549  699.1
44.45175  613.3
44.47801  642.9
44.50427  655.1
44.53054  576.2
44.5568  562.7
44.58306  664.7
44.60932  633.8
44.63558  623.7
44.66184  741.3
44.6881  563.9
44.71436  665.9
44.74062  674.8
44.76688  643.9
44.79314  615.5
44.8194  688.4
44.84567  640
44.87193  655
44.89819  712.9
44.92445  640
44.95071  636.8
44.97697  695.9
45.00323  629.6
45.0295  653.8
45.05576  674.8
45.08202  714.9
45.10828  654.6
45.13454  731.5
45.1608  630.3
45.18706  670.2
45.21332  609.5
45.23958  642.8
45.26584  674
45.2921  673.1
45.31836  653.9
45.34463  740.3
45.37089  708.2
45.39715  718.2
45.42341  668.9
45.44967  660.5
45.47593  627.3
45.50219  668.9
45.52845  717.3
45.55471  711.9
45.58097  745.6
45.60723  680.8
45.6335  725.7
45.65976  682.3
45.68602  698.6
45.71228  642.9
45.73854  645.1
45.7648  682.4
45.79106  687.6
45.81733  602.5
45.84359  717.4
45.86985  733.2
45.89611  669.2
45.92237  673.9
45.94863  735.3
45.97489  658.8
46.00115  682.8
46.02741  664.3
46.05367  639
46.07993  645.1
46.10619  658
46.13246  730.2
46.15872  666.8
46.18498  679.6
46.21124  687.4
46.2375  700.1
46.26376  636.9
46.29002  700.8
46.31628  640.4
46.34254  697.7
46.3688  708.9
46.39507  705.1
46.42133  686
46.44759  670.9
46.47385  678.4
46.50011  675.2
46.52637  677.3
46.55263  666.2
46.57889  663.3
46.60515  678.5
46.63142  678.5
46.65768  671.7
46.68394  678.2
46.7102  682.8
46.73646  675.9
46.76272  671.8
46.78898  676.2
46.81524  661.7
46.8415  661.9
46.86776  660.5
46.89402  675.6
46.92028  674.3
46.94655  724.6
46.97281  676.7
46.99907  679.7
47.02533  657.8
47.05159  627.4
47.07785  658.9
47.10411  580.9
47.13037  704.9
47.15664  662
47.1829  703.1
47.20916  646.7
47.23542  712.7
47.26168  591.1
47.28794  624
47.3142  632.7
47.34046  674.9
47.36672  589.7
47.39298  710
47.41925  691.5
47.44551  665.3
47.47177  583
47.49803  679.2
47.52429  614.9
47.55055  600
47.57681  621.2
47.60307  642.2
47.62933  571.3
47.65559  584.2
47.68185  657
47.70811  585.5
47.73438  639.4
47.76064  654.5
47.7869  627.3
47.81316  674.9
47.83942  630.8
47.86568  546.6
47.89194  583
47.91821  666.9
47.94447  567.3
47.97073  622.9
47.99699  708.6
48.02325  669.6
48.04951  657.9
48.07577  605.1
48.10203  609.1
48.12829  491.1
48.15455  581.5
48.18081  604.5
48.20707  583.7
48.23334  622.6
48.2596  616.8
48.28586  574.4
48.31212  683
48.33838  658.5
48.36464  670.1
48.3909  609.3
48.41716  574.2
48.44342  562.1
48.46968  639.3
48.49594  592.7
48.52221  530.7
48.54847  603
48.57473  656.4
48.60099  566.3
48.62725  542.3
48.65351  610.9
48.67977  565.8
48.70604  593.7
48.7323  585.8
48.75856  563.9
48.78482  572.4
48.81108  628.1
48.83734  569.6
48.8636  607.1
48.88986  518.1
48.91612  551.4
48.94238  539.2
48.96864  566.6
48.9949  569.6
49.02117  593.7
49.04743  504.4
49.07369  555.5
49.09995  524.5
49.12621  544.7
49.15247  604.9
49.17873  546
49.20499  575.9
49.23125  519.7
49.25751  561.2
49.28378  522.6
49.31004  594.1
49.3363  536.1
49.36256  553.4
49.38882  566.3
49.41508  501.1
49.44134  482.9
49.4676  522.8
49.49386  570.2
49.52013  609.9
49.54639  529.3
49.57265  582.6
49.59891  576.1
49.62517  496.5
49.65143  503.8
49.67769  577.9
49.70395  479.8
49.73021  554.5
49.75647  479.2
49.78273  564.9
49.80899  561.2
49.83526  533
49.86152  536.3
49.88778  521.7
49.91404  457.7
49.9403  484.5
49.96656  509.9
49.99282  554.2
50.01908  517.1
50.04535  559.6
50.07161  509.2
50.09787  516.5
50.12413  509.1
50.15039  478.8
50.17665  476.7
50.20291  528.2
50.22917  485
50.25543  584.1
50.28169  510.3
50.30796  540.7
50.33422  466.6
50.36048  496.7
50.38674  480.4
50.413  513.4
50.43926  501.8
50.46552  497.1
50.49178  487.1
50.51804  523.6
50.5443  524.2
50.57056  479.3
50.59682  533.1
50.62309  508.9
50.64935  522.8
50.67561  485.2
50.70187  502.5
50.72813  524.7
50.75439  479.3
50.78065  490.2
50.80692  510.2
50.83318  490.8
50.85944  451.2
50.8857  535.6
50.91196  495.7
50.93822  499.6
50.96448  426.1
50.99074  481.1
51.017  486.9
51.04326  482.9
51.06952  490
51.09578  544.6
51.12205  560.2
51.14831  442.7
51.17457  513.9
51.20083  479.5
51.22709  437.1
51.25335  417.5
51.27961  443.5
51.30587  399.6
51.33213  470.8
51.35839  439.2
51.38465  521.5
51.41092  529.6
51.43718  507.8
51.46344  443.3
51.4897  465.5
51.51596  503.7
51.54222  482
51.56848  416.4
51.59475  470.5
51.62101  562.1
51.64727  481.1
51.67353  444.5
51.69979  485.8
51.72605  442.2
51.75231  436.5
51.77857  459.3
51.80483  479.5
51.83109  501.5
51.85735  465.8
51.88361  444.9
51.90988  445.6
51.93614  407.2
51.9624  457.6
51.98866  496.2
52.01492  481.9
52.04118  445.8
52.06744  449.2
52.0937  406.4
52.11996  447.5
52.14622  439.7
52.17249  474.4
52.19875  434.9
52.22501  479
52.25127  453
52.27753  481.1
52.30379  403.8
52.33005  490.4
52.35631  487.3
52.38257  441.7
52.40884  452.8
52.4351  447.6
52.46136  459.5
52.48762  395.6
52.51388  516.1
52.54014  406.5
52.5664  456.3
52.59266  446.5
52.61892  487.8
52.64518  456.3
52.67144  471.8
52.6977  457.5
52.72397  451.4
52.75023  445.5
52.77649  417.4
52.80275  446.7
52.82901  468.2
52.85527  463.9
52.88153  451.9
52.90779  435.6
52.93406  422.5
52.96032  440.3
52.98658  433.3
53.01284  497.7
53.0391  471
53.06536  456.3
53.09162  387.9
53.11788  427.2
53.14414  455.3
53.1704  391.2
53.19667  430.2
53.22293  479.7
53.24919  473.6
53.27545  475.2
53.30171  423.8
53.32797  406.3
53.35423  448
53.38049  413.6
53.40675  432.6
53.43301  444.1
53.45927  460.7
53.48553  532.6
53.5118  436.1
53.53806  420.2
53.56432  414.7
53.59058  447.6
53.61684  358.1
53.6431  403.6
53.66936  451.1
53.69563  465.4
53.72189  440.4
53.74815  413.8
53.77441  454.7
53.80067  409.5
53.82693  401.1
53.85319  379.6
53.87945  480.4
53.90571  482.4
53.93197  421.7
53.95823  402.4
53.98449  429.7
54.01076  401.6
54.03702  364.5
54.06328  404.1
54.08954  444.7
54.1158  400.6
54.14206  407.6
54.16832  457.7
54.19458  442.9
54.22084  430.9
54.2471  380.4
54.27337  405.1
54.29963  390.2
54.32589  394.2
54.35215  396
54.37841  412.1
54.40467  454.3
54.43093  485.3
54.45719  411.7
54.48346  459.1
54.50972  464.2
54.53598  390.8
54.56224  408
54.5885  395.5
54.61476  394
54.64102  382.7
54.66728  382.5
54.69354  399.4
54.7198  419.4
54.74606  399.5
54.77232  396
54.79859  416.5
54.82485  412.3
54.85111  408.2
54.87737  393.5
54.90363  414.3
54.92989  419.6
54.95615  408.7
54.98241  399.7
55.00867  422.5
55.03493  396.5
55.0612  428.7
55.08746  394.7
55.11372  374.7
55.13998  396.8
55.16624  382.4
55.1925  397.6
55.21876  374.2
55.24502  407.8
55.27128  406.9
55.29755  414.5
55.32381  430.9
55.35007  417.2
55.37633  391.9
55.40259  424.3
55.42885  400.3
55.45511  389
55.48137  385.1
55.50763  400.5
55.53389  412.6
55.56015  363.3
55.58641  415.3
55.61268  402.7
55.63894  401.8
55.6652  444.4
55.69146  396.4
55.71772  406.3
55.74398  347.7
55.77024  436.2
55.7965  375.9
55.82277  340.9
55.84903  413.4
55.87529  413.7
55.90155  434.7
55.92781  386.3
55.95407  408.1
55.98033  453.8
56.00659  396.7
56.03285  408
56.05911  379.1
56.08538  455.2
56.11164  365.4
56.1379  359.5
56.16416  406.4
56.19042  384.8
56.21668  383.1
56.24294  392.7
56.2692  392.8
56.29546  432.3
56.32172  385.3
56.34798  425.9
56.37424  437.4
56.40051  378.2
56.42677  382.4
56.45303  399
56.47929  392.6
56.50555  351.5
56.53181  339.4
56.55807  402.4
56.58434  402.1
56.6106  341.3
56.63686  367.9
56.66312  364.9
56.68938  419
56.71564  371.9
56.7419  415.1
56.76816  349
56.79442  375.4
56.82068  356.9
56.84694  359.1
56.8732  399.6
56.89947  382.4
56.92573  395.5
56.95199  384.6
56.97825  427.4
57.00451  427.9
57.03077  379.4
57.05703  366.1
57.08329  432.4
57.10955  376.9
57.13581  369.3
57.16208  306.9
57.18834  352.2
57.2146  407.2
57.24086  293.7
57.26712  389.2
57.29338  357.7
57.31964  425.6
57.3459  383.4
57.37217  385
57.39843  437.9
57.42469  332.6
57.45095  379.3
57.47721  357.9
57.50347  378.5
57.52973  371.2
57.55599  347.8
57.58225  427
57.60851  346.6
57.63477  387.2
57.66103  362
57.6873  360.5
57.71356  386.7
57.73982  316.4
57.76608  334.1
57.79234  321
57.8186  409.1
57.84486  353.4
57.87112  384.1
57.89738  419.8
57.92365  404.6
57.94991  388.8
57.97617  325.9
58.00243  375.5
58.02869  336.4
58.05495  330.3
58.08121  365.1
58.10747  385.6
58.13373  383
58.15999  384.5
58.18626  369.2
58.21252  386.5
58.23878  387.6
58.26504  381.8
58.2913  342.2
58.31756  388.1
58.34382  435
58.37008  381.9
58.39634  330.5
58.4226  366.9
58.44886  353.2
58.47512  338.9
58.50139  352.2
58.52765  377.5
58.55391  408.9
58.58017  398
58.60643  351.4
58.63269  391.1
58.65895  374.4
58.68521  388
58.71148  370.3
58.73774  346.3
58.764  316.3
58.79026  373.8
58.81652  364.7
58.84278  391.3
58.86904  373.9
58.8953  415.2
58.92156  429.4
58.94782  367
58.97409  373.9
59.00035  386.7
59.02661  359
59.05287  358.3
59.07913  351.9
59.10539  356
59.13165  324.5
59.15791  374.3
59.18417  400.6
59.21043  413.8
59.23669  361.2
59.26295  436.7
59.28922  423.1
59.31548  395
59.34174  346.6
59.368  377.5
59.39426  331.4
59.42052  376.4
59.44678  388.4
59.47305  381.7
59.49931  386.6
59.52557  343.8
59.55183  392.7
59.57809  403.4
59.60435  437.6
59.63061  403.7
59.65687  378.3
59.68313  433.1
59.70939  408.7
59.73565  368.7
59.76191  381.1
59.78818  420.8
59.81444  411.2
59.8407  390.3
59.86696  394.6
59.89322  423.3
59.91948  429.4
59.94574  417.8
59.972  473.1
59.99826  454.8
60.02452  460.7
60.05079  448.4
60.07705  461.1
60.10331  465.2
60.12957  388.7
60.15583  464.3
60.18209  470.6
60.20835  498.9
60.23461  489
60.26088  468.5
60.28714  525.5
60.3134  545.3
60.33966  508.5
60.36592  509.6
60.39218  541.5
60.41844  597.8
60.4447  594.5
60.47096  607.5
60.49722  572.5
60.52348  619
60.54974  615
60.576  589.8
60.60227  543.3
60.62853  648.4
60.65479  714.5
60.68105  694.3
60.70731  619.3
60.73357  659
60.75983  699.2
60.78609  634
60.81236  668.8
60.83862  628
60.86488  694.1
60.89114  680.6
60.9174  754.5
60.94366  697.9
60.96992  693.6
60.99618  777.3
61.02244  689.1
61.0487  694.1
61.07497  677.5
61.10123  700.5
61.12749  707.1
61.15375  751.2
61.18001  701.5
61.20627  698.5
61.23253  681.9
61.25879  678.4
61.28505  681.8
61.31131  672.3
61.33757  665.9
61.36383  675.1
61.3901  668.2
61.41636  662
61.44262  674
61.46888  675
61.49514  664.4
61.5214  665.3
61.54766  663.2
61.57393  653.1
61.60019  650.6
61.62645  642.3
61.65271  652.4
61.67897  619.9
61.70523  637
61.73149  612.6
61.75775  612.9
61.78401  625.5
61.81027  671.5
61.83653  624.7
61.8628  619.6
61.88906  690.4
61.91532  660.6
61.94158  649.5
61.96784  590.2
61.9941  683.7
62.02036  649.1
62.04662  691.7
62.07288  599.3
62.09914  597.9
62.1254  623.7
62.15166  613.1
62.17793  555
62.20419  593.8
62.23045  596.2
62.25671  568.9
62.28297  587.7
62.30923  589
62.33549  539.9
62.36176  606.9
62.38802  580.6
62.41428  531.9
62.44054  530.8
62.4668  558.3
62.49306  518.3
62.51932  542.9
62.54558  529.9
62.57184  450.7
62.5981  509.5
62.62436  555.5
62.65062  443.4
62.67689  493.8
62.70315  489.1
62.72941  460.6
62.75567  471.7
62.78193  561
62.80819  470.1
62.83445  487.8
62.86071  478.2
62.88697  475.1
62.91323  469.3
62.9395  440.9
62.96576  427.7
62.99202  463
63.01828  446.2
63.04454  431.2
63.0708  427.4
63.09706  467.3
63.12332  444.2
63.14959  417.9
63.17585  400.1
63.20211  407.4
63.22837  413.4
63.25463  415.5
63.28089  371.8
63.30715  438.1
63.33341  394.2
63.35967  398.4
63.38593  382.3
63.41219  360.1
63.43845  332.1
63.46471  452.1
63.49098  430.2
63.51724  392.5
63.5435  338.5
63.56976  399.7
63.59602  409.8
63.62228  373
63.64854  362.5
63.6748  374.7
63.70107  324.9
63.72733  396.3
63.75359  391.6
63.77985  352.7
63.80611  328.1
63.83237  337.9
63.85863  305.5
63.88489  383.3
63.91115  370.9
63.93741  309.5
63.96368  345.5
63.98994  325.2
64.0162  391.3
64.04246  326.9
64.06872  327
64.09498  315.6
64.12124  377.5
64.1475  307.5
64.17376  344.4
64.20003  380.5
64.22629  336.7
64.25255  391.1
64.27881  412.3
64.30507  346.7
64.33133  362.4
64.35759  330.4
64.38385  327.6
64.41011  335.5
64.43637  309.4
64.46263  332.1
64.48889  366.8
64.51516  309.9
64.54142  361
64.56768  358
64.59394  294.8
64.6202  359.7
64.64646  335.9
64.67272  339
64.69898  336.7
64.72524  343
64.7515  345.5
64.77776  372.7
64.80402  353.8
64.83028  330.5
64.85655  351.5
64.88281  412.6
64.90907  327
64.93533  391.8
64.96159  343.8
64.98785  509.6
