[Measurement conditions]
Sample identification,XRD_MgAxial24Jan22_Act07Feb22_B2_0255M_NaOH_LS0146_1
Comment - 1,"Configuration=Stage for Flat Samples/Holders, Owner=User-1, Creation date=7/1/2020 9:53:24 AM"
Comment - 2,"Goniometer=Theta/Theta; Minimum step size 2Theta:0.0001; Minimum step size Omega:0.0001"
Comment - 3,"Sample stage=Stage for flat samples/holders"
Comment - 4,"Diffractometer system=EMPYREAN"
Comment - 5,"Measurement program=C:\Users\ibo5034\OneDrive - The Pennsylvania State University\NEUP - Reed, Titus's files\XRD\Cement\Zerobackground scan.xrdmp, Identifier={98A3B11C-88F9-4AA6-982C-73314A311EF5}"
Anode material,Cu
K-Alpha1 wavelength,1.5405980
K-Alpha2 wavelength,1.5444260
Ratio K-Alpha2/K-Alpha1,0.500
Divergence slit,Fixed,0.25
Monochromator used,NO
Generator voltage, 45
Tube current, 40
File date and time,10/Feb/2022 13:19
Unit cell,
h k l, 0 0 0
Scan axis,Gonio
Scan range,4.994599997,64.999991833
Scan step size,0.0262606
No. of points, 2285
Scan type,CONTINUOUS
Time per step,96.390
[Scan points]
Angle, TimePerStep, Intensity, ESD
5.007730280, 96.390, 6727.0, 82.0183
5.033990845, 96.390, 6791.0, 82.4075
5.060251411, 96.390, 6531.0, 80.8146
5.086511976, 96.390, 6720.0, 81.9756
5.112772541, 96.390, 6592.0, 81.1911
5.139033107, 96.390, 6410.0, 80.0625
5.165293672, 96.390, 6409.0, 80.0562
5.191554237, 96.390, 6625.0, 81.3941
5.217814803, 96.390, 6458.0, 80.3617
5.244075368, 96.390, 6385.0, 79.9062
5.270335934, 96.390, 6285.0, 79.2780
5.296596499, 96.390, 6343.0, 79.6430
5.322857064, 96.390, 6206.0, 78.7782
5.349117630, 96.390, 6185.0, 78.6448
5.375378195, 96.390, 6150.0, 78.4219
5.401638760, 96.390, 5905.0, 76.8440
5.427899326, 96.390, 5957.0, 77.1816
5.454159891, 96.390, 5995.0, 77.4274
5.480420456, 96.390, 6030.0, 77.6531
5.506681022, 96.390, 6027.0, 77.6338
5.532941587, 96.390, 5901.0, 76.8180
5.559202152, 96.390, 5925.0, 76.9740
5.585462718, 96.390, 5994.0, 77.4209
5.611723283, 96.390, 5914.0, 76.9025
5.637983849, 96.390, 5968.0, 77.2528
5.664244414, 96.390, 5868.0, 76.6029
5.690504979, 96.390, 5787.0, 76.0723
5.716765545, 96.390, 5875.0, 76.6485
5.743026110, 96.390, 5732.0, 75.7100
5.769286675, 96.390, 5719.0, 75.6241
5.795547241, 96.390, 5702.0, 75.5116
5.821807806, 96.390, 5811.0, 76.2299
5.848068371, 96.390, 5680.0, 75.3658
5.874328937, 96.390, 5600.0, 74.8331
5.900589502, 96.390, 5649.0, 75.1598
5.926850067, 96.390, 5501.0, 74.1687
5.953110633, 96.390, 5656.0, 75.2064
5.979371198, 96.390, 5619.0, 74.9600
6.005631763, 96.390, 5511.0, 74.2361
6.031892329, 96.390, 5537.0, 74.4110
6.058152894, 96.390, 5610.0, 74.8999
6.084413460, 96.390, 5426.0, 73.6614
6.110674025, 96.390, 5483.0, 74.0473
6.136934590, 96.390, 5395.0, 73.4507
6.163195156, 96.390, 5419.0, 73.6139
6.189455721, 96.390, 5509.0, 74.2226
6.215716286, 96.390, 5458.0, 73.8783
6.241976852, 96.390, 5584.0, 74.7262
6.268237417, 96.390, 5332.0, 73.0205
6.294497982, 96.390, 5488.0, 74.0810
6.320758548, 96.390, 5354.0, 73.1710
6.347019113, 96.390, 5370.0, 73.2803
6.373279678, 96.390, 5316.0, 72.9109
6.399540244, 96.390, 5385.0, 73.3826
6.425800809, 96.390, 5379.0, 73.3417
6.452061375, 96.390, 5147.0, 71.7426
6.478321940, 96.390, 5313.0, 72.8903
6.504582505, 96.390, 5238.0, 72.3740
6.530843071, 96.390, 5275.0, 72.6292
6.557103636, 96.390, 5188.0, 72.0278
6.583364201, 96.390, 5123.0, 71.5751
6.609624767, 96.390, 5134.0, 71.6519
6.635885332, 96.390, 5140.0, 71.6938
6.662145897, 96.390, 5028.0, 70.9084
6.688406463, 96.390, 5013.0, 70.8025
6.714667028, 96.390, 5159.0, 71.8262
6.740927593, 96.390, 4963.0, 70.4486
6.767188159, 96.390, 4900.0, 70.0000
6.793448724, 96.390, 5097.0, 71.3933
6.819709289, 96.390, 5075.0, 71.2390
6.845969855, 96.390, 5018.0, 70.8378
6.872230420, 96.390, 5109.0, 71.4773
6.898490986, 96.390, 4994.0, 70.6682
6.924751551, 96.390, 4999.0, 70.7036
6.951012116, 96.390, 4817.0, 69.4046
6.977272682, 96.390, 4993.0, 70.6612
7.003533247, 96.390, 4899.0, 69.9929
7.029793812, 96.390, 4944.0, 70.3136
7.056054378, 96.390, 4856.0, 69.6850
7.082314943, 96.390, 4970.0, 70.4982
7.108575508, 96.390, 4790.0, 69.2098
7.134836074, 96.390, 4734.0, 68.8041
7.161096639, 96.390, 4850.0, 69.6419
7.187357204, 96.390, 4796.0, 69.2532
7.213617770, 96.390, 4770.0, 69.0652
7.239878335, 96.390, 4725.0, 68.7386
7.266138900, 96.390, 4720.0, 68.7023
7.292399466, 96.390, 4824.0, 69.4550
7.318660031, 96.390, 4806.0, 69.3253
7.344920597, 96.390, 4716.0, 68.6731
7.371181162, 96.390, 4823.0, 69.4478
7.397441727, 96.390, 4885.0, 69.8928
7.423702293, 96.390, 4692.0, 68.4982
7.449962858, 96.390, 4663.0, 68.2862
7.476223423, 96.390, 4805.0, 69.3181
7.502483989, 96.390, 4680.0, 68.4105
7.528744554, 96.390, 4651.0, 68.1982
7.555005119, 96.390, 4622.0, 67.9853
7.581265685, 96.390, 4634.0, 68.0735
7.607526250, 96.390, 4804.0, 69.3109
7.633786815, 96.390, 4674.0, 68.3667
7.660047381, 96.390, 4726.0, 68.7459
7.686307946, 96.390, 4648.0, 68.1762
7.712568512, 96.390, 4646.0, 68.1616
7.738829077, 96.390, 4529.0, 67.2978
7.765089642, 96.390, 4540.0, 67.3795
7.791350208, 96.390, 4432.0, 66.5733
7.817610773, 96.390, 4571.0, 67.6092
7.843871338, 96.390, 4516.0, 67.2012
7.870131904, 96.390, 4596.0, 67.7938
7.896392469, 96.390, 4521.0, 67.2384
7.922653034, 96.390, 4493.0, 67.0298
7.948913600, 96.390, 4452.0, 66.7233
7.975174165, 96.390, 4515.0, 67.1937
8.001434730, 96.390, 4486.0, 66.9776
8.027695296, 96.390, 4625.0, 68.0074
8.053955861, 96.390, 4444.0, 66.6633
8.080216426, 96.390, 4424.0, 66.5132
8.106476992, 96.390, 4438.0, 66.6183
8.132737557, 96.390, 4412.0, 66.4229
8.158998123, 96.390, 4406.0, 66.3777
8.185258688, 96.390, 4328.0, 65.7875
8.211519253, 96.390, 4277.0, 65.3988
8.237779819, 96.390, 4422.0, 66.4981
8.264040384, 96.390, 4251.0, 65.1997
8.290300949, 96.390, 4271.0, 65.3529
8.316561515, 96.390, 4245.0, 65.1537
8.342822080, 96.390, 4303.0, 65.5973
8.369082645, 96.390, 4467.0, 66.8356
8.395343211, 96.390, 4337.0, 65.8559
8.421603776, 96.390, 4276.0, 65.3911
8.447864341, 96.390, 4282.0, 65.4370
8.474124907, 96.390, 4366.0, 66.0757
8.500385472, 96.390, 4214.0, 64.9153
8.526646038, 96.390, 4224.0, 64.9923
8.552906603, 96.390, 4223.0, 64.9846
8.579167168, 96.390, 4231.0, 65.0461
8.605427734, 96.390, 4251.0, 65.1997
8.631688299, 96.390, 4366.0, 66.0757
8.657948864, 96.390, 4323.0, 65.7495
8.684209430, 96.390, 4236.0, 65.0846
8.710469995, 96.390, 4301.0, 65.5820
8.736730560, 96.390, 4278.0, 65.4064
8.762991126, 96.390, 4271.0, 65.3529
8.789251691, 96.390, 4350.0, 65.9545
8.815512256, 96.390, 4241.0, 65.1230
8.841772822, 96.390, 4127.0, 64.2417
8.868033387, 96.390, 4316.0, 65.6963
8.894293952, 96.390, 4057.0, 63.6946
8.920554518, 96.390, 4134.0, 64.2962
8.946815083, 96.390, 4187.0, 64.7070
8.973075649, 96.390, 4006.0, 63.2930
8.999336214, 96.390, 4048.0, 63.6239
9.025596779, 96.390, 4125.0, 64.2262
9.051857345, 96.390, 4316.0, 65.6963
9.078117910, 96.390, 4089.0, 63.9453
9.104378475, 96.390, 4268.0, 65.3299
9.130639041, 96.390, 4154.0, 64.4515
9.156899606, 96.390, 4218.0, 64.9461
9.183160171, 96.390, 4099.0, 64.0234
9.209420737, 96.390, 4129.0, 64.2573
9.235681302, 96.390, 4065.0, 63.7574
9.261941867, 96.390, 3946.0, 62.8172
9.288202433, 96.390, 4004.0, 63.2772
9.314462998, 96.390, 4088.0, 63.9375
9.340723564, 96.390, 4068.0, 63.7809
9.366984129, 96.390, 4078.0, 63.8592
9.393244694, 96.390, 4148.0, 64.4050
9.419505260, 96.390, 4104.0, 64.0625
9.445765825, 96.390, 4093.0, 63.9766
9.472026390, 96.390, 4092.0, 63.9687
9.498286956, 96.390, 4072.0, 63.8122
9.524547521, 96.390, 4047.0, 63.6160
9.550808086, 96.390, 4047.0, 63.6160
9.577068652, 96.390, 4021.0, 63.4114
9.603329217, 96.390, 4031.0, 63.4902
9.629589782, 96.390, 4111.0, 64.1171
9.655850348, 96.390, 3992.0, 63.1823
9.682110913, 96.390, 4044.0, 63.5925
9.708371478, 96.390, 4162.0, 64.5136
9.734632044, 96.390, 4123.0, 64.2106
9.760892609, 96.390, 3896.0, 62.4179
9.787153175, 96.390, 4063.0, 63.7417
9.813413740, 96.390, 3881.0, 62.2977
9.839674305, 96.390, 3974.0, 63.0397
9.865934871, 96.390, 4059.0, 63.7103
9.892195436, 96.390, 4105.0, 64.0703
9.918456001, 96.390, 3895.0, 62.4099
9.944716567, 96.390, 4018.0, 63.3877
9.970977132, 96.390, 3942.0, 62.7853
9.997237697, 96.390, 4027.0, 63.4586
10.023498263, 96.390, 4041.0, 63.5689
10.049758828, 96.390, 3936.0, 62.7375
10.076019393, 96.390, 3922.0, 62.6259
10.102279959, 96.390, 3925.0, 62.6498
10.128540524, 96.390, 3981.0, 63.0952
10.154801090, 96.390, 3943.0, 62.7933
10.181061655, 96.390, 3892.0, 62.3859
10.207322220, 96.390, 4001.0, 63.2535
10.233582786, 96.390, 3893.0, 62.3939
10.259843351, 96.390, 3807.0, 61.7009
10.286103916, 96.390, 3852.0, 62.0645
10.312364482, 96.390, 3950.0, 62.8490
10.338625047, 96.390, 3948.0, 62.8331
10.364885612, 96.390, 3932.0, 62.7057
10.391146178, 96.390, 3891.0, 62.3779
10.417406743, 96.390, 3810.0, 61.7252
10.443667308, 96.390, 3890.0, 62.3699
10.469927874, 96.390, 3829.0, 61.8789
10.496188439, 96.390, 3829.0, 61.8789
10.522449004, 96.390, 3825.0, 61.8466
10.548709570, 96.390, 3792.0, 61.5792
10.574970135, 96.390, 3746.0, 61.2046
10.601230701, 96.390, 3918.0, 62.5939
10.627491266, 96.390, 3677.0, 60.6383
10.653751831, 96.390, 3854.0, 62.0806
10.680012397, 96.390, 3832.0, 61.9032
10.706272962, 96.390, 3761.0, 61.3270
10.732533527, 96.390, 3867.0, 62.1852
10.758794093, 96.390, 3767.0, 61.3759
10.785054658, 96.390, 3829.0, 61.8789
10.811315223, 96.390, 3679.0, 60.6548
10.837575789, 96.390, 3797.0, 61.6198
10.863836354, 96.390, 3655.0, 60.4566
10.890096919, 96.390, 3745.0, 61.1964
10.916357485, 96.390, 3685.0, 60.7042
10.942618050, 96.390, 3780.0, 61.4817
10.968878616, 96.390, 3655.0, 60.4566
10.995139181, 96.390, 3605.0, 60.0417
11.021399746, 96.390, 3805.0, 61.6847
11.047660312, 96.390, 3855.0, 62.0886
11.073920877, 96.390, 3763.0, 61.3433
11.100181442, 96.390, 3775.0, 61.4410
11.126442008, 96.390, 3661.0, 60.5062
11.152702573, 96.390, 3687.0, 60.7207
11.178963138, 96.390, 3647.0, 60.3904
11.205223704, 96.390, 3714.0, 60.9426
11.231484269, 96.390, 3666.0, 60.5475
11.257744834, 96.390, 3564.0, 59.6992
11.284005400, 96.390, 3591.0, 59.9250
11.310265965, 96.390, 3583.0, 59.8582
11.336526530, 96.390, 3592.0, 59.9333
11.362787096, 96.390, 3577.0, 59.8080
11.389047661, 96.390, 3716.0, 60.9590
11.415308227, 96.390, 3781.0, 61.4898
11.441568792, 96.390, 3533.0, 59.4390
11.467829357, 96.390, 3543.0, 59.5231
11.494089923, 96.390, 3511.0, 59.2537
11.520350488, 96.390, 3542.0, 59.5147
11.546611053, 96.390, 3527.0, 59.3886
11.572871619, 96.390, 3398.0, 58.2924
11.599132184, 96.390, 3501.0, 59.1692
11.625392749, 96.390, 3556.0, 59.6322
11.651653315, 96.390, 3588.0, 59.8999
11.677913880, 96.390, 3471.0, 58.9152
11.704174445, 96.390, 3391.0, 58.2323
11.730435011, 96.390, 3421.0, 58.4893
11.756695576, 96.390, 3424.0, 58.5150
11.782956141, 96.390, 3436.0, 58.6174
11.809216707, 96.390, 3430.0, 58.5662
11.835477272, 96.390, 3400.0, 58.3095
11.861737838, 96.390, 3505.0, 59.2030
11.887998403, 96.390, 3439.0, 58.6430
11.914258968, 96.390, 3426.0, 58.5320
11.940519534, 96.390, 3326.0, 57.6715
11.966780099, 96.390, 3268.0, 57.1664
11.993040664, 96.390, 3396.0, 58.2752
12.019301230, 96.390, 3385.0, 58.1808
12.045561795, 96.390, 3275.0, 57.2276
12.071822360, 96.390, 3289.0, 57.3498
12.098082926, 96.390, 3270.0, 57.1839
12.124343491, 96.390, 3213.0, 56.6833
12.150604056, 96.390, 3279.0, 57.2626
12.176864622, 96.390, 3358.0, 57.9483
12.203125187, 96.390, 3175.0, 56.3471
12.229385753, 96.390, 3276.0, 57.2364
12.255646318, 96.390, 3346.0, 57.8446
12.281906883, 96.390, 3273.0, 57.2101
12.308167449, 96.390, 3296.0, 57.4108
12.334428014, 96.390, 3128.0, 55.9285
12.360688579, 96.390, 3140.0, 56.0357
12.386949145, 96.390, 3147.0, 56.0981
12.413209710, 96.390, 3188.0, 56.4624
12.439470275, 96.390, 3294.0, 57.3934
12.465730841, 96.390, 3211.0, 56.6657
12.491991406, 96.390, 3204.0, 56.6039
12.518251971, 96.390, 3109.0, 55.7584
12.544512537, 96.390, 3078.0, 55.4797
12.570773102, 96.390, 3084.0, 55.5338
12.597033667, 96.390, 3152.0, 56.1427
12.623294233, 96.390, 3119.0, 55.8480
12.649554798, 96.390, 3253.0, 57.0351
12.675815364, 96.390, 3066.0, 55.3715
12.702075929, 96.390, 3035.0, 55.0908
12.728336494, 96.390, 3048.0, 55.2087
12.754597060, 96.390, 3048.0, 55.2087
12.780857625, 96.390, 2979.0, 54.5802
12.807118190, 96.390, 2900.0, 53.8516
12.833378756, 96.390, 3017.0, 54.9272
12.859639321, 96.390, 3033.0, 55.0727
12.885899886, 96.390, 2929.0, 54.1202
12.912160452, 96.390, 2870.0, 53.5724
12.938421017, 96.390, 2820.0, 53.1037
12.964681582, 96.390, 3008.0, 54.8452
12.990942148, 96.390, 2911.0, 53.9537
13.017202713, 96.390, 3052.0, 55.2449
13.043463279, 96.390, 2953.0, 54.3415
13.069723844, 96.390, 2935.0, 54.1756
13.095984409, 96.390, 2974.0, 54.5344
13.122244975, 96.390, 2805.0, 52.9623
13.148505540, 96.390, 2907.0, 53.9166
13.174766105, 96.390, 2934.0, 54.1664
13.201026671, 96.390, 2865.0, 53.5257
13.227287236, 96.390, 2832.0, 53.2165
13.253547801, 96.390, 2822.0, 53.1225
13.279808367, 96.390, 2933.0, 54.1572
13.306068932, 96.390, 2915.0, 53.9907
13.332329497, 96.390, 2792.0, 52.8394
13.358590063, 96.390, 2751.0, 52.4500
13.384850628, 96.390, 2793.0, 52.8488
13.411111193, 96.390, 2749.0, 52.4309
13.437371759, 96.390, 2794.0, 52.8583
13.463632324, 96.390, 2774.0, 52.6688
13.489892890, 96.390, 2854.0, 53.4228
13.516153455, 96.390, 2794.0, 52.8583
13.542414020, 96.390, 2878.0, 53.6470
13.568674586, 96.390, 2690.0, 51.8652
13.594935151, 96.390, 2797.0, 52.8867
13.621195716, 96.390, 2812.0, 53.0283
13.647456282, 96.390, 2662.0, 51.5946
13.673716847, 96.390, 2864.0, 53.5164
13.699977412, 96.390, 2719.0, 52.1440
13.726237978, 96.390, 2694.0, 51.9038
13.752498543, 96.390, 2762.0, 52.5547
13.778759108, 96.390, 2684.0, 51.8073
13.805019674, 96.390, 2614.0, 51.1273
13.831280239, 96.390, 2698.0, 51.9423
13.857540805, 96.390, 2614.0, 51.1273
13.883801370, 96.390, 2640.0, 51.3809
13.910061935, 96.390, 2660.0, 51.5752
13.936322501, 96.390, 2695.0, 51.9134
13.962583066, 96.390, 2671.0, 51.6817
13.988843631, 96.390, 2664.0, 51.6140
14.015104197, 96.390, 2705.0, 52.0096
14.041364762, 96.390, 2614.0, 51.1273
14.067625327, 96.390, 2697.0, 51.9326
14.093885893, 96.390, 2668.0, 51.6527
14.120146458, 96.390, 2650.0, 51.4782
14.146407023, 96.390, 2612.0, 51.1077
14.172667589, 96.390, 2684.0, 51.8073
14.198928154, 96.390, 2581.0, 50.8035
14.225188719, 96.390, 2634.0, 51.3225
14.251449285, 96.390, 2633.0, 51.3128
14.277709850, 96.390, 2674.0, 51.7107
14.303970416, 96.390, 2513.0, 50.1298
14.330230981, 96.390, 2503.0, 50.0300
14.356491546, 96.390, 2574.0, 50.7346
14.382752112, 96.390, 2532.0, 50.3190
14.409012677, 96.390, 2582.0, 50.8134
14.435273242, 96.390, 2422.0, 49.2138
14.461533808, 96.390, 2599.0, 50.9804
14.487794373, 96.390, 2571.0, 50.7050
14.514054938, 96.390, 2565.0, 50.6458
14.540315504, 96.390, 2649.0, 51.4684
14.566576069, 96.390, 2494.0, 49.9400
14.592836634, 96.390, 2512.0, 50.1199
14.619097200, 96.390, 2493.0, 49.9300
14.645357765, 96.390, 2420.0, 49.1935
14.671618331, 96.390, 2522.0, 50.2195
14.697878896, 96.390, 2415.0, 49.1426
14.724139461, 96.390, 2571.0, 50.7050
14.750400027, 96.390, 2403.0, 49.0204
14.776660592, 96.390, 2482.0, 49.8197
14.802921157, 96.390, 2563.0, 50.6261
14.829181723, 96.390, 2459.0, 49.5883
14.855442288, 96.390, 2452.0, 49.5177
14.881702853, 96.390, 2558.0, 50.5767
14.907963419, 96.390, 2573.0, 50.7247
14.934223984, 96.390, 2394.0, 48.9285
14.960484549, 96.390, 2489.0, 49.8899
14.986745115, 96.390, 2398.0, 48.9694
15.013005680, 96.390, 2477.0, 49.7695
15.039266245, 96.390, 2375.0, 48.7340
15.065526811, 96.390, 2491.0, 49.9099
15.091787376, 96.390, 2502.0, 50.0200
15.118047942, 96.390, 2411.0, 49.1019
15.144308507, 96.390, 2299.0, 47.9479
15.170569072, 96.390, 2417.0, 49.1630
15.196829638, 96.390, 2465.0, 49.6488
15.223090203, 96.390, 2462.0, 49.6185
15.249350768, 96.390, 2456.0, 49.5580
15.275611334, 96.390, 2364.0, 48.6210
15.301871899, 96.390, 2480.0, 49.7996
15.328132464, 96.390, 2365.0, 48.6313
15.354393030, 96.390, 2382.0, 48.8057
15.380653595, 96.390, 2385.0, 48.8365
15.406914160, 96.390, 2323.0, 48.1975
15.433174726, 96.390, 2438.0, 49.3761
15.459435291, 96.390, 2430.0, 49.2950
15.485695857, 96.390, 2491.0, 49.9099
15.511956422, 96.390, 2368.0, 48.6621
15.538216987, 96.390, 2381.0, 48.7955
15.564477553, 96.390, 2507.0, 50.0700
15.590738118, 96.390, 2340.0, 48.3735
15.616998683, 96.390, 2378.0, 48.7647
15.643259249, 96.390, 2411.0, 49.1019
15.669519814, 96.390, 2431.0, 49.3052
15.695780379, 96.390, 2419.0, 49.1833
15.722040945, 96.390, 2343.0, 48.4045
15.748301510, 96.390, 2385.0, 48.8365
15.774562075, 96.390, 2412.0, 49.1121
15.800822641, 96.390, 2401.0, 49.0000
15.827083206, 96.390, 2346.0, 48.4355
15.853343771, 96.390, 2274.0, 47.6865
15.879604337, 96.390, 2377.0, 48.7545
15.905864902, 96.390, 2412.0, 49.1121
15.932125468, 96.390, 2262.0, 47.5605
15.958386033, 96.390, 2405.0, 49.0408
15.984646598, 96.390, 2375.0, 48.7340
16.010907164, 96.390, 2414.0, 49.1325
16.037167729, 96.390, 2390.0, 48.8876
16.063428294, 96.390, 2346.0, 48.4355
16.089688860, 96.390, 2320.0, 48.1664
16.115949425, 96.390, 2251.0, 47.4447
16.142209990, 96.390, 2435.0, 49.3457
16.168470556, 96.390, 2416.0, 49.1528
16.194731121, 96.390, 2279.0, 47.7389
16.220991686, 96.390, 2389.0, 48.8774
16.247252252, 96.390, 2387.0, 48.8569
16.273512817, 96.390, 2383.0, 48.8160
16.299773382, 96.390, 2325.0, 48.2183
16.326033948, 96.390, 2288.0, 47.8330
16.352294513, 96.390, 2363.0, 48.6107
16.378555079, 96.390, 2481.0, 49.8096
16.404815644, 96.390, 2398.0, 48.9694
16.431076209, 96.390, 2327.0, 48.2390
16.457336775, 96.390, 2362.0, 48.6004
16.483597340, 96.390, 2298.0, 47.9375
16.509857905, 96.390, 2303.0, 47.9896
16.536118471, 96.390, 2361.0, 48.5901
16.562379036, 96.390, 2352.0, 48.4974
16.588639601, 96.390, 2349.0, 48.4665
16.614900167, 96.390, 2420.0, 49.1935
16.641160732, 96.390, 2356.0, 48.5386
16.667421297, 96.390, 2313.0, 48.0937
16.693681863, 96.390, 2411.0, 49.1019
16.719942428, 96.390, 2370.0, 48.6826
16.746202994, 96.390, 2315.0, 48.1144
16.772463559, 96.390, 2296.0, 47.9166
16.798724124, 96.390, 2297.0, 47.9270
16.824984690, 96.390, 2289.0, 47.8435
16.851245255, 96.390, 2384.0, 48.8262
16.877505820, 96.390, 2375.0, 48.7340
16.903766386, 96.390, 2463.0, 49.6286
16.930026951, 96.390, 2329.0, 48.2597
16.956287516, 96.390, 2291.0, 47.8644
16.982548082, 96.390, 2304.0, 48.0000
17.008808647, 96.390, 2342.0, 48.3942
17.035069212, 96.390, 2390.0, 48.8876
17.061329778, 96.390, 2416.0, 49.1528
17.087590343, 96.390, 2363.0, 48.6107
17.113850908, 96.390, 2349.0, 48.4665
17.140111474, 96.390, 2344.0, 48.4149
17.166372039, 96.390, 2416.0, 49.1528
17.192632605, 96.390, 2305.0, 48.0104
17.218893170, 96.390, 2447.0, 49.4672
17.245153735, 96.390, 2325.0, 48.2183
17.271414301, 96.390, 2267.0, 47.6130
17.297674866, 96.390, 2362.0, 48.6004
17.323935431, 96.390, 2355.0, 48.5283
17.350195997, 96.390, 2383.0, 48.8160
17.376456562, 96.390, 2507.0, 50.0700
17.402717127, 96.390, 2382.0, 48.8057
17.428977693, 96.390, 2344.0, 48.4149
17.455238258, 96.390, 2403.0, 49.0204
17.481498823, 96.390, 2377.0, 48.7545
17.507759389, 96.390, 2380.0, 48.7852
17.534019954, 96.390, 2399.0, 48.9796
17.560280520, 96.390, 2435.0, 49.3457
17.586541085, 96.390, 2347.0, 48.4458
17.612801650, 96.390, 2343.0, 48.4045
17.639062216, 96.390, 2488.0, 49.8799
17.665322781, 96.390, 2404.0, 49.0306
17.691583346, 96.390, 2383.0, 48.8160
17.717843912, 96.390, 2357.0, 48.5489
17.744104477, 96.390, 2474.0, 49.7393
17.770365042, 96.390, 2433.0, 49.3254
17.796625608, 96.390, 2421.0, 49.2037
17.822886173, 96.390, 2358.0, 48.5592
17.849146738, 96.390, 2353.0, 48.5077
17.875407304, 96.390, 2510.0, 50.0999
17.901667869, 96.390, 2369.0, 48.6724
17.927928434, 96.390, 2340.0, 48.3735
17.954189000, 96.390, 2414.0, 49.1325
17.980449565, 96.390, 2416.0, 49.1528
18.006710131, 96.390, 2330.0, 48.2701
18.032970696, 96.390, 2498.0, 49.9800
18.059231261, 96.390, 2491.0, 49.9099
18.085491827, 96.390, 2497.0, 49.9700
18.111752392, 96.390, 2445.0, 49.4469
18.138012957, 96.390, 2433.0, 49.3254
18.164273523, 96.390, 2515.0, 50.1498
18.190534088, 96.390, 2417.0, 49.1630
18.216794653, 96.390, 2462.0, 49.6185
18.243055219, 96.390, 2489.0, 49.8899
18.269315784, 96.390, 2495.0, 49.9500
18.295576349, 96.390, 2401.0, 49.0000
18.321836915, 96.390, 2389.0, 48.8774
18.348097480, 96.390, 2422.0, 49.2138
18.374358046, 96.390, 2392.0, 48.9081
18.400618611, 96.390, 2539.0, 50.3885
18.426879176, 96.390, 2457.0, 49.5681
18.453139742, 96.390, 2495.0, 49.9500
18.479400307, 96.390, 2454.0, 49.5379
18.505660872, 96.390, 2440.0, 49.3964
18.531921438, 96.390, 2482.0, 49.8197
18.558182003, 96.390, 2484.0, 49.8397
18.584442568, 96.390, 2480.0, 49.7996
18.610703134, 96.390, 2537.0, 50.3686
18.636963699, 96.390, 2363.0, 48.6107
18.663224264, 96.390, 2631.0, 51.2933
18.689484830, 96.390, 2489.0, 49.8899
18.715745395, 96.390, 2462.0, 49.6185
18.742005960, 96.390, 2401.0, 49.0000
18.768266526, 96.390, 2572.0, 50.7149
18.794527091, 96.390, 2485.0, 49.8498
18.820787657, 96.390, 2559.0, 50.5866
18.847048222, 96.390, 2646.0, 51.4393
18.873308787, 96.390, 2535.0, 50.3488
18.899569353, 96.390, 2617.0, 51.1566
18.925829918, 96.390, 2482.0, 49.8197
18.952090483, 96.390, 2495.0, 49.9500
18.978351049, 96.390, 2570.0, 50.6952
19.004611614, 96.390, 2616.0, 51.1468
19.030872179, 96.390, 2562.0, 50.6162
19.057132745, 96.390, 2525.0, 50.2494
19.083393310, 96.390, 2550.0, 50.4975
19.109653875, 96.390, 2476.0, 49.7594
19.135914441, 96.390, 2600.0, 50.9902
19.162175006, 96.390, 2536.0, 50.3587
19.188435572, 96.390, 2591.0, 50.9019
19.214696137, 96.390, 2564.0, 50.6360
19.240956702, 96.390, 2475.0, 49.7494
19.267217268, 96.390, 2547.0, 50.4678
19.293477833, 96.390, 2588.0, 50.8724
19.319738398, 96.390, 2661.0, 51.5849
19.345998964, 96.390, 2572.0, 50.7149
19.372259529, 96.390, 2644.0, 51.4198
19.398520094, 96.390, 2633.0, 51.3128
19.424780660, 96.390, 2710.0, 52.0577
19.451041225, 96.390, 2720.0, 52.1536
19.477301790, 96.390, 2625.0, 51.2348
19.503562356, 96.390, 2605.0, 51.0392
19.529822921, 96.390, 2567.0, 50.6656
19.556083486, 96.390, 2652.0, 51.4976
19.582344052, 96.390, 2572.0, 50.7149
19.608604617, 96.390, 2684.0, 51.8073
19.634865183, 96.390, 2689.0, 51.8556
19.661125748, 96.390, 2708.0, 52.0384
19.687386313, 96.390, 2576.0, 50.7543
19.713646879, 96.390, 2699.0, 51.9519
19.739907444, 96.390, 2681.0, 51.7784
19.766168009, 96.390, 2705.0, 52.0096
19.792428575, 96.390, 2699.0, 51.9519
19.818689140, 96.390, 2793.0, 52.8488
19.844949705, 96.390, 2571.0, 50.7050
19.871210271, 96.390, 2699.0, 51.9519
19.897470836, 96.390, 2645.0, 51.4296
19.923731401, 96.390, 2654.0, 51.5170
19.949991967, 96.390, 2721.0, 52.1632
19.976252532, 96.390, 2668.0, 51.6527
20.002513097, 96.390, 2703.0, 51.9904
20.028773663, 96.390, 2626.0, 51.2445
20.055034228, 96.390, 2735.0, 52.2972
20.081294794, 96.390, 2755.0, 52.4881
20.107555359, 96.390, 2697.0, 51.9326
20.133815924, 96.390, 2779.0, 52.7162
20.160076490, 96.390, 2799.0, 52.9056
20.186337055, 96.390, 2742.0, 52.3641
20.212597620, 96.390, 2768.0, 52.6118
20.238858186, 96.390, 2810.0, 53.0094
20.265118751, 96.390, 2831.0, 53.2071
20.291379316, 96.390, 2802.0, 52.9339
20.317639882, 96.390, 2677.0, 51.7397
20.343900447, 96.390, 2778.0, 52.7067
20.370161012, 96.390, 2791.0, 52.8299
20.396421578, 96.390, 2810.0, 53.0094
20.422682143, 96.390, 2862.0, 53.4977
20.448942709, 96.390, 2853.0, 53.4135
20.475203274, 96.390, 2739.0, 52.3355
20.501463839, 96.390, 2751.0, 52.4500
20.527724405, 96.390, 2895.0, 53.8052
20.553984970, 96.390, 2860.0, 53.4790
20.580245535, 96.390, 2853.0, 53.4135
20.606506101, 96.390, 2866.0, 53.5350
20.632766666, 96.390, 2822.0, 53.1225
20.659027231, 96.390, 2852.0, 53.4041
20.685287797, 96.390, 2897.0, 53.8238
20.711548362, 96.390, 2798.0, 52.8961
20.737808927, 96.390, 2953.0, 54.3415
20.764069493, 96.390, 2796.0, 52.8772
20.790330058, 96.390, 2904.0, 53.8888
20.816590623, 96.390, 2884.0, 53.7029
20.842851189, 96.390, 2954.0, 54.3507
20.869111754, 96.390, 2887.0, 53.7308
20.895372320, 96.390, 2839.0, 53.2823
20.921632885, 96.390, 2779.0, 52.7162
20.947893450, 96.390, 2881.0, 53.6749
20.974154016, 96.390, 2822.0, 53.1225
21.000414581, 96.390, 2904.0, 53.8888
21.026675146, 96.390, 2827.0, 53.1695
21.052935712, 96.390, 2829.0, 53.1883
21.079196277, 96.390, 2938.0, 54.2033
21.105456842, 96.390, 2868.0, 53.5537
21.131717408, 96.390, 2923.0, 54.0648
21.157977973, 96.390, 2944.0, 54.2586
21.184238538, 96.390, 2899.0, 53.8424
21.210499104, 96.390, 2877.0, 53.6377
21.236759669, 96.390, 2889.0, 53.7494
21.263020235, 96.390, 2965.0, 54.4518
21.289280800, 96.390, 3008.0, 54.8452
21.315541365, 96.390, 3027.0, 55.0182
21.341801931, 96.390, 2904.0, 53.8888
21.368062496, 96.390, 3058.0, 55.2992
21.394323061, 96.390, 2964.0, 54.4426
21.420583627, 96.390, 2872.0, 53.5910
21.446844192, 96.390, 3064.0, 55.3534
21.473104757, 96.390, 2944.0, 54.2586
21.499365323, 96.390, 2817.0, 53.0754
21.525625888, 96.390, 2913.0, 53.9722
21.551886453, 96.390, 2998.0, 54.7540
21.578147019, 96.390, 3043.0, 55.1634
21.604407584, 96.390, 2995.0, 54.7266
21.630668149, 96.390, 3066.0, 55.3715
21.656928715, 96.390, 2953.0, 54.3415
21.683189280, 96.390, 2938.0, 54.2033
21.709449846, 96.390, 2943.0, 54.2494
21.735710411, 96.390, 2985.0, 54.6352
21.761970976, 96.390, 2987.0, 54.6535
21.788231542, 96.390, 2920.0, 54.0370
21.814492107, 96.390, 3024.0, 54.9909
21.840752672, 96.390, 2990.0, 54.6809
21.867013238, 96.390, 2962.0, 54.4243
21.893273803, 96.390, 2937.0, 54.1941
21.919534368, 96.390, 3003.0, 54.7996
21.945794934, 96.390, 3036.0, 55.0999
21.972055499, 96.390, 2981.0, 54.5985
21.998316064, 96.390, 2954.0, 54.3507
22.024576630, 96.390, 3066.0, 55.3715
22.050837195, 96.390, 2952.0, 54.3323
22.077097761, 96.390, 3028.0, 55.0273
22.103358326, 96.390, 3066.0, 55.3715
22.129618891, 96.390, 2985.0, 54.6352
22.155879457, 96.390, 3027.0, 55.0182
22.182140022, 96.390, 3046.0, 55.1906
22.208400587, 96.390, 2960.0, 54.4059
22.234661153, 96.390, 2932.0, 54.1479
22.260921718, 96.390, 3093.0, 55.6147
22.287182283, 96.390, 3078.0, 55.4797
22.313442849, 96.390, 3167.0, 56.2761
22.339703414, 96.390, 3027.0, 55.0182
22.365963979, 96.390, 2954.0, 54.3507
22.392224545, 96.390, 2990.0, 54.6809
22.418485110, 96.390, 3063.0, 55.3444
22.444745675, 96.390, 2968.0, 54.4794
22.471006241, 96.390, 3066.0, 55.3715
22.497266806, 96.390, 3018.0, 54.9363
22.523527372, 96.390, 3133.0, 55.9732
22.549787937, 96.390, 3036.0, 55.0999
22.576048502, 96.390, 2984.0, 54.6260
22.602309068, 96.390, 3064.0, 55.3534
22.628569633, 96.390, 3084.0, 55.5338
22.654830198, 96.390, 3131.0, 55.9553
22.681090764, 96.390, 2979.0, 54.5802
22.707351329, 96.390, 3085.0, 55.5428
22.733611894, 96.390, 3012.0, 54.8817
22.759872460, 96.390, 3022.0, 54.9727
22.786133025, 96.390, 3088.0, 55.5698
22.812393590, 96.390, 2986.0, 54.6443
22.838654156, 96.390, 2999.0, 54.7631
22.864914721, 96.390, 2932.0, 54.1479
22.891175287, 96.390, 3046.0, 55.1906
22.917435852, 96.390, 3051.0, 55.2359
22.943696417, 96.390, 2988.0, 54.6626
22.969956983, 96.390, 3047.0, 55.1996
22.996217548, 96.390, 3037.0, 55.1090
23.022478113, 96.390, 3015.0, 54.9090
23.048738679, 96.390, 2980.0, 54.5894
23.074999244, 96.390, 2989.0, 54.6717
23.101259809, 96.390, 2977.0, 54.5619
23.127520375, 96.390, 2915.0, 53.9907
23.153780940, 96.390, 2939.0, 54.2125
23.180041505, 96.390, 2888.0, 53.7401
23.206302071, 96.390, 2995.0, 54.7266
23.232562636, 96.390, 2966.0, 54.4610
23.258823201, 96.390, 2955.0, 54.3599
23.285083767, 96.390, 2942.0, 54.2402
23.311344332, 96.390, 2934.0, 54.1664
23.337604898, 96.390, 2954.0, 54.3507
23.363865463, 96.390, 2833.0, 53.2259
23.390126028, 96.390, 2953.0, 54.3415
23.416386594, 96.390, 2928.0, 54.1110
23.442647159, 96.390, 2790.0, 52.8205
23.468907724, 96.390, 2901.0, 53.8609
23.495168290, 96.390, 2873.0, 53.6004
23.521428855, 96.390, 2885.0, 53.7122
23.547689420, 96.390, 2960.0, 54.4059
23.573949986, 96.390, 2848.0, 53.3667
23.600210551, 96.390, 2790.0, 52.8205
23.626471116, 96.390, 2878.0, 53.6470
23.652731682, 96.390, 2826.0, 53.1601
23.678992247, 96.390, 2857.0, 53.4509
23.705252813, 96.390, 2864.0, 53.5164
23.731513378, 96.390, 2802.0, 52.9339
23.757773943, 96.390, 2904.0, 53.8888
23.784034509, 96.390, 2813.0, 53.0377
23.810295074, 96.390, 2837.0, 53.2635
23.836555639, 96.390, 2826.0, 53.1601
23.862816205, 96.390, 2855.0, 53.4322
23.889076770, 96.390, 2820.0, 53.1037
23.915337335, 96.390, 2873.0, 53.6004
23.941597901, 96.390, 2788.0, 52.8015
23.967858466, 96.390, 2803.0, 52.9434
23.994119031, 96.390, 2717.0, 52.1249
24.020379597, 96.390, 2876.0, 53.6284
24.046640162, 96.390, 2818.0, 53.0848
24.072900727, 96.390, 2793.0, 52.8488
24.099161293, 96.390, 2798.0, 52.8961
24.125421858, 96.390, 2799.0, 52.9056
24.151682424, 96.390, 2758.0, 52.5167
24.177942989, 96.390, 2770.0, 52.6308
24.204203554, 96.390, 2791.0, 52.8299
24.230464120, 96.390, 2663.0, 51.6043
24.256724685, 96.390, 2743.0, 52.3737
24.282985250, 96.390, 2734.0, 52.2877
24.309245816, 96.390, 2724.0, 52.1920
24.335506381, 96.390, 2776.0, 52.6878
24.361766946, 96.390, 2768.0, 52.6118
24.388027512, 96.390, 2697.0, 51.9326
24.414288077, 96.390, 2750.0, 52.4404
24.440548642, 96.390, 2690.0, 51.8652
24.466809208, 96.390, 2780.0, 52.7257
24.493069773, 96.390, 2703.0, 51.9904
24.519330338, 96.390, 2753.0, 52.4690
24.545590904, 96.390, 2768.0, 52.6118
24.571851469, 96.390, 2717.0, 52.1249
24.598112035, 96.390, 2640.0, 51.3809
24.624372600, 96.390, 2580.0, 50.7937
24.650633165, 96.390, 2583.0, 50.8232
24.676893731, 96.390, 2671.0, 51.6817
24.703154296, 96.390, 2670.0, 51.6720
24.729414861, 96.390, 2662.0, 51.5946
24.755675427, 96.390, 2711.0, 52.0673
24.781935992, 96.390, 2608.0, 51.0686
24.808196557, 96.390, 2664.0, 51.6140
24.834457123, 96.390, 2586.0, 50.8527
24.860717688, 96.390, 2602.0, 51.0098
24.886978253, 96.390, 2592.0, 50.9117
24.913238819, 96.390, 2602.0, 51.0098
24.939499384, 96.390, 2573.0, 50.7247
24.965759950, 96.390, 2694.0, 51.9038
24.992020515, 96.390, 2517.0, 50.1697
25.018281080, 96.390, 2563.0, 50.6261
25.044541646, 96.390, 2503.0, 50.0300
25.070802211, 96.390, 2543.0, 50.4282
25.097062776, 96.390, 2524.0, 50.2394
25.123323342, 96.390, 2558.0, 50.5767
25.149583907, 96.390, 2513.0, 50.1298
25.175844472, 96.390, 2504.0, 50.0400
25.202105038, 96.390, 2499.0, 49.9900
25.228365603, 96.390, 2577.0, 50.7642
25.254626168, 96.390, 2507.0, 50.0700
25.280886734, 96.390, 2516.0, 50.1597
25.307147299, 96.390, 2543.0, 50.4282
25.333407864, 96.390, 2526.0, 50.2593
25.359668430, 96.390, 2570.0, 50.6952
25.385928995, 96.390, 2532.0, 50.3190
25.412189561, 96.390, 2512.0, 50.1199
25.438450126, 96.390, 2554.0, 50.5371
25.464710691, 96.390, 2506.0, 50.0600
25.490971257, 96.390, 2463.0, 49.6286
25.517231822, 96.390, 2589.0, 50.8822
25.543492387, 96.390, 2422.0, 49.2138
25.569752953, 96.390, 2456.0, 49.5580
25.596013518, 96.390, 2418.0, 49.1732
25.622274083, 96.390, 2467.0, 49.6689
25.648534649, 96.390, 2554.0, 50.5371
25.674795214, 96.390, 2414.0, 49.1325
25.701055779, 96.390, 2501.0, 50.0100
25.727316345, 96.390, 2477.0, 49.7695
25.753576910, 96.390, 2424.0, 49.2341
25.779837476, 96.390, 2433.0, 49.3254
25.806098041, 96.390, 2414.0, 49.1325
25.832358606, 96.390, 2397.0, 48.9592
25.858619172, 96.390, 2413.0, 49.1223
25.884879737, 96.390, 2493.0, 49.9300
25.911140302, 96.390, 2386.0, 48.8467
25.937400868, 96.390, 2480.0, 49.7996
25.963661433, 96.390, 2381.0, 48.7955
25.989921998, 96.390, 2434.0, 49.3356
26.016182564, 96.390, 2413.0, 49.1223
26.042443129, 96.390, 2396.0, 48.9490
26.068703694, 96.390, 2423.0, 49.2240
26.094964260, 96.390, 2477.0, 49.7695
26.121224825, 96.390, 2345.0, 48.4252
26.147485390, 96.390, 2511.0, 50.1099
26.173745956, 96.390, 2397.0, 48.9592
26.200006521, 96.390, 2438.0, 49.3761
26.226267087, 96.390, 2337.0, 48.3425
26.252527652, 96.390, 2475.0, 49.7494
26.278788217, 96.390, 2401.0, 49.0000
26.305048783, 96.390, 2522.0, 50.2195
26.331309348, 96.390, 2361.0, 48.5901
26.357569913, 96.390, 2362.0, 48.6004
26.383830479, 96.390, 2402.0, 49.0102
26.410091044, 96.390, 2294.0, 47.8957
26.436351609, 96.390, 2393.0, 48.9183
26.462612175, 96.390, 2393.0, 48.9183
26.488872740, 96.390, 2323.0, 48.1975
26.515133305, 96.390, 2366.0, 48.6415
26.541393871, 96.390, 2372.0, 48.7032
26.567654436, 96.390, 2342.0, 48.3942
26.593915002, 96.390, 2292.0, 47.8748
26.620175567, 96.390, 2417.0, 49.1630
26.646436132, 96.390, 2336.0, 48.3322
26.672696698, 96.390, 2379.0, 48.7750
26.698957263, 96.390, 2263.0, 47.5710
26.725217828, 96.390, 2378.0, 48.7647
26.751478394, 96.390, 2461.0, 49.6085
26.777738959, 96.390, 2382.0, 48.8057
26.803999524, 96.390, 2319.0, 48.1560
26.830260090, 96.390, 2295.0, 47.9062
26.856520655, 96.390, 2261.0, 47.5500
26.882781220, 96.390, 2343.0, 48.4045
26.909041786, 96.390, 2458.0, 49.5782
26.935302351, 96.390, 2364.0, 48.6210
26.961562916, 96.390, 2232.0, 47.2440
26.987823482, 96.390, 2282.0, 47.7703
27.014084047, 96.390, 2340.0, 48.3735
27.040344613, 96.390, 2340.0, 48.3735
27.066605178, 96.390, 2319.0, 48.1560
27.092865743, 96.390, 2352.0, 48.4974
27.119126309, 96.390, 2335.0, 48.3218
27.145386874, 96.390, 2341.0, 48.3839
27.171647439, 96.390, 2402.0, 49.0102
27.197908005, 96.390, 2424.0, 49.2341
27.224168570, 96.390, 2390.0, 48.8876
27.250429135, 96.390, 2408.0, 49.0714
27.276689701, 96.390, 2343.0, 48.4045
27.302950266, 96.390, 2273.0, 47.6760
27.329210831, 96.390, 2382.0, 48.8057
27.355471397, 96.390, 2305.0, 48.0104
27.381731962, 96.390, 2288.0, 47.8330
27.407992528, 96.390, 2329.0, 48.2597
27.434253093, 96.390, 2272.0, 47.6655
27.460513658, 96.390, 2326.0, 48.2286
27.486774224, 96.390, 2342.0, 48.3942
27.513034789, 96.390, 2238.0, 47.3075
27.539295354, 96.390, 2337.0, 48.3425
27.565555920, 96.390, 2316.0, 48.1248
27.591816485, 96.390, 2307.0, 48.0312
27.618077050, 96.390, 2344.0, 48.4149
27.644337616, 96.390, 2223.0, 47.1487
27.670598181, 96.390, 2306.0, 48.0208
27.696858746, 96.390, 2289.0, 47.8435
27.723119312, 96.390, 2195.0, 46.8508
27.749379877, 96.390, 2283.0, 47.7807
27.775640442, 96.390, 2307.0, 48.0312
27.801901008, 96.390, 2320.0, 48.1664
27.828161573, 96.390, 2266.0, 47.6025
27.854422139, 96.390, 2339.0, 48.3632
27.880682704, 96.390, 2226.0, 47.1805
27.906943269, 96.390, 2301.0, 47.9687
27.933203835, 96.390, 2249.0, 47.4236
27.959464400, 96.390, 2305.0, 48.0104
27.985724965, 96.390, 2307.0, 48.0312
28.011985531, 96.390, 2290.0, 47.8539
28.038246096, 96.390, 2240.0, 47.3286
28.064506661, 96.390, 2291.0, 47.8644
28.090767227, 96.390, 2247.0, 47.4025
28.117027792, 96.390, 2253.0, 47.4658
28.143288357, 96.390, 2245.0, 47.3814
28.169548923, 96.390, 2357.0, 48.5489
28.195809488, 96.390, 2205.0, 46.9574
28.222070054, 96.390, 2215.0, 47.0638
28.248330619, 96.390, 2232.0, 47.2440
28.274591184, 96.390, 2340.0, 48.3735
28.300851750, 96.390, 2223.0, 47.1487
28.327112315, 96.390, 2242.0, 47.3498
28.353372880, 96.390, 2231.0, 47.2335
28.379633446, 96.390, 2268.0, 47.6235
28.405894011, 96.390, 2163.0, 46.5081
28.432154576, 96.390, 2249.0, 47.4236
28.458415142, 96.390, 2282.0, 47.7703
28.484675707, 96.390, 2240.0, 47.3286
28.510936272, 96.390, 2267.0, 47.6130
28.537196838, 96.390, 2279.0, 47.7389
28.563457403, 96.390, 2310.0, 48.0625
28.589717968, 96.390, 2223.0, 47.1487
28.615978534, 96.390, 2264.0, 47.5815
28.642239099, 96.390, 2230.0, 47.2229
28.668499665, 96.390, 2228.0, 47.2017
28.694760230, 96.390, 2253.0, 47.4658
28.721020795, 96.390, 2237.0, 47.2969
28.747281361, 96.390, 2298.0, 47.9375
28.773541926, 96.390, 2262.0, 47.5605
28.799802491, 96.390, 2303.0, 47.9896
28.826063057, 96.390, 2313.0, 48.0937
28.852323622, 96.390, 2322.0, 48.1871
28.878584187, 96.390, 2304.0, 48.0000
28.904844753, 96.390, 2309.0, 48.0521
28.931105318, 96.390, 2235.0, 47.2758
28.957365883, 96.390, 2209.0, 47.0000
28.983626449, 96.390, 2216.0, 47.0744
29.009887014, 96.390, 2224.0, 47.1593
29.036147579, 96.390, 2362.0, 48.6004
29.062408145, 96.390, 2174.0, 46.6262
29.088668710, 96.390, 2303.0, 47.9896
29.114929276, 96.390, 2282.0, 47.7703
29.141189841, 96.390, 2264.0, 47.5815
29.167450406, 96.390, 2280.0, 47.7493
29.193710972, 96.390, 2178.0, 46.6690
29.219971537, 96.390, 2340.0, 48.3735
29.246232102, 96.390, 2244.0, 47.3709
29.272492668, 96.390, 2230.0, 47.2229
29.298753233, 96.390, 2234.0, 47.2652
29.325013798, 96.390, 2149.0, 46.3573
29.351274364, 96.390, 2205.0, 46.9574
29.377534929, 96.390, 2236.0, 47.2864
29.403795494, 96.390, 2227.0, 47.1911
29.430056060, 96.390, 2196.0, 46.8615
29.456316625, 96.390, 2256.0, 47.4974
29.482577191, 96.390, 2280.0, 47.7493
29.508837756, 96.390, 2190.0, 46.7974
29.535098321, 96.390, 2239.0, 47.3181
29.561358887, 96.390, 2235.0, 47.2758
29.587619452, 96.390, 2174.0, 46.6262
29.613880017, 96.390, 2265.0, 47.5920
29.640140583, 96.390, 2225.0, 47.1699
29.666401148, 96.390, 2292.0, 47.8748
29.692661713, 96.390, 2245.0, 47.3814
29.718922279, 96.390, 2227.0, 47.1911
29.745182844, 96.390, 2190.0, 46.7974
29.771443409, 96.390, 2189.0, 46.7868
29.797703975, 96.390, 2206.0, 46.9681
29.823964540, 96.390, 2132.0, 46.1736
29.850225105, 96.390, 2236.0, 47.2864
29.876485671, 96.390, 2229.0, 47.2123
29.902746236, 96.390, 2147.0, 46.3357
29.929006802, 96.390, 2244.0, 47.3709
29.955267367, 96.390, 2247.0, 47.4025
29.981527932, 96.390, 2241.0, 47.3392
30.007788498, 96.390, 2231.0, 47.2335
30.034049063, 96.390, 2170.0, 46.5833
30.060309628, 96.390, 2287.0, 47.8226
30.086570194, 96.390, 2216.0, 47.0744
30.112830759, 96.390, 2143.0, 46.2925
30.139091324, 96.390, 2218.0, 47.0956
30.165351890, 96.390, 2217.0, 47.0850
30.191612455, 96.390, 2211.0, 47.0213
30.217873020, 96.390, 2221.0, 47.1275
30.244133586, 96.390, 2264.0, 47.5815
30.270394151, 96.390, 2153.0, 46.4004
30.296654717, 96.390, 2244.0, 47.3709
30.322915282, 96.390, 2251.0, 47.4447
30.349175847, 96.390, 2130.0, 46.1519
30.375436413, 96.390, 2163.0, 46.5081
30.401696978, 96.390, 2180.0, 46.6905
30.427957543, 96.390, 2243.0, 47.3603
30.454218109, 96.390, 2192.0, 46.8188
30.480478674, 96.390, 2127.0, 46.1194
30.506739239, 96.390, 2201.0, 46.9148
30.532999805, 96.390, 2240.0, 47.3286
30.559260370, 96.390, 2235.0, 47.2758
30.585520935, 96.390, 2186.0, 46.7547
30.611781501, 96.390, 2111.0, 45.9456
30.638042066, 96.390, 2164.0, 46.5188
30.664302631, 96.390, 2239.0, 47.3181
30.690563197, 96.390, 2233.0, 47.2546
30.716823762, 96.390, 2206.0, 46.9681
30.743084328, 96.390, 2146.0, 46.3249
30.769344893, 96.390, 2172.0, 46.6047
30.795605458, 96.390, 2106.0, 45.8912
30.821866024, 96.390, 2064.0, 45.4313
30.848126589, 96.390, 2106.0, 45.8912
30.874387154, 96.390, 2121.0, 46.0543
30.900647720, 96.390, 2180.0, 46.6905
30.926908285, 96.390, 2133.0, 46.1844
30.953168850, 96.390, 2166.0, 46.5403
30.979429416, 96.390, 2183.0, 46.7226
31.005689981, 96.390, 2130.0, 46.1519
31.031950546, 96.390, 2185.0, 46.7440
31.058211112, 96.390, 2077.0, 45.5741
31.084471677, 96.390, 2174.0, 46.6262
31.110732243, 96.390, 2170.0, 46.5833
31.136992808, 96.390, 2077.0, 45.5741
31.163253373, 96.390, 2120.0, 46.0435
31.189513939, 96.390, 2130.0, 46.1519
31.215774504, 96.390, 2060.0, 45.3872
31.242035069, 96.390, 1986.0, 44.5646
31.268295635, 96.390, 2178.0, 46.6690
31.294556200, 96.390, 2121.0, 46.0543
31.320816765, 96.390, 2043.0, 45.1996
31.347077331, 96.390, 2080.0, 45.6070
31.373337896, 96.390, 2124.0, 46.0869
31.399598461, 96.390, 2103.0, 45.8585
31.425859027, 96.390, 2085.0, 45.6618
31.452119592, 96.390, 2174.0, 46.6262
31.478380157, 96.390, 2075.0, 45.5522
31.504640723, 96.390, 2117.0, 46.0109
31.530901288, 96.390, 2115.0, 45.9891
31.557161854, 96.390, 2124.0, 46.0869
31.583422419, 96.390, 2162.0, 46.4973
31.609682984, 96.390, 2197.0, 46.8722
31.635943550, 96.390, 2087.0, 45.6837
31.662204115, 96.390, 2150.0, 46.3681
31.688464680, 96.390, 2108.0, 45.9130
31.714725246, 96.390, 2134.0, 46.1952
31.740985811, 96.390, 2105.0, 45.8803
31.767246376, 96.390, 2087.0, 45.6837
31.793506942, 96.390, 2110.0, 45.9347
31.819767507, 96.390, 2055.0, 45.3321
31.846028072, 96.390, 2068.0, 45.4753
31.872288638, 96.390, 2173.0, 46.6154
31.898549203, 96.390, 2024.0, 44.9889
31.924809769, 96.390, 2131.0, 46.1628
31.951070334, 96.390, 2054.0, 45.3211
31.977330899, 96.390, 2065.0, 45.4423
32.003591465, 96.390, 2170.0, 46.5833
32.029852030, 96.390, 2097.0, 45.7930
32.056112595, 96.390, 2035.0, 45.1110
32.082373161, 96.390, 2077.0, 45.5741
32.108633726, 96.390, 2117.0, 46.0109
32.134894291, 96.390, 2064.0, 45.4313
32.161154857, 96.390, 2122.0, 46.0652
32.187415422, 96.390, 2173.0, 46.6154
32.213675987, 96.390, 2163.0, 46.5081
32.239936553, 96.390, 2009.0, 44.8219
32.266197118, 96.390, 2073.0, 45.5302
32.292457683, 96.390, 2132.0, 46.1736
32.318718249, 96.390, 2031.0, 45.0666
32.344978814, 96.390, 2072.0, 45.5192
32.371239380, 96.390, 2053.0, 45.3100
32.397499945, 96.390, 2025.0, 45.0000
32.423760510, 96.390, 2114.0, 45.9783
32.450021076, 96.390, 2060.0, 45.3872
32.476281641, 96.390, 2069.0, 45.4863
32.502542206, 96.390, 2081.0, 45.6180
32.528802772, 96.390, 2112.0, 45.9565
32.555063337, 96.390, 2027.0, 45.0222
32.581323902, 96.390, 2071.0, 45.5082
32.607584468, 96.390, 2077.0, 45.5741
32.633845033, 96.390, 2099.0, 45.8148
32.660105598, 96.390, 2055.0, 45.3321
32.686366164, 96.390, 1995.0, 44.6654
32.712626729, 96.390, 2046.0, 45.2327
32.738887295, 96.390, 2049.0, 45.2659
32.765147860, 96.390, 2023.0, 44.9778
32.791408425, 96.390, 2080.0, 45.6070
32.817668991, 96.390, 2001.0, 44.7325
32.843929556, 96.390, 1987.0, 44.5758
32.870190121, 96.390, 2056.0, 45.3431
32.896450687, 96.390, 2081.0, 45.6180
32.922711252, 96.390, 2032.0, 45.0777
32.948971817, 96.390, 2057.0, 45.3542
32.975232383, 96.390, 2092.0, 45.7384
33.001492948, 96.390, 2022.0, 44.9667
33.027753513, 96.390, 2083.0, 45.6399
33.054014079, 96.390, 2017.0, 44.9110
33.080274644, 96.390, 2030.0, 45.0555
33.106535209, 96.390, 2026.0, 45.0111
33.132795775, 96.390, 2087.0, 45.6837
33.159056340, 96.390, 2013.0, 44.8665
33.185316906, 96.390, 1975.0, 44.4410
33.211577471, 96.390, 2064.0, 45.4313
33.237838036, 96.390, 2081.0, 45.6180
33.264098602, 96.390, 2088.0, 45.6946
33.290359167, 96.390, 2064.0, 45.4313
33.316619732, 96.390, 2000.0, 44.7214
33.342880298, 96.390, 2105.0, 45.8803
33.369140863, 96.390, 1990.0, 44.6094
33.395401428, 96.390, 1999.0, 44.7102
33.421661994, 96.390, 2102.0, 45.8476
33.447922559, 96.390, 2048.0, 45.2548
33.474183124, 96.390, 2050.0, 45.2769
33.500443690, 96.390, 2095.0, 45.7712
33.526704255, 96.390, 2056.0, 45.3431
33.552964820, 96.390, 2098.0, 45.8039
33.579225386, 96.390, 2115.0, 45.9891
33.605485951, 96.390, 2048.0, 45.2548
33.631746517, 96.390, 2119.0, 46.0326
33.658007082, 96.390, 2087.0, 45.6837
33.684267647, 96.390, 2029.0, 45.0444
33.710528213, 96.390, 2074.0, 45.5412
33.736788778, 96.390, 2073.0, 45.5302
33.763049343, 96.390, 2099.0, 45.8148
33.789309909, 96.390, 2134.0, 46.1952
33.815570474, 96.390, 2146.0, 46.3249
33.841831039, 96.390, 2190.0, 46.7974
33.868091605, 96.390, 2137.0, 46.2277
33.894352170, 96.390, 2113.0, 45.9674
33.920612735, 96.390, 2235.0, 47.2758
33.946873301, 96.390, 2149.0, 46.3573
33.973133866, 96.390, 2152.0, 46.3897
33.999394432, 96.390, 2220.0, 47.1169
34.025654997, 96.390, 2174.0, 46.6262
34.051915562, 96.390, 2158.0, 46.4543
34.078176128, 96.390, 2244.0, 47.3709
34.104436693, 96.390, 2212.0, 47.0319
34.130697258, 96.390, 2275.0, 47.6970
34.156957824, 96.390, 2162.0, 46.4973
34.183218389, 96.390, 2259.0, 47.5289
34.209478954, 96.390, 2308.0, 48.0416
34.235739520, 96.390, 2209.0, 47.0000
34.262000085, 96.390, 2230.0, 47.2229
34.288260650, 96.390, 2295.0, 47.9062
34.314521216, 96.390, 2246.0, 47.3920
34.340781781, 96.390, 2315.0, 48.1144
34.367042346, 96.390, 2386.0, 48.8467
34.393302912, 96.390, 2431.0, 49.3052
34.419563477, 96.390, 2298.0, 47.9375
34.445824043, 96.390, 2383.0, 48.8160
34.472084608, 96.390, 2346.0, 48.4355
34.498345173, 96.390, 2382.0, 48.8057
34.524605739, 96.390, 2409.0, 49.0816
34.550866304, 96.390, 2386.0, 48.8467
34.577126869, 96.390, 2263.0, 47.5710
34.603387435, 96.390, 2414.0, 49.1325
34.629648000, 96.390, 2370.0, 48.6826
34.655908565, 96.390, 2377.0, 48.7545
34.682169131, 96.390, 2351.0, 48.4871
34.708429696, 96.390, 2480.0, 49.7996
34.734690261, 96.390, 2354.0, 48.5180
34.760950827, 96.390, 2282.0, 47.7703
34.787211392, 96.390, 2375.0, 48.7340
34.813471958, 96.390, 2439.0, 49.3862
34.839732523, 96.390, 2520.0, 50.1996
34.865993088, 96.390, 2492.0, 49.9199
34.892253654, 96.390, 2362.0, 48.6004
34.918514219, 96.390, 2519.0, 50.1896
34.944774784, 96.390, 2482.0, 49.8197
34.971035350, 96.390, 2539.0, 50.3885
34.997295915, 96.390, 2454.0, 49.5379
35.023556480, 96.390, 2400.0, 48.9898
35.049817046, 96.390, 2484.0, 49.8397
35.076077611, 96.390, 2384.0, 48.8262
35.102338176, 96.390, 2405.0, 49.0408
35.128598742, 96.390, 2395.0, 48.9387
35.154859307, 96.390, 2393.0, 48.9183
35.181119872, 96.390, 2440.0, 49.3964
35.207380438, 96.390, 2353.0, 48.5077
35.233641003, 96.390, 2408.0, 49.0714
35.259901569, 96.390, 2381.0, 48.7955
35.286162134, 96.390, 2368.0, 48.6621
35.312422699, 96.390, 2402.0, 49.0102
35.338683265, 96.390, 2411.0, 49.1019
35.364943830, 96.390, 2329.0, 48.2597
35.391204395, 96.390, 2375.0, 48.7340
35.417464961, 96.390, 2357.0, 48.5489
35.443725526, 96.390, 2335.0, 48.3218
35.469986091, 96.390, 2257.0, 47.5079
35.496246657, 96.390, 2278.0, 47.7284
35.522507222, 96.390, 2368.0, 48.6621
35.548767787, 96.390, 2400.0, 48.9898
35.575028353, 96.390, 2350.0, 48.4768
35.601288918, 96.390, 2366.0, 48.6415
35.627549484, 96.390, 2321.0, 48.1768
35.653810049, 96.390, 2294.0, 47.8957
35.680070614, 96.390, 2314.0, 48.1041
35.706331180, 96.390, 2295.0, 47.9062
35.732591745, 96.390, 2296.0, 47.9166
35.758852310, 96.390, 2290.0, 47.8539
35.785112876, 96.390, 2277.0, 47.7179
35.811373441, 96.390, 2369.0, 48.6724
35.837634006, 96.390, 2283.0, 47.7807
35.863894572, 96.390, 2158.0, 46.4543
35.890155137, 96.390, 2316.0, 48.1248
35.916415702, 96.390, 2265.0, 47.5920
35.942676268, 96.390, 2185.0, 46.7440
35.968936833, 96.390, 2227.0, 47.1911
35.995197398, 96.390, 2244.0, 47.3709
36.021457964, 96.390, 2283.0, 47.7807
36.047718529, 96.390, 2185.0, 46.7440
36.073979095, 96.390, 2208.0, 46.9894
36.100239660, 96.390, 2170.0, 46.5833
36.126500225, 96.390, 2195.0, 46.8508
36.152760791, 96.390, 2186.0, 46.7547
36.179021356, 96.390, 2193.0, 46.8295
36.205281921, 96.390, 2302.0, 47.9792
36.231542487, 96.390, 2206.0, 46.9681
36.257803052, 96.390, 2235.0, 47.2758
36.284063617, 96.390, 2277.0, 47.7179
36.310324183, 96.390, 2142.0, 46.2817
36.336584748, 96.390, 2177.0, 46.6583
36.362845313, 96.390, 2164.0, 46.5188
36.389105879, 96.390, 2100.0, 45.8258
36.415366444, 96.390, 2145.0, 46.3141
36.441627010, 96.390, 2144.0, 46.3033
36.467887575, 96.390, 2076.0, 45.5631
36.494148140, 96.390, 2161.0, 46.4866
36.520408706, 96.390, 2196.0, 46.8615
36.546669271, 96.390, 2078.0, 45.5851
36.572929836, 96.390, 2116.0, 46.0000
36.599190402, 96.390, 2162.0, 46.4973
36.625450967, 96.390, 2137.0, 46.2277
36.651711532, 96.390, 2082.0, 45.6289
36.677972098, 96.390, 2136.0, 46.2169
36.704232663, 96.390, 2162.0, 46.4973
36.730493228, 96.390, 2182.0, 46.7119
36.756753794, 96.390, 2034.0, 45.0999
36.783014359, 96.390, 2086.0, 45.6727
36.809274924, 96.390, 2150.0, 46.3681
36.835535490, 96.390, 2145.0, 46.3141
36.861796055, 96.390, 2111.0, 45.9456
36.888056621, 96.390, 1988.0, 44.5870
36.914317186, 96.390, 2065.0, 45.4423
36.940577751, 96.390, 2044.0, 45.2106
36.966838317, 96.390, 1994.0, 44.6542
36.993098882, 96.390, 1992.0, 44.6318
37.019359447, 96.390, 2020.0, 44.9444
37.045620013, 96.390, 2003.0, 44.7549
37.071880578, 96.390, 2096.0, 45.7821
37.098141143, 96.390, 2006.0, 44.7884
37.124401709, 96.390, 1963.0, 44.3058
37.150662274, 96.390, 2004.0, 44.7661
37.176922839, 96.390, 2048.0, 45.2548
37.203183405, 96.390, 1968.0, 44.3621
37.229443970, 96.390, 2069.0, 45.4863
37.255704535, 96.390, 1969.0, 44.3734
37.281965101, 96.390, 2006.0, 44.7884
37.308225666, 96.390, 1983.0, 44.5309
37.334486232, 96.390, 2045.0, 45.2217
37.360746797, 96.390, 1957.0, 44.2380
37.387007362, 96.390, 1914.0, 43.7493
37.413267928, 96.390, 1943.0, 44.0795
37.439528493, 96.390, 1971.0, 44.3959
37.465789058, 96.390, 1917.0, 43.7836
37.492049624, 96.390, 1981.0, 44.5084
37.518310189, 96.390, 1966.0, 44.3396
37.544570754, 96.390, 1912.0, 43.7264
37.570831320, 96.390, 1897.0, 43.5546
37.597091885, 96.390, 1881.0, 43.3705
37.623352450, 96.390, 1945.0, 44.1022
37.649613016, 96.390, 1989.0, 44.5982
37.675873581, 96.390, 1991.0, 44.6206
37.702134147, 96.390, 1845.0, 42.9535
37.728394712, 96.390, 1930.0, 43.9318
37.754655277, 96.390, 2036.0, 45.1221
37.780915843, 96.390, 1869.0, 43.2319
37.807176408, 96.390, 1914.0, 43.7493
37.833436973, 96.390, 1987.0, 44.5758
37.859697539, 96.390, 1868.0, 43.2204
37.885958104, 96.390, 1935.0, 43.9886
37.912218669, 96.390, 1984.0, 44.5421
37.938479235, 96.390, 1810.0, 42.5441
37.964739800, 96.390, 1939.0, 44.0341
37.991000365, 96.390, 1910.0, 43.7035
38.017260931, 96.390, 1860.0, 43.1277
38.043521496, 96.390, 1922.0, 43.8406
38.069782061, 96.390, 1900.0, 43.5890
38.096042627, 96.390, 1953.0, 44.1928
38.122303192, 96.390, 1798.0, 42.4028
38.148563758, 96.390, 1931.0, 43.9431
38.174824323, 96.390, 1878.0, 43.3359
38.201084888, 96.390, 1821.0, 42.6732
38.227345454, 96.390, 1846.0, 42.9651
38.253606019, 96.390, 1768.0, 42.0476
38.279866584, 96.390, 1808.0, 42.5206
38.306127150, 96.390, 1875.0, 43.3013
38.332387715, 96.390, 1848.0, 42.9884
38.358648280, 96.390, 1826.0, 42.7317
38.384908846, 96.390, 1896.0, 43.5431
38.411169411, 96.390, 1855.0, 43.0697
38.437429976, 96.390, 1788.0, 42.2847
38.463690542, 96.390, 1789.0, 42.2966
38.489951107, 96.390, 1814.0, 42.5911
38.516211673, 96.390, 1745.0, 41.7732
38.542472238, 96.390, 1788.0, 42.2847
38.568732803, 96.390, 1726.0, 41.5452
38.594993369, 96.390, 1842.0, 42.9185
38.621253934, 96.390, 1837.0, 42.8602
38.647514499, 96.390, 1795.0, 42.3674
38.673775065, 96.390, 1842.0, 42.9185
38.700035630, 96.390, 1825.0, 42.7200
38.726296195, 96.390, 1798.0, 42.4028
38.752556761, 96.390, 1761.0, 41.9643
38.778817326, 96.390, 1747.0, 41.7971
38.805077891, 96.390, 1804.0, 42.4735
38.831338457, 96.390, 1770.0, 42.0714
38.857599022, 96.390, 1820.0, 42.6615
38.883859587, 96.390, 1810.0, 42.5441
38.910120153, 96.390, 1831.0, 42.7902
38.936380718, 96.390, 1751.0, 41.8450
38.962641284, 96.390, 1798.0, 42.4028
38.988901849, 96.390, 1756.0, 41.9047
39.015162414, 96.390, 1751.0, 41.8450
39.041422980, 96.390, 1780.0, 42.1900
39.067683545, 96.390, 1734.0, 41.6413
39.093944110, 96.390, 1805.0, 42.4853
39.120204676, 96.390, 1810.0, 42.5441
39.146465241, 96.390, 1813.0, 42.5793
39.172725806, 96.390, 1684.0, 41.0366
39.198986372, 96.390, 1735.0, 41.6533
39.225246937, 96.390, 1728.0, 41.5692
39.251507502, 96.390, 1764.0, 42.0000
39.277768068, 96.390, 1771.0, 42.0833
39.304028633, 96.390, 1687.0, 41.0731
39.330289199, 96.390, 1795.0, 42.3674
39.356549764, 96.390, 1759.0, 41.9404
39.382810329, 96.390, 1686.0, 41.0609
39.409070895, 96.390, 1718.0, 41.4488
39.435331460, 96.390, 1747.0, 41.7971
39.461592025, 96.390, 1714.0, 41.4005
39.487852591, 96.390, 1699.0, 41.2189
39.514113156, 96.390, 1697.0, 41.1947
39.540373721, 96.390, 1730.0, 41.5933
39.566634287, 96.390, 1671.0, 40.8779
39.592894852, 96.390, 1656.0, 40.6940
39.619155417, 96.390, 1705.0, 41.2916
39.645415983, 96.390, 1751.0, 41.8450
39.671676548, 96.390, 1758.0, 41.9285
39.697937113, 96.390, 1695.0, 41.1704
39.724197679, 96.390, 1712.0, 41.3763
39.750458244, 96.390, 1701.0, 41.2432
39.776718810, 96.390, 1778.0, 42.1663
39.802979375, 96.390, 1594.0, 39.9249
39.829239940, 96.390, 1744.0, 41.7612
39.855500506, 96.390, 1707.0, 41.3159
39.881761071, 96.390, 1696.0, 41.1825
39.908021636, 96.390, 1629.0, 40.3609
39.934282202, 96.390, 1673.0, 40.9023
39.960542767, 96.390, 1592.0, 39.8999
39.986803332, 96.390, 1571.0, 39.6358
40.013063898, 96.390, 1652.0, 40.6448
40.039324463, 96.390, 1623.0, 40.2865
40.065585028, 96.390, 1641.0, 40.5093
40.091845594, 96.390, 1679.0, 40.9756
40.118106159, 96.390, 1676.0, 40.9390
40.144366725, 96.390, 1654.0, 40.6694
40.170627290, 96.390, 1635.0, 40.4351
40.196887855, 96.390, 1638.0, 40.4722
40.223148421, 96.390, 1672.0, 40.8901
40.249408986, 96.390, 1580.0, 39.7492
40.275669551, 96.390, 1596.0, 39.9500
40.301930117, 96.390, 1606.0, 40.0749
40.328190682, 96.390, 1570.0, 39.6232
40.354451247, 96.390, 1582.0, 39.7744
40.380711813, 96.390, 1639.0, 40.4846
40.406972378, 96.390, 1637.0, 40.4599
40.433232943, 96.390, 1575.0, 39.6863
40.459493509, 96.390, 1626.0, 40.3237
40.485754074, 96.390, 1653.0, 40.6571
40.512014639, 96.390, 1478.0, 38.4448
40.538275205, 96.390, 1594.0, 39.9249
40.564535770, 96.390, 1580.0, 39.7492
40.590796336, 96.390, 1618.0, 40.2244
40.617056901, 96.390, 1584.0, 39.7995
40.643317466, 96.390, 1596.0, 39.9500
40.669578032, 96.390, 1516.0, 38.9358
40.695838597, 96.390, 1568.0, 39.5980
40.722099162, 96.390, 1583.0, 39.7869
40.748359728, 96.390, 1571.0, 39.6358
40.774620293, 96.390, 1629.0, 40.3609
40.800880858, 96.390, 1618.0, 40.2244
40.827141424, 96.390, 1562.0, 39.5221
40.853401989, 96.390, 1565.0, 39.5601
40.879662554, 96.390, 1513.0, 38.8973
40.905923120, 96.390, 1575.0, 39.6863
40.932183685, 96.390, 1606.0, 40.0749
40.958444251, 96.390, 1593.0, 39.9124
40.984704816, 96.390, 1546.0, 39.3192
41.010965381, 96.390, 1468.0, 38.3145
41.037225947, 96.390, 1537.0, 39.2046
41.063486512, 96.390, 1518.0, 38.9615
41.089747077, 96.390, 1610.0, 40.1248
41.116007643, 96.390, 1541.0, 39.2556
41.142268208, 96.390, 1528.0, 39.0896
41.168528773, 96.390, 1527.0, 39.0768
41.194789339, 96.390, 1476.0, 38.4187
41.221049904, 96.390, 1456.0, 38.1576
41.247310469, 96.390, 1557.0, 39.4588
41.273571035, 96.390, 1580.0, 39.7492
41.299831600, 96.390, 1516.0, 38.9358
41.326092165, 96.390, 1534.0, 39.1663
41.352352731, 96.390, 1558.0, 39.4715
41.378613296, 96.390, 1618.0, 40.2244
41.404873862, 96.390, 1453.0, 38.1182
41.431134427, 96.390, 1525.0, 39.0512
41.457394992, 96.390, 1597.0, 39.9625
41.483655558, 96.390, 1528.0, 39.0896
41.509916123, 96.390, 1520.0, 38.9872
41.536176688, 96.390, 1521.0, 39.0000
41.562437254, 96.390, 1500.0, 38.7298
41.588697819, 96.390, 1498.0, 38.7040
41.614958384, 96.390, 1512.0, 38.8844
41.641218950, 96.390, 1480.0, 38.4708
41.667479515, 96.390, 1529.0, 39.1024
41.693740080, 96.390, 1528.0, 39.0896
41.720000646, 96.390, 1431.0, 37.8286
41.746261211, 96.390, 1484.0, 38.5227
41.772521776, 96.390, 1438.0, 37.9210
41.798782342, 96.390, 1543.0, 39.2810
41.825042907, 96.390, 1496.0, 38.6782
41.851303473, 96.390, 1516.0, 38.9358
41.877564038, 96.390, 1519.0, 38.9744
41.903824603, 96.390, 1495.0, 38.6652
41.930085169, 96.390, 1493.0, 38.6394
41.956345734, 96.390, 1504.0, 38.7814
41.982606299, 96.390, 1540.0, 39.2428
42.008866865, 96.390, 1478.0, 38.4448
42.035127430, 96.390, 1491.0, 38.6135
42.061387995, 96.390, 1498.0, 38.7040
42.087648561, 96.390, 1504.0, 38.7814
42.113909126, 96.390, 1482.0, 38.4968
42.140169691, 96.390, 1494.0, 38.6523
42.166430257, 96.390, 1523.0, 39.0256
42.192690822, 96.390, 1488.0, 38.5746
42.218951388, 96.390, 1420.0, 37.6829
42.245211953, 96.390, 1465.0, 38.2753
42.271472518, 96.390, 1436.0, 37.8946
42.297733084, 96.390, 1522.0, 39.0128
42.323993649, 96.390, 1509.0, 38.8458
42.350254214, 96.390, 1419.0, 37.6696
42.376514780, 96.390, 1520.0, 38.9872
42.402775345, 96.390, 1526.0, 39.0640
42.429035910, 96.390, 1477.0, 38.4318
42.455296476, 96.390, 1378.0, 37.1214
42.481557041, 96.390, 1509.0, 38.8458
42.507817606, 96.390, 1491.0, 38.6135
42.534078172, 96.390, 1460.0, 38.2099
42.560338737, 96.390, 1502.0, 38.7556
42.586599302, 96.390, 1501.0, 38.7427
42.612859868, 96.390, 1416.0, 37.6298
42.639120433, 96.390, 1417.0, 37.6431
42.665380999, 96.390, 1428.0, 37.7889
42.691641564, 96.390, 1399.0, 37.4032
42.717902129, 96.390, 1475.0, 38.4057
42.744162695, 96.390, 1446.0, 38.0263
42.770423260, 96.390, 1507.0, 38.8201
42.796683825, 96.390, 1463.0, 38.2492
42.822944391, 96.390, 1455.0, 38.1445
42.849204956, 96.390, 1512.0, 38.8844
42.875465521, 96.390, 1547.0, 39.3319
42.901726087, 96.390, 1388.0, 37.2559
42.927986652, 96.390, 1456.0, 38.1576
42.954247217, 96.390, 1475.0, 38.4057
42.980507783, 96.390, 1455.0, 38.1445
43.006768348, 96.390, 1464.0, 38.2623
43.033028914, 96.390, 1465.0, 38.2753
43.059289479, 96.390, 1446.0, 38.0263
43.085550044, 96.390, 1414.0, 37.6032
43.111810610, 96.390, 1398.0, 37.3898
43.138071175, 96.390, 1473.0, 38.3797
43.164331740, 96.390, 1432.0, 37.8418
43.190592306, 96.390, 1484.0, 38.5227
43.216852871, 96.390, 1391.0, 37.2961
43.243113436, 96.390, 1547.0, 39.3319
43.269374002, 96.390, 1432.0, 37.8418
43.295634567, 96.390, 1439.0, 37.9342
43.321895132, 96.390, 1439.0, 37.9342
43.348155698, 96.390, 1420.0, 37.6829
43.374416263, 96.390, 1480.0, 38.4708
43.400676828, 96.390, 1461.0, 38.2230
43.426937394, 96.390, 1433.0, 37.8550
43.453197959, 96.390, 1473.0, 38.3797
43.479458525, 96.390, 1495.0, 38.6652
43.505719090, 96.390, 1512.0, 38.8844
43.531979655, 96.390, 1388.0, 37.2559
43.558240221, 96.390, 1444.0, 38.0000
43.584500786, 96.390, 1422.0, 37.7094
43.610761351, 96.390, 1422.0, 37.7094
43.637021917, 96.390, 1398.0, 37.3898
43.663282482, 96.390, 1408.0, 37.5233
43.689543047, 96.390, 1392.0, 37.3095
43.715803613, 96.390, 1397.0, 37.3765
43.742064178, 96.390, 1481.0, 38.4838
43.768324743, 96.390, 1448.0, 38.0526
43.794585309, 96.390, 1405.0, 37.4833
43.820845874, 96.390, 1367.0, 36.9730
43.847106440, 96.390, 1415.0, 37.6165
43.873367005, 96.390, 1490.0, 38.6005
43.899627570, 96.390, 1416.0, 37.6298
43.925888136, 96.390, 1424.0, 37.7359
43.952148701, 96.390, 1487.0, 38.5616
43.978409266, 96.390, 1478.0, 38.4448
44.004669832, 96.390, 1402.0, 37.4433
44.030930397, 96.390, 1401.0, 37.4299
44.057190962, 96.390, 1462.0, 38.2361
44.083451528, 96.390, 1471.0, 38.3536
44.109712093, 96.390, 1442.0, 37.9737
44.135972658, 96.390, 1422.0, 37.7094
44.162233224, 96.390, 1381.0, 37.1618
44.188493789, 96.390, 1371.0, 37.0270
44.214754354, 96.390, 1428.0, 37.7889
44.241014920, 96.390, 1412.0, 37.5766
44.267275485, 96.390, 1384.0, 37.2022
44.293536051, 96.390, 1449.0, 38.0657
44.319796616, 96.390, 1505.0, 38.7943
44.346057181, 96.390, 1346.0, 36.6879
44.372317747, 96.390, 1428.0, 37.7889
44.398578312, 96.390, 1427.0, 37.7757
44.424838877, 96.390, 1403.0, 37.4566
44.451099443, 96.390, 1505.0, 38.7943
44.477360008, 96.390, 1433.0, 37.8550
44.503620573, 96.390, 1417.0, 37.6431
44.529881139, 96.390, 1420.0, 37.6829
44.556141704, 96.390, 1448.0, 38.0526
44.582402269, 96.390, 1426.0, 37.7624
44.608662835, 96.390, 1474.0, 38.3927
44.634923400, 96.390, 1456.0, 38.1576
44.661183966, 96.390, 1480.0, 38.4708
44.687444531, 96.390, 1424.0, 37.7359
44.713705096, 96.390, 1372.0, 37.0405
44.739965662, 96.390, 1421.0, 37.6962
44.766226227, 96.390, 1473.0, 38.3797
44.792486792, 96.390, 1442.0, 37.9737
44.818747358, 96.390, 1399.0, 37.4032
44.845007923, 96.390, 1432.0, 37.8418
44.871268488, 96.390, 1400.0, 37.4166
44.897529054, 96.390, 1441.0, 37.9605
44.923789619, 96.390, 1412.0, 37.5766
44.950050184, 96.390, 1424.0, 37.7359
44.976310750, 96.390, 1382.0, 37.1753
45.002571315, 96.390, 1432.0, 37.8418
45.028831880, 96.390, 1412.0, 37.5766
45.055092446, 96.390, 1410.0, 37.5500
45.081353011, 96.390, 1427.0, 37.7757
45.107613577, 96.390, 1397.0, 37.3765
45.133874142, 96.390, 1471.0, 38.3536
45.160134707, 96.390, 1408.0, 37.5233
45.186395273, 96.390, 1418.0, 37.6563
45.212655838, 96.390, 1361.0, 36.8917
45.238916403, 96.390, 1432.0, 37.8418
45.265176969, 96.390, 1417.0, 37.6431
45.291437534, 96.390, 1372.0, 37.0405
45.317698099, 96.390, 1477.0, 38.4318
45.343958665, 96.390, 1383.0, 37.1887
45.370219230, 96.390, 1428.0, 37.7889
45.396479795, 96.390, 1445.0, 38.0132
45.422740361, 96.390, 1396.0, 37.3631
45.449000926, 96.390, 1409.0, 37.5366
45.475261492, 96.390, 1406.0, 37.4967
45.501522057, 96.390, 1434.0, 37.8682
45.527782622, 96.390, 1461.0, 38.2230
45.554043188, 96.390, 1421.0, 37.6962
45.580303753, 96.390, 1493.0, 38.6394
45.606564318, 96.390, 1295.0, 35.9861
45.632824884, 96.390, 1345.0, 36.6742
45.659085449, 96.390, 1436.0, 37.8946
45.685346014, 96.390, 1381.0, 37.1618
45.711606580, 96.390, 1450.0, 38.0789
45.737867145, 96.390, 1375.0, 37.0810
45.764127710, 96.390, 1386.0, 37.2290
45.790388276, 96.390, 1473.0, 38.3797
45.816648841, 96.390, 1480.0, 38.4708
45.842909406, 96.390, 1428.0, 37.7889
45.869169972, 96.390, 1337.0, 36.5650
45.895430537, 96.390, 1400.0, 37.4166
45.921691103, 96.390, 1433.0, 37.8550
45.947951668, 96.390, 1439.0, 37.9342
45.974212233, 96.390, 1456.0, 38.1576
46.000472799, 96.390, 1394.0, 37.3363
46.026733364, 96.390, 1385.0, 37.2156
46.052993929, 96.390, 1396.0, 37.3631
46.079254495, 96.390, 1341.0, 36.6197
46.105515060, 96.390, 1374.0, 37.0675
46.131775625, 96.390, 1378.0, 37.1214
46.158036191, 96.390, 1432.0, 37.8418
46.184296756, 96.390, 1351.0, 36.7560
46.210557321, 96.390, 1300.0, 36.0555
46.236817887, 96.390, 1358.0, 36.8511
46.263078452, 96.390, 1381.0, 37.1618
46.289339017, 96.390, 1416.0, 37.6298
46.315599583, 96.390, 1376.0, 37.0945
46.341860148, 96.390, 1382.0, 37.1753
46.368120714, 96.390, 1423.0, 37.7227
46.394381279, 96.390, 1341.0, 36.6197
46.420641844, 96.390, 1311.0, 36.2077
46.446902410, 96.390, 1383.0, 37.1887
46.473162975, 96.390, 1377.0, 37.1080
46.499423540, 96.390, 1359.0, 36.8646
46.525684106, 96.390, 1357.0, 36.8375
46.551944671, 96.390, 1315.0, 36.2629
46.578205236, 96.390, 1339.0, 36.5923
46.604465802, 96.390, 1324.0, 36.3868
46.630726367, 96.390, 1389.0, 37.2693
46.656986932, 96.390, 1432.0, 37.8418
46.683247498, 96.390, 1396.0, 37.3631
46.709508063, 96.390, 1380.0, 37.1484
46.735768629, 96.390, 1392.0, 37.3095
46.762029194, 96.390, 1415.0, 37.6165
46.788289759, 96.390, 1415.0, 37.6165
46.814550325, 96.390, 1349.0, 36.7287
46.840810890, 96.390, 1316.0, 36.2767
46.867071455, 96.390, 1403.0, 37.4566
46.893332021, 96.390, 1409.0, 37.5366
46.919592586, 96.390, 1353.0, 36.7831
46.945853151, 96.390, 1359.0, 36.8646
46.972113717, 96.390, 1370.0, 37.0135
46.998374282, 96.390, 1436.0, 37.8946
47.024634847, 96.390, 1352.0, 36.7696
47.050895413, 96.390, 1384.0, 37.2022
47.077155978, 96.390, 1319.0, 36.3180
47.103416543, 96.390, 1333.0, 36.5103
47.129677109, 96.390, 1270.0, 35.6371
47.155937674, 96.390, 1341.0, 36.6197
47.182198240, 96.390, 1349.0, 36.7287
47.208458805, 96.390, 1328.0, 36.4417
47.234719370, 96.390, 1327.0, 36.4280
47.260979936, 96.390, 1348.0, 36.7151
47.287240501, 96.390, 1347.0, 36.7015
47.313501066, 96.390, 1290.0, 35.9166
47.339761632, 96.390, 1349.0, 36.7287
47.366022197, 96.390, 1291.0, 35.9305
47.392282762, 96.390, 1370.0, 37.0135
47.418543328, 96.390, 1351.0, 36.7560
47.444803893, 96.390, 1362.0, 36.9053
47.471064458, 96.390, 1321.0, 36.3456
47.497325024, 96.390, 1316.0, 36.2767
47.523585589, 96.390, 1363.0, 36.9188
47.549846155, 96.390, 1274.0, 35.6931
47.576106720, 96.390, 1277.0, 35.7351
47.602367285, 96.390, 1273.0, 35.6791
47.628627851, 96.390, 1250.0, 35.3553
47.654888416, 96.390, 1301.0, 36.0694
47.681148981, 96.390, 1357.0, 36.8375
47.707409547, 96.390, 1274.0, 35.6931
47.733670112, 96.390, 1282.0, 35.8050
47.759930677, 96.390, 1292.0, 35.9444
47.786191243, 96.390, 1292.0, 35.9444
47.812451808, 96.390, 1281.0, 35.7911
47.838712373, 96.390, 1232.0, 35.0999
47.864972939, 96.390, 1273.0, 35.6791
47.891233504, 96.390, 1257.0, 35.4542
47.917494069, 96.390, 1293.0, 35.9583
47.943754635, 96.390, 1323.0, 36.3731
47.970015200, 96.390, 1263.0, 35.5387
47.996275766, 96.390, 1274.0, 35.6931
48.022536331, 96.390, 1275.0, 35.7071
48.048796896, 96.390, 1374.0, 37.0675
48.075057462, 96.390, 1346.0, 36.6879
48.101318027, 96.390, 1248.0, 35.3270
48.127578592, 96.390, 1252.0, 35.3836
48.153839158, 96.390, 1281.0, 35.7911
48.180099723, 96.390, 1283.0, 35.8190
48.206360288, 96.390, 1258.0, 35.4683
48.232620854, 96.390, 1300.0, 36.0555
48.258881419, 96.390, 1230.0, 35.0714
48.285141984, 96.390, 1245.0, 35.2846
48.311402550, 96.390, 1196.0, 34.5832
48.337663115, 96.390, 1235.0, 35.1426
48.363923681, 96.390, 1267.0, 35.5949
48.390184246, 96.390, 1205.0, 34.7131
48.416444811, 96.390, 1256.0, 35.4401
48.442705377, 96.390, 1271.0, 35.6511
48.468965942, 96.390, 1151.0, 33.9264
48.495226507, 96.390, 1257.0, 35.4542
48.521487073, 96.390, 1315.0, 36.2629
48.547747638, 96.390, 1210.0, 34.7851
48.574008203, 96.390, 1252.0, 35.3836
48.600268769, 96.390, 1276.0, 35.7211
48.626529334, 96.390, 1285.0, 35.8469
48.652789899, 96.390, 1220.0, 34.9285
48.679050465, 96.390, 1256.0, 35.4401
48.705311030, 96.390, 1291.0, 35.9305
48.731571595, 96.390, 1259.0, 35.4824
48.757832161, 96.390, 1291.0, 35.9305
48.784092726, 96.390, 1241.0, 35.2278
48.810353292, 96.390, 1267.0, 35.5949
48.836613857, 96.390, 1249.0, 35.3412
48.862874422, 96.390, 1277.0, 35.7351
48.889134988, 96.390, 1218.0, 34.8999
48.915395553, 96.390, 1225.0, 35.0000
48.941656118, 96.390, 1271.0, 35.6511
48.967916684, 96.390, 1252.0, 35.3836
48.994177249, 96.390, 1250.0, 35.3553
49.020437814, 96.390, 1268.0, 35.6090
49.046698380, 96.390, 1245.0, 35.2846
49.072958945, 96.390, 1184.0, 34.4093
49.099219510, 96.390, 1195.0, 34.5688
49.125480076, 96.390, 1236.0, 35.1568
49.151740641, 96.390, 1156.0, 34.0000
49.178001207, 96.390, 1184.0, 34.4093
49.204261772, 96.390, 1171.0, 34.2199
49.230522337, 96.390, 1213.0, 34.8281
49.256782903, 96.390, 1246.0, 35.2987
49.283043468, 96.390, 1202.0, 34.6699
49.309304033, 96.390, 1192.0, 34.5254
49.335564599, 96.390, 1179.0, 34.3366
49.361825164, 96.390, 1201.0, 34.6554
49.388085729, 96.390, 1202.0, 34.6699
49.414346295, 96.390, 1250.0, 35.3553
49.440606860, 96.390, 1203.0, 34.6843
49.466867425, 96.390, 1226.0, 35.0143
49.493127991, 96.390, 1246.0, 35.2987
49.519388556, 96.390, 1183.0, 34.3948
49.545649121, 96.390, 1217.0, 34.8855
49.571909687, 96.390, 1233.0, 35.1141
49.598170252, 96.390, 1209.0, 34.7707
49.624430818, 96.390, 1161.0, 34.0735
49.650691383, 96.390, 1209.0, 34.7707
49.676951948, 96.390, 1247.0, 35.3129
49.703212514, 96.390, 1219.0, 34.9142
49.729473079, 96.390, 1193.0, 34.5398
49.755733644, 96.390, 1247.0, 35.3129
49.781994210, 96.390, 1224.0, 34.9857
49.808254775, 96.390, 1193.0, 34.5398
49.834515340, 96.390, 1244.0, 35.2704
49.860775906, 96.390, 1101.0, 33.1813
49.887036471, 96.390, 1204.0, 34.6987
49.913297036, 96.390, 1188.0, 34.4674
49.939557602, 96.390, 1162.0, 34.0881
49.965818167, 96.390, 1187.0, 34.4529
49.992078732, 96.390, 1141.0, 33.7787
50.018339298, 96.390, 1191.0, 34.5109
50.044599863, 96.390, 1142.0, 33.7935
50.070860429, 96.390, 1171.0, 34.2199
50.097120994, 96.390, 1167.0, 34.1614
50.123381559, 96.390, 1146.0, 33.8526
50.149642125, 96.390, 1198.0, 34.6121
50.175902690, 96.390, 1181.0, 34.3657
50.202163255, 96.390, 1141.0, 33.7787
50.228423821, 96.390, 1147.0, 33.8674
50.254684386, 96.390, 1100.0, 33.1662
50.280944951, 96.390, 1147.0, 33.8674
50.307205517, 96.390, 1140.0, 33.7639
50.333466082, 96.390, 1181.0, 34.3657
50.359726647, 96.390, 1171.0, 34.2199
50.385987213, 96.390, 1127.0, 33.5708
50.412247778, 96.390, 1134.0, 33.6749
50.438508344, 96.390, 1189.0, 34.4819
50.464768909, 96.390, 1128.0, 33.5857
50.491029474, 96.390, 1112.0, 33.3467
50.517290040, 96.390, 1099.0, 33.1512
50.543550605, 96.390, 1156.0, 34.0000
50.569811170, 96.390, 1154.0, 33.9706
50.596071736, 96.390, 1124.0, 33.5261
50.622332301, 96.390, 1196.0, 34.5832
50.648592866, 96.390, 1156.0, 34.0000
50.674853432, 96.390, 1150.0, 33.9116
50.701113997, 96.390, 1117.0, 33.4215
50.727374562, 96.390, 1119.0, 33.4515
50.753635128, 96.390, 1150.0, 33.9116
50.779895693, 96.390, 1174.0, 34.2637
50.806156258, 96.390, 1159.0, 34.0441
50.832416824, 96.390, 1079.0, 32.8481
50.858677389, 96.390, 1100.0, 33.1662
50.884937955, 96.390, 1156.0, 34.0000
50.911198520, 96.390, 1111.0, 33.3317
50.937459085, 96.390, 1139.0, 33.7491
50.963719651, 96.390, 1086.0, 32.9545
50.989980216, 96.390, 1183.0, 34.3948
51.016240781, 96.390, 1162.0, 34.0881
51.042501347, 96.390, 1091.0, 33.0303
51.068761912, 96.390, 1107.0, 33.2716
51.095022477, 96.390, 1111.0, 33.3317
51.121283043, 96.390, 1107.0, 33.2716
51.147543608, 96.390, 1084.0, 32.9242
51.173804173, 96.390, 1206.0, 34.7275
51.200064739, 96.390, 1115.0, 33.3916
51.226325304, 96.390, 1087.0, 32.9697
51.252585870, 96.390, 1069.0, 32.6956
51.278846435, 96.390, 1081.0, 32.8786
51.305107000, 96.390, 1063.0, 32.6037
51.331367566, 96.390, 1069.0, 32.6956
51.357628131, 96.390, 1114.0, 33.3766
51.383888696, 96.390, 1099.0, 33.1512
51.410149262, 96.390, 1074.0, 32.7719
51.436409827, 96.390, 1163.0, 34.1028
51.462670392, 96.390, 1116.0, 33.4066
51.488930958, 96.390, 1096.0, 33.1059
51.515191523, 96.390, 1019.0, 31.9218
51.541452088, 96.390, 1110.0, 33.3167
51.567712654, 96.390, 1143.0, 33.8083
51.593973219, 96.390, 1135.0, 33.6898
51.620233784, 96.390, 1112.0, 33.3467
51.646494350, 96.390, 1092.0, 33.0454
51.672754915, 96.390, 1088.0, 32.9848
51.699015481, 96.390, 1009.0, 31.7648
51.725276046, 96.390, 1139.0, 33.7491
51.751536611, 96.390, 1116.0, 33.4066
51.777797177, 96.390, 1061.0, 32.5730
51.804057742, 96.390, 1037.0, 32.2025
51.830318307, 96.390, 1060.0, 32.5576
51.856578873, 96.390, 1104.0, 33.2265
51.882839438, 96.390, 1158.0, 34.0294
51.909100003, 96.390, 1045.0, 32.3265
51.935360569, 96.390, 1047.0, 32.3574
51.961621134, 96.390, 1064.0, 32.6190
51.987881699, 96.390, 1156.0, 34.0000
52.014142265, 96.390, 1114.0, 33.3766
52.040402830, 96.390, 1005.0, 31.7017
52.066663396, 96.390, 1047.0, 32.3574
52.092923961, 96.390, 1137.0, 33.7194
52.119184526, 96.390, 1152.0, 33.9411
52.145445092, 96.390, 1083.0, 32.9090
52.171705657, 96.390, 1037.0, 32.2025
52.197966222, 96.390, 1122.0, 33.4963
52.224226788, 96.390, 1127.0, 33.5708
52.250487353, 96.390, 1077.0, 32.8177
52.276747918, 96.390, 1081.0, 32.8786
52.303008484, 96.390, 1053.0, 32.4500
52.329269049, 96.390, 1078.0, 32.8329
52.355529614, 96.390, 1054.0, 32.4654
52.381790180, 96.390, 1082.0, 32.8938
52.408050745, 96.390, 1092.0, 33.0454
52.434311310, 96.390, 1047.0, 32.3574
52.460571876, 96.390, 1000.0, 31.6228
52.486832441, 96.390, 1073.0, 32.7567
52.513093007, 96.390, 1069.0, 32.6956
52.539353572, 96.390, 1081.0, 32.8786
52.565614137, 96.390, 1056.0, 32.4962
52.591874703, 96.390, 1060.0, 32.5576
52.618135268, 96.390, 1063.0, 32.6037
52.644395833, 96.390, 1028.0, 32.0624
52.670656399, 96.390, 1083.0, 32.9090
52.696916964, 96.390, 1037.0, 32.2025
52.723177529, 96.390, 1016.0, 31.8748
52.749438095, 96.390, 1027.0, 32.0468
52.775698660, 96.390, 1083.0, 32.9090
52.801959225, 96.390, 1101.0, 33.1813
52.828219791, 96.390, 1019.0, 31.9218
52.854480356, 96.390, 1033.0, 32.1403
52.880740922, 96.390, 1102.0, 33.1964
52.907001487, 96.390, 1064.0, 32.6190
52.933262052, 96.390, 1067.0, 32.6650
52.959522618, 96.390, 1071.0, 32.7261
52.985783183, 96.390, 1056.0, 32.4962
53.012043748, 96.390, 995.0, 31.5436
53.038304314, 96.390, 974.0, 31.2090
53.064564879, 96.390, 1083.0, 32.9090
53.090825444, 96.390, 1057.0, 32.5115
53.117086010, 96.390, 1024.0, 32.0000
53.143346575, 96.390, 1062.0, 32.5883
53.169607140, 96.390, 1052.0, 32.4345
53.195867706, 96.390, 1018.0, 31.9061
53.222128271, 96.390, 1036.0, 32.1870
53.248388836, 96.390, 1047.0, 32.3574
53.274649402, 96.390, 1021.0, 31.9531
53.300909967, 96.390, 1066.0, 32.6497
53.327170533, 96.390, 1008.0, 31.7490
53.353431098, 96.390, 1067.0, 32.6650
53.379691663, 96.390, 1032.0, 32.1248
53.405952229, 96.390, 1031.0, 32.1092
53.432212794, 96.390, 1029.0, 32.0780
53.458473359, 96.390, 997.0, 31.5753
53.484733925, 96.390, 1062.0, 32.5883
53.510994490, 96.390, 1062.0, 32.5883
53.537255055, 96.390, 1073.0, 32.7567
53.563515621, 96.390, 1024.0, 32.0000
53.589776186, 96.390, 975.0, 31.2250
53.616036751, 96.390, 963.0, 31.0322
53.642297317, 96.390, 1001.0, 31.6386
53.668557882, 96.390, 1000.0, 31.6228
53.694818448, 96.390, 1027.0, 32.0468
53.721079013, 96.390, 1055.0, 32.4808
53.747339578, 96.390, 976.0, 31.2410
53.773600144, 96.390, 980.0, 31.3050
53.799860709, 96.390, 1107.0, 33.2716
53.826121274, 96.390, 1083.0, 32.9090
53.852381840, 96.390, 1018.0, 31.9061
53.878642405, 96.390, 1053.0, 32.4500
53.904902970, 96.390, 1020.0, 31.9374
53.931163536, 96.390, 1039.0, 32.2335
53.957424101, 96.390, 1067.0, 32.6650
53.983684666, 96.390, 1002.0, 31.6544
54.009945232, 96.390, 989.0, 31.4484
54.036205797, 96.390, 985.0, 31.3847
54.062466362, 96.390, 1013.0, 31.8277
54.088726928, 96.390, 1031.0, 32.1092
54.114987493, 96.390, 985.0, 31.3847
54.141248059, 96.390, 1010.0, 31.7805
54.167508624, 96.390, 994.0, 31.5278
54.193769189, 96.390, 1021.0, 31.9531
54.220029755, 96.390, 1053.0, 32.4500
54.246290320, 96.390, 991.0, 31.4802
54.272550885, 96.390, 1022.0, 31.9687
54.298811451, 96.390, 992.0, 31.4960
54.325072016, 96.390, 1018.0, 31.9061
54.351332581, 96.390, 1037.0, 32.2025
54.377593147, 96.390, 1023.0, 31.9844
54.403853712, 96.390, 1033.0, 32.1403
54.430114277, 96.390, 987.0, 31.4166
54.456374843, 96.390, 1026.0, 32.0312
54.482635408, 96.390, 1030.0, 32.0936
54.508895973, 96.390, 1021.0, 31.9531
54.535156539, 96.390, 1066.0, 32.6497
54.561417104, 96.390, 1004.0, 31.6860
54.587677670, 96.390, 960.0, 30.9839
54.613938235, 96.390, 1033.0, 32.1403
54.640198800, 96.390, 969.0, 31.1288
54.666459366, 96.390, 1030.0, 32.0936
54.692719931, 96.390, 973.0, 31.1929
54.718980496, 96.390, 1002.0, 31.6544
54.745241062, 96.390, 1059.0, 32.5423
54.771501627, 96.390, 1035.0, 32.1714
54.797762192, 96.390, 981.0, 31.3209
54.824022758, 96.390, 997.0, 31.5753
54.850283323, 96.390, 966.0, 31.0805
54.876543888, 96.390, 1029.0, 32.0780
54.902804454, 96.390, 1016.0, 31.8748
54.929065019, 96.390, 1006.0, 31.7175
54.955325585, 96.390, 1009.0, 31.7648
54.981586150, 96.390, 942.0, 30.6920
55.007846715, 96.390, 923.0, 30.3809
55.034107281, 96.390, 1032.0, 32.1248
55.060367846, 96.390, 975.0, 31.2250
55.086628411, 96.390, 966.0, 31.0805
55.112888977, 96.390, 1018.0, 31.9061
55.139149542, 96.390, 1045.0, 32.3265
55.165410107, 96.390, 962.0, 31.0161
55.191670673, 96.390, 1028.0, 32.0624
55.217931238, 96.390, 1067.0, 32.6650
55.244191803, 96.390, 908.0, 30.1330
55.270452369, 96.390, 972.0, 31.1769
55.296712934, 96.390, 981.0, 31.3209
55.322973499, 96.390, 976.0, 31.2410
55.349234065, 96.390, 1038.0, 32.2180
55.375494630, 96.390, 1018.0, 31.9061
55.401755196, 96.390, 999.0, 31.6070
55.428015761, 96.390, 1010.0, 31.7805
55.454276326, 96.390, 904.0, 30.0666
55.480536892, 96.390, 922.0, 30.3645
55.506797457, 96.390, 961.0, 31.0000
55.533058022, 96.390, 969.0, 31.1288
55.559318588, 96.390, 910.0, 30.1662
55.585579153, 96.390, 1003.0, 31.6702
55.611839718, 96.390, 976.0, 31.2410
55.638100284, 96.390, 1051.0, 32.4191
55.664360849, 96.390, 927.0, 30.4467
55.690621414, 96.390, 993.0, 31.5119
55.716881980, 96.390, 1000.0, 31.6228
55.743142545, 96.390, 957.0, 30.9354
55.769403111, 96.390, 1003.0, 31.6702
55.795663676, 96.390, 963.0, 31.0322
55.821924241, 96.390, 967.0, 31.0966
55.848184807, 96.390, 973.0, 31.1929
55.874445372, 96.390, 1000.0, 31.6228
55.900705937, 96.390, 1020.0, 31.9374
55.926966503, 96.390, 961.0, 31.0000
55.953227068, 96.390, 972.0, 31.1769
55.979487633, 96.390, 1002.0, 31.6544
56.005748199, 96.390, 972.0, 31.1769
56.032008764, 96.390, 1003.0, 31.6702
56.058269329, 96.390, 942.0, 30.6920
56.084529895, 96.390, 941.0, 30.6757
56.110790460, 96.390, 981.0, 31.3209
56.137051025, 96.390, 955.0, 30.9031
56.163311591, 96.390, 987.0, 31.4166
56.189572156, 96.390, 985.0, 31.3847
56.215832722, 96.390, 996.0, 31.5595
56.242093287, 96.390, 1020.0, 31.9374
56.268353852, 96.390, 945.0, 30.7409
56.294614418, 96.390, 1001.0, 31.6386
56.320874983, 96.390, 983.0, 31.3528
56.347135548, 96.390, 1005.0, 31.7017
56.373396114, 96.390, 958.0, 30.9516
56.399656679, 96.390, 997.0, 31.5753
56.425917244, 96.390, 1004.0, 31.6860
56.452177810, 96.390, 992.0, 31.4960
56.478438375, 96.390, 977.0, 31.2570
56.504698940, 96.390, 942.0, 30.6920
56.530959506, 96.390, 1024.0, 32.0000
56.557220071, 96.390, 945.0, 30.7409
56.583480637, 96.390, 1006.0, 31.7175
56.609741202, 96.390, 932.0, 30.5287
56.636001767, 96.390, 991.0, 31.4802
56.662262333, 96.390, 949.0, 30.8058
56.688522898, 96.390, 977.0, 31.2570
56.714783463, 96.390, 949.0, 30.8058
56.741044029, 96.390, 1051.0, 32.4191
56.767304594, 96.390, 979.0, 31.2890
56.793565159, 96.390, 943.0, 30.7083
56.819825725, 96.390, 1026.0, 32.0312
56.846086290, 96.390, 1014.0, 31.8434
56.872346855, 96.390, 984.0, 31.3688
56.898607421, 96.390, 1004.0, 31.6860
56.924867986, 96.390, 960.0, 30.9839
56.951128551, 96.390, 982.0, 31.3369
56.977389117, 96.390, 1013.0, 31.8277
57.003649682, 96.390, 958.0, 30.9516
57.029910248, 96.390, 978.0, 31.2730
57.056170813, 96.390, 1010.0, 31.7805
57.082431378, 96.390, 1000.0, 31.6228
57.108691944, 96.390, 924.0, 30.3974
57.134952509, 96.390, 921.0, 30.3480
57.161213074, 96.390, 980.0, 31.3050
57.187473640, 96.390, 966.0, 31.0805
57.213734205, 96.390, 977.0, 31.2570
57.239994770, 96.390, 983.0, 31.3528
57.266255336, 96.390, 979.0, 31.2890
57.292515901, 96.390, 968.0, 31.1127
57.318776466, 96.390, 1049.0, 32.3883
57.345037032, 96.390, 931.0, 30.5123
57.371297597, 96.390, 974.0, 31.2090
57.397558163, 96.390, 1009.0, 31.7648
57.423818728, 96.390, 910.0, 30.1662
57.450079293, 96.390, 974.0, 31.2090
57.476339859, 96.390, 995.0, 31.5436
57.502600424, 96.390, 952.0, 30.8545
57.528860989, 96.390, 957.0, 30.9354
57.555121555, 96.390, 974.0, 31.2090
57.581382120, 96.390, 951.0, 30.8383
57.607642685, 96.390, 924.0, 30.3974
57.633903251, 96.390, 961.0, 31.0000
57.660163816, 96.390, 1034.0, 32.1559
57.686424381, 96.390, 994.0, 31.5278
57.712684947, 96.390, 919.0, 30.3150
57.738945512, 96.390, 1008.0, 31.7490
57.765206077, 96.390, 1017.0, 31.8904
57.791466643, 96.390, 982.0, 31.3369
57.817727208, 96.390, 928.0, 30.4631
57.843987774, 96.390, 963.0, 31.0322
57.870248339, 96.390, 972.0, 31.1769
57.896508904, 96.390, 1022.0, 31.9687
57.922769470, 96.390, 953.0, 30.8707
57.949030035, 96.390, 964.0, 31.0483
57.975290600, 96.390, 939.0, 30.6431
58.001551166, 96.390, 986.0, 31.4006
58.027811731, 96.390, 1010.0, 31.7805
58.054072296, 96.390, 969.0, 31.1288
58.080332862, 96.390, 913.0, 30.2159
58.106593427, 96.390, 970.0, 31.1448
58.132853992, 96.390, 1002.0, 31.6544
58.159114558, 96.390, 964.0, 31.0483
58.185375123, 96.390, 872.0, 29.5296
58.211635689, 96.390, 978.0, 31.2730
58.237896254, 96.390, 964.0, 31.0483
58.264156819, 96.390, 962.0, 31.0161
58.290417385, 96.390, 966.0, 31.0805
58.316677950, 96.390, 977.0, 31.2570
58.342938515, 96.390, 954.0, 30.8869
58.369199081, 96.390, 1019.0, 31.9218
58.395459646, 96.390, 985.0, 31.3847
58.421720211, 96.390, 1048.0, 32.3728
58.447980777, 96.390, 977.0, 31.2570
58.474241342, 96.390, 972.0, 31.1769
58.500501907, 96.390, 950.0, 30.8221
58.526762473, 96.390, 1012.0, 31.8119
58.553023038, 96.390, 982.0, 31.3369
58.579283603, 96.390, 1027.0, 32.0468
58.605544169, 96.390, 1010.0, 31.7805
58.631804734, 96.390, 980.0, 31.3050
58.658065300, 96.390, 970.0, 31.1448
58.684325865, 96.390, 1008.0, 31.7490
58.710586430, 96.390, 924.0, 30.3974
58.736846996, 96.390, 965.0, 31.0644
58.763107561, 96.390, 1015.0, 31.8591
58.789368126, 96.390, 975.0, 31.2250
58.815628692, 96.390, 967.0, 31.0966
58.841889257, 96.390, 925.0, 30.4138
58.868149822, 96.390, 996.0, 31.5595
58.894410388, 96.390, 915.0, 30.2490
58.920670953, 96.390, 991.0, 31.4802
58.946931518, 96.390, 1020.0, 31.9374
58.973192084, 96.390, 990.0, 31.4643
58.999452649, 96.390, 1036.0, 32.1870
59.025713214, 96.390, 1013.0, 31.8277
59.051973780, 96.390, 1010.0, 31.7805
59.078234345, 96.390, 984.0, 31.3688
59.104494911, 96.390, 1028.0, 32.0624
59.130755476, 96.390, 1006.0, 31.7175
59.157016041, 96.390, 946.0, 30.7571
59.183276607, 96.390, 998.0, 31.5911
59.209537172, 96.390, 948.0, 30.7896
59.235797737, 96.390, 978.0, 31.2730
59.262058303, 96.390, 1030.0, 32.0936
59.288318868, 96.390, 1012.0, 31.8119
59.314579433, 96.390, 1000.0, 31.6228
59.340839999, 96.390, 1050.0, 32.4037
59.367100564, 96.390, 1008.0, 31.7490
59.393361129, 96.390, 1037.0, 32.2025
59.419621695, 96.390, 1010.0, 31.7805
59.445882260, 96.390, 1010.0, 31.7805
59.472142826, 96.390, 916.0, 30.2655
59.498403391, 96.390, 1035.0, 32.1714
59.524663956, 96.390, 1005.0, 31.7017
59.550924522, 96.390, 1000.0, 31.6228
59.577185087, 96.390, 1013.0, 31.8277
59.603445652, 96.390, 1055.0, 32.4808
59.629706218, 96.390, 1044.0, 32.3110
59.655966783, 96.390, 1070.0, 32.7109
59.682227348, 96.390, 1057.0, 32.5115
59.708487914, 96.390, 1004.0, 31.6860
59.734748479, 96.390, 1050.0, 32.4037
59.761009044, 96.390, 1015.0, 31.8591
59.787269610, 96.390, 1054.0, 32.4654
59.813530175, 96.390, 1036.0, 32.1870
59.839790740, 96.390, 1075.0, 32.7872
59.866051306, 96.390, 1060.0, 32.5576
59.892311871, 96.390, 1025.0, 32.0156
59.918572437, 96.390, 1096.0, 33.1059
59.944833002, 96.390, 1034.0, 32.1559
59.971093567, 96.390, 1109.0, 33.3017
59.997354133, 96.390, 1024.0, 32.0000
60.023614698, 96.390, 1153.0, 33.9559
60.049875263, 96.390, 1071.0, 32.7261
60.076135829, 96.390, 1124.0, 33.5261
60.102396394, 96.390, 1035.0, 32.1714
60.128656959, 96.390, 1120.0, 33.4664
60.154917525, 96.390, 1133.0, 33.6601
60.181178090, 96.390, 1166.0, 34.1467
60.207438655, 96.390, 1184.0, 34.4093
60.233699221, 96.390, 1131.0, 33.6303
60.259959786, 96.390, 1165.0, 34.1321
60.286220352, 96.390, 1167.0, 34.1614
60.312480917, 96.390, 1148.0, 33.8821
60.338741482, 96.390, 1187.0, 34.4529
60.365002048, 96.390, 1214.0, 34.8425
60.391262613, 96.390, 1131.0, 33.6303
60.417523178, 96.390, 1217.0, 34.8855
60.443783744, 96.390, 1192.0, 34.5254
60.470044309, 96.390, 1171.0, 34.2199
60.496304874, 96.390, 1240.0, 35.2136
60.522565440, 96.390, 1201.0, 34.6554
60.548826005, 96.390, 1275.0, 35.7071
60.575086570, 96.390, 1190.0, 34.4964
60.601347136, 96.390, 1317.0, 36.2905
60.627607701, 96.390, 1271.0, 35.6511
60.653868266, 96.390, 1254.0, 35.4119
60.680128832, 96.390, 1290.0, 35.9166
60.706389397, 96.390, 1321.0, 36.3456
60.732649963, 96.390, 1322.0, 36.3593
60.758910528, 96.390, 1357.0, 36.8375
60.785171093, 96.390, 1350.0, 36.7423
60.811431659, 96.390, 1354.0, 36.7967
60.837692224, 96.390, 1333.0, 36.5103
60.863952789, 96.390, 1387.0, 37.2424
60.890213355, 96.390, 1372.0, 37.0405
60.916473920, 96.390, 1405.0, 37.4833
60.942734485, 96.390, 1444.0, 38.0000
60.968995051, 96.390, 1416.0, 37.6298
60.995255616, 96.390, 1407.0, 37.5100
61.021516181, 96.390, 1334.0, 36.5240
61.047776747, 96.390, 1398.0, 37.3898
61.074037312, 96.390, 1331.0, 36.4829
61.100297878, 96.390, 1401.0, 37.4299
61.126558443, 96.390, 1401.0, 37.4299
61.152819008, 96.390, 1426.0, 37.7624
61.179079574, 96.390, 1370.0, 37.0135
61.205340139, 96.390, 1323.0, 36.3731
61.231600704, 96.390, 1389.0, 37.2693
61.257861270, 96.390, 1406.0, 37.4967
61.284121835, 96.390, 1386.0, 37.2290
61.310382400, 96.390, 1425.0, 37.7492
61.336642966, 96.390, 1427.0, 37.7757
61.362903531, 96.390, 1346.0, 36.6879
61.389164096, 96.390, 1355.0, 36.8103
61.415424662, 96.390, 1372.0, 37.0405
61.441685227, 96.390, 1354.0, 36.7967
61.467945792, 96.390, 1355.0, 36.8103
61.494206358, 96.390, 1378.0, 37.1214
61.520466923, 96.390, 1373.0, 37.0540
61.546727489, 96.390, 1350.0, 36.7423
61.572988054, 96.390, 1410.0, 37.5500
61.599248619, 96.390, 1361.0, 36.8917
61.625509185, 96.390, 1406.0, 37.4967
61.651769750, 96.390, 1420.0, 37.6829
61.678030315, 96.390, 1332.0, 36.4966
61.704290881, 96.390, 1339.0, 36.5923
61.730551446, 96.390, 1384.0, 37.2022
61.756812011, 96.390, 1366.0, 36.9594
61.783072577, 96.390, 1402.0, 37.4433
61.809333142, 96.390, 1333.0, 36.5103
61.835593707, 96.390, 1400.0, 37.4166
61.861854273, 96.390, 1270.0, 35.6371
61.888114838, 96.390, 1334.0, 36.5240
61.914375404, 96.390, 1379.0, 37.1349
61.940635969, 96.390, 1308.0, 36.1663
61.966896534, 96.390, 1314.0, 36.2491
61.993157100, 96.390, 1310.0, 36.1939
62.019417665, 96.390, 1344.0, 36.6606
62.045678230, 96.390, 1266.0, 35.5809
62.071938796, 96.390, 1269.0, 35.6230
62.098199361, 96.390, 1297.0, 36.0139
62.124459926, 96.390, 1285.0, 35.8469
62.150720492, 96.390, 1288.0, 35.8887
62.176981057, 96.390, 1249.0, 35.3412
62.203241622, 96.390, 1271.0, 35.6511
62.229502188, 96.390, 1228.0, 35.0428
62.255762753, 96.390, 1308.0, 36.1663
62.282023318, 96.390, 1277.0, 35.7351
62.308283884, 96.390, 1251.0, 35.3695
62.334544449, 96.390, 1262.0, 35.5246
62.360805015, 96.390, 1240.0, 35.2136
62.387065580, 96.390, 1282.0, 35.8050
62.413326145, 96.390, 1236.0, 35.1568
62.439586711, 96.390, 1137.0, 33.7194
62.465847276, 96.390, 1271.0, 35.6511
62.492107841, 96.390, 1228.0, 35.0428
62.518368407, 96.390, 1181.0, 34.3657
62.544628972, 96.390, 1120.0, 33.4664
62.570889537, 96.390, 1164.0, 34.1174
62.597150103, 96.390, 1120.0, 33.4664
62.623410668, 96.390, 1113.0, 33.3617
62.649671233, 96.390, 1130.0, 33.6155
62.675931799, 96.390, 1152.0, 33.9411
62.702192364, 96.390, 1173.0, 34.2491
62.728452930, 96.390, 1234.0, 35.1283
62.754713495, 96.390, 1195.0, 34.5688
62.780974060, 96.390, 1163.0, 34.1028
62.807234626, 96.390, 1119.0, 33.4515
62.833495191, 96.390, 1068.0, 32.6803
62.859755756, 96.390, 1153.0, 33.9559
62.886016322, 96.390, 1171.0, 34.2199
62.912276887, 96.390, 1039.0, 32.2335
62.938537452, 96.390, 1105.0, 33.2415
62.964798018, 96.390, 1071.0, 32.7261
62.991058583, 96.390, 1154.0, 33.9706
63.017319148, 96.390, 1113.0, 33.3617
63.043579714, 96.390, 1067.0, 32.6650
63.069840279, 96.390, 1115.0, 33.3916
63.096100844, 96.390, 1061.0, 32.5730
63.122361410, 96.390, 1032.0, 32.1248
63.148621975, 96.390, 1069.0, 32.6956
63.174882541, 96.390, 1088.0, 32.9848
63.201143106, 96.390, 1114.0, 33.3766
63.227403671, 96.390, 1044.0, 32.3110
63.253664237, 96.390, 1055.0, 32.4808
63.279924802, 96.390, 1009.0, 31.7648
63.306185367, 96.390, 1001.0, 31.6386
63.332445933, 96.390, 1088.0, 32.9848
63.358706498, 96.390, 1035.0, 32.1714
63.384967063, 96.390, 1041.0, 32.2645
63.411227629, 96.390, 987.0, 31.4166
63.437488194, 96.390, 1007.0, 31.7333
63.463748759, 96.390, 987.0, 31.4166
63.490009325, 96.390, 917.0, 30.2820
63.516269890, 96.390, 950.0, 30.8221
63.542530455, 96.390, 1021.0, 31.9531
63.568791021, 96.390, 1016.0, 31.8748
63.595051586, 96.390, 1015.0, 31.8591
63.621312152, 96.390, 946.0, 30.7571
63.647572717, 96.390, 962.0, 31.0161
63.673833282, 96.390, 1008.0, 31.7490
63.700093848, 96.390, 916.0, 30.2655
63.726354413, 96.390, 972.0, 31.1769
63.752614978, 96.390, 940.0, 30.6594
63.778875544, 96.390, 997.0, 31.5753
63.805136109, 96.390, 967.0, 31.0966
63.831396674, 96.390, 941.0, 30.6757
63.857657240, 96.390, 943.0, 30.7083
63.883917805, 96.390, 957.0, 30.9354
63.910178370, 96.390, 970.0, 31.1448
63.936438936, 96.390, 1015.0, 31.8591
63.962699501, 96.390, 976.0, 31.2410
63.988960067, 96.390, 954.0, 30.8869
64.015220632, 96.390, 956.0, 30.9192
64.041481197, 96.390, 926.0, 30.4302
64.067741763, 96.390, 901.0, 30.0167
64.094002328, 96.390, 929.0, 30.4795
64.120262893, 96.390, 966.0, 31.0805
64.146523459, 96.390, 949.0, 30.8058
64.172784024, 96.390, 954.0, 30.8869
64.199044589, 96.390, 977.0, 31.2570
64.225305155, 96.390, 900.0, 30.0000
64.251565720, 96.390, 876.0, 29.5973
64.277826285, 96.390, 951.0, 30.8383
64.304086851, 96.390, 899.0, 29.9833
64.330347416, 96.390, 918.0, 30.2985
64.356607981, 96.390, 879.0, 29.6479
64.382868547, 96.390, 906.0, 30.0998
64.409129112, 96.390, 891.0, 29.8496
64.435389678, 96.390, 912.0, 30.1993
64.461650243, 96.390, 865.0, 29.4109
64.487910808, 96.390, 899.0, 29.9833
64.514171374, 96.390, 900.0, 30.0000
64.540431939, 96.390, 904.0, 30.0666
64.566692504, 96.390, 905.0, 30.0832
64.592953070, 96.390, 866.0, 29.4279
64.619213635, 96.390, 905.0, 30.0832
64.645474200, 96.390, 945.0, 30.7409
64.671734766, 96.390, 917.0, 30.2820
64.697995331, 96.390, 929.0, 30.4795
64.724255896, 96.390, 876.0, 29.5973
64.750516462, 96.390, 927.0, 30.4467
64.776777027, 96.390, 866.0, 29.4279
64.803037593, 96.390, 944.0, 30.7246
64.829298158, 96.390, 854.0, 29.2233
64.855558723, 96.390, 867.0, 29.4449
64.881819289, 96.390, 884.0, 29.7321
64.908079854, 96.390, 893.0, 29.8831
64.934340419, 96.390, 861.0, 29.3428
64.960600985, 96.390, 885.0, 29.7489
64.986861550, 96.390, 855.0, 29.2404
