[Measurement conditions]
Sample identification,XRD_MgCorner17Dec21_Act18Jan22_B4_0251M_NaOH_LS0113_1
Comment - 1,"Configuration=Stage for Flat Samples/Holders, Owner=User-1, Creation date=7/1/2020 9:53:24 AM"
Comment - 2,"Goniometer=Theta/Theta; Minimum step size 2Theta:0.0001; Minimum step size Omega:0.0001"
Comment - 3,"Sample stage=Stage for flat samples/holders"
Comment - 4,"Diffractometer system=EMPYREAN"
Comment - 5,"Measurement program=C:\Users\ibo5034\OneDrive - The Pennsylvania State University\NEUP - Reed, Titus's files\XRD\Cement\Zerobackground scan.xrdmp, Identifier={98A3B11C-88F9-4AA6-982C-73314A311EF5}"
Anode material,Cu
K-Alpha1 wavelength,1.5405980
K-Alpha2 wavelength,1.5444260
Ratio K-Alpha2/K-Alpha1,0.500
Divergence slit,Fixed,0.25
Monochromator used,NO
Generator voltage, 45
Tube current, 40
File date and time,21/Jan/2022 11:24
Unit cell,
h k l, 0 0 0
Scan axis,Gonio
Scan range,4.994599997,64.999991833
Scan step size,0.0262606
No. of points, 2285
Scan type,CONTINUOUS
Time per step,96.390
[Scan points]
Angle, TimePerStep, Intensity, ESD
5.007730280, 96.390, 6272.0, 79.1960
5.033990845, 96.390, 6345.0, 79.6555
5.060251411, 96.390, 6480.0, 80.4984
5.086511976, 96.390, 6316.0, 79.4733
5.112772541, 96.390, 6349.0, 79.6806
5.139033107, 96.390, 6250.0, 79.0569
5.165293672, 96.390, 6192.0, 78.6893
5.191554237, 96.390, 6032.0, 77.6660
5.217814803, 96.390, 6060.0, 77.8460
5.244075368, 96.390, 6080.0, 77.9744
5.270335934, 96.390, 6070.0, 77.9102
5.296596499, 96.390, 5966.0, 77.2399
5.322857064, 96.390, 5952.0, 77.1492
5.349117630, 96.390, 6008.0, 77.5113
5.375378195, 96.390, 6101.0, 78.1089
5.401638760, 96.390, 6077.0, 77.9551
5.427899326, 96.390, 5824.0, 76.3151
5.454159891, 96.390, 6014.0, 77.5500
5.480420456, 96.390, 5868.0, 76.6029
5.506681022, 96.390, 5826.0, 76.3282
5.532941587, 96.390, 5811.0, 76.2299
5.559202152, 96.390, 5823.0, 76.3086
5.585462718, 96.390, 5788.0, 76.0789
5.611723283, 96.390, 5709.0, 75.5579
5.637983849, 96.390, 5659.0, 75.2263
5.664244414, 96.390, 5739.0, 75.7562
5.690504979, 96.390, 5818.0, 76.2758
5.716765545, 96.390, 5633.0, 75.0533
5.743026110, 96.390, 5770.0, 75.9605
5.769286675, 96.390, 5622.0, 74.9800
5.795547241, 96.390, 5490.0, 74.0945
5.821807806, 96.390, 5595.0, 74.7997
5.848068371, 96.390, 5725.0, 75.6637
5.874328937, 96.390, 5705.0, 75.5315
5.900589502, 96.390, 5645.0, 75.1332
5.926850067, 96.390, 5649.0, 75.1598
5.953110633, 96.390, 5495.0, 74.1283
5.979371198, 96.390, 5471.0, 73.9662
6.005631763, 96.390, 5548.0, 74.4849
6.031892329, 96.390, 5703.0, 75.5182
6.058152894, 96.390, 5443.0, 73.7767
6.084413460, 96.390, 5566.0, 74.6056
6.110674025, 96.390, 5655.0, 75.1997
6.136934590, 96.390, 5572.0, 74.6458
6.163195156, 96.390, 5465.0, 73.9256
6.189455721, 96.390, 5461.0, 73.8986
6.215716286, 96.390, 5401.0, 73.4915
6.241976852, 96.390, 5309.0, 72.8629
6.268237417, 96.390, 5415.0, 73.5867
6.294497982, 96.390, 5511.0, 74.2361
6.320758548, 96.390, 5414.0, 73.5799
6.347019113, 96.390, 5446.0, 73.7970
6.373279678, 96.390, 5559.0, 74.5587
6.399540244, 96.390, 5317.0, 72.9178
6.425800809, 96.390, 5403.0, 73.5051
6.452061375, 96.390, 5451.0, 73.8309
6.478321940, 96.390, 5390.0, 73.4166
6.504582505, 96.390, 5343.0, 73.0958
6.530843071, 96.390, 5253.0, 72.4776
6.557103636, 96.390, 5284.0, 72.6911
6.583364201, 96.390, 5294.0, 72.7599
6.609624767, 96.390, 5341.0, 73.0821
6.635885332, 96.390, 5434.0, 73.7157
6.662145897, 96.390, 5331.0, 73.0137
6.688406463, 96.390, 5309.0, 72.8629
6.714667028, 96.390, 5344.0, 73.1027
6.740927593, 96.390, 5354.0, 73.1710
6.767188159, 96.390, 5325.0, 72.9726
6.793448724, 96.390, 5053.0, 71.0845
6.819709289, 96.390, 5233.0, 72.3395
6.845969855, 96.390, 5142.0, 71.7077
6.872230420, 96.390, 5155.0, 71.7983
6.898490986, 96.390, 5138.0, 71.6798
6.924751551, 96.390, 5130.0, 71.6240
6.951012116, 96.390, 5055.0, 71.0985
6.977272682, 96.390, 5132.0, 71.6380
7.003533247, 96.390, 5099.0, 71.4073
7.029793812, 96.390, 5129.0, 71.6170
7.056054378, 96.390, 5066.0, 71.1758
7.082314943, 96.390, 4991.0, 70.6470
7.108575508, 96.390, 5133.0, 71.6450
7.134836074, 96.390, 5161.0, 71.8401
7.161096639, 96.390, 5120.0, 71.5542
7.187357204, 96.390, 5031.0, 70.9295
7.213617770, 96.390, 5001.0, 70.7177
7.239878335, 96.390, 5055.0, 71.0985
7.266138900, 96.390, 5025.0, 70.8872
7.292399466, 96.390, 4946.0, 70.3278
7.318660031, 96.390, 5030.0, 70.9225
7.344920597, 96.390, 4928.0, 70.1997
7.371181162, 96.390, 4953.0, 70.3776
7.397441727, 96.390, 4972.0, 70.5124
7.423702293, 96.390, 4838.0, 69.5557
7.449962858, 96.390, 4916.0, 70.1142
7.476223423, 96.390, 4909.0, 70.0643
7.502483989, 96.390, 4953.0, 70.3776
7.528744554, 96.390, 4979.0, 70.5620
7.555005119, 96.390, 4749.0, 68.9130
7.581265685, 96.390, 4830.0, 69.4982
7.607526250, 96.390, 4732.0, 68.7895
7.633786815, 96.390, 4857.0, 69.6922
7.660047381, 96.390, 4863.0, 69.7352
7.686307946, 96.390, 4830.0, 69.4982
7.712568512, 96.390, 4783.0, 69.1592
7.738829077, 96.390, 4685.0, 68.4471
7.765089642, 96.390, 4725.0, 68.7386
7.791350208, 96.390, 4797.0, 69.2604
7.817610773, 96.390, 4823.0, 69.4478
7.843871338, 96.390, 4800.0, 69.2820
7.870131904, 96.390, 4893.0, 69.9500
7.896392469, 96.390, 4672.0, 68.3520
7.922653034, 96.390, 4789.0, 69.2026
7.948913600, 96.390, 4792.0, 69.2243
7.975174165, 96.390, 4714.0, 68.6586
8.001434730, 96.390, 4772.0, 69.0797
8.027695296, 96.390, 4673.0, 68.3593
8.053955861, 96.390, 4728.0, 68.7605
8.080216426, 96.390, 4718.0, 68.6877
8.106476992, 96.390, 4812.0, 69.3686
8.132737557, 96.390, 4594.0, 67.7791
8.158998123, 96.390, 4749.0, 68.9130
8.185258688, 96.390, 4612.0, 67.9117
8.211519253, 96.390, 4592.0, 67.7643
8.237779819, 96.390, 4497.0, 67.0597
8.264040384, 96.390, 4743.0, 68.8694
8.290300949, 96.390, 4682.0, 68.4251
8.316561515, 96.390, 4600.0, 67.8233
8.342822080, 96.390, 4606.0, 67.8675
8.369082645, 96.390, 4687.0, 68.4617
8.395343211, 96.390, 4557.0, 67.5056
8.421603776, 96.390, 4730.0, 68.7750
8.447864341, 96.390, 4594.0, 67.7791
8.474124907, 96.390, 4614.0, 67.9264
8.500385472, 96.390, 4536.0, 67.3498
8.526646038, 96.390, 4681.0, 68.4178
8.552906603, 96.390, 4639.0, 68.1102
8.579167168, 96.390, 4605.0, 67.8602
8.605427734, 96.390, 4590.0, 67.7495
8.631688299, 96.390, 4597.0, 67.8012
8.657948864, 96.390, 4520.0, 67.2309
8.684209430, 96.390, 4511.0, 67.1640
8.710469995, 96.390, 4667.0, 68.3154
8.736730560, 96.390, 4456.0, 66.7533
8.762991126, 96.390, 4494.0, 67.0373
8.789251691, 96.390, 4469.0, 66.8506
8.815512256, 96.390, 4502.0, 67.0969
8.841772822, 96.390, 4594.0, 67.7791
8.868033387, 96.390, 4574.0, 67.6314
8.894293952, 96.390, 4570.0, 67.6018
8.920554518, 96.390, 4530.0, 67.3053
8.946815083, 96.390, 4606.0, 67.8675
8.973075649, 96.390, 4475.0, 66.8954
8.999336214, 96.390, 4488.0, 66.9925
9.025596779, 96.390, 4533.0, 67.3276
9.051857345, 96.390, 4489.0, 67.0000
9.078117910, 96.390, 4656.0, 68.2349
9.104378475, 96.390, 4392.0, 66.2722
9.130639041, 96.390, 4608.0, 67.8823
9.156899606, 96.390, 4523.0, 67.2533
9.183160171, 96.390, 4469.0, 66.8506
9.209420737, 96.390, 4588.0, 67.7348
9.235681302, 96.390, 4501.0, 67.0895
9.261941867, 96.390, 4370.0, 66.1060
9.288202433, 96.390, 4408.0, 66.3928
9.314462998, 96.390, 4435.0, 66.5958
9.340723564, 96.390, 4453.0, 66.7308
9.366984129, 96.390, 4499.0, 67.0746
9.393244694, 96.390, 4387.0, 66.2344
9.419505260, 96.390, 4350.0, 65.9545
9.445765825, 96.390, 4497.0, 67.0597
9.472026390, 96.390, 4545.0, 67.4166
9.498286956, 96.390, 4536.0, 67.3498
9.524547521, 96.390, 4421.0, 66.4906
9.550808086, 96.390, 4505.0, 67.1193
9.577068652, 96.390, 4523.0, 67.2533
9.603329217, 96.390, 4570.0, 67.6018
9.629589782, 96.390, 4488.0, 66.9925
9.655850348, 96.390, 4539.0, 67.3721
9.682110913, 96.390, 4469.0, 66.8506
9.708371478, 96.390, 4420.0, 66.4831
9.734632044, 96.390, 4471.0, 66.8655
9.760892609, 96.390, 4589.0, 67.7422
9.787153175, 96.390, 4461.0, 66.7907
9.813413740, 96.390, 4576.0, 67.6461
9.839674305, 96.390, 4454.0, 66.7383
9.865934871, 96.390, 4656.0, 68.2349
9.892195436, 96.390, 4590.0, 67.7495
9.918456001, 96.390, 4617.0, 67.9485
9.944716567, 96.390, 4580.0, 67.6757
9.970977132, 96.390, 4578.0, 67.6609
9.997237697, 96.390, 4639.0, 68.1102
10.023498263, 96.390, 4743.0, 68.8694
10.049758828, 96.390, 4738.0, 68.8331
10.076019393, 96.390, 4644.0, 68.1469
10.102279959, 96.390, 4498.0, 67.0671
10.128540524, 96.390, 4652.0, 68.2056
10.154801090, 96.390, 4609.0, 67.8896
10.181061655, 96.390, 4717.0, 68.6804
10.207322220, 96.390, 4710.0, 68.6294
10.233582786, 96.390, 4752.0, 68.9348
10.259843351, 96.390, 4682.0, 68.4251
10.286103916, 96.390, 4582.0, 67.6905
10.312364482, 96.390, 4770.0, 69.0652
10.338625047, 96.390, 4759.0, 68.9855
10.364885612, 96.390, 4594.0, 67.7791
10.391146178, 96.390, 4616.0, 67.9412
10.417406743, 96.390, 4638.0, 68.1029
10.443667308, 96.390, 4662.0, 68.2788
10.469927874, 96.390, 4633.0, 68.0661
10.496188439, 96.390, 4787.0, 69.1881
10.522449004, 96.390, 4725.0, 68.7386
10.548709570, 96.390, 4702.0, 68.5711
10.574970135, 96.390, 4727.0, 68.7532
10.601230701, 96.390, 4633.0, 68.0661
10.627491266, 96.390, 4733.0, 68.7968
10.653751831, 96.390, 4690.0, 68.4836
10.680012397, 96.390, 4769.0, 69.0579
10.706272962, 96.390, 4539.0, 67.3721
10.732533527, 96.390, 4675.0, 68.3740
10.758794093, 96.390, 4775.0, 69.1014
10.785054658, 96.390, 4760.0, 68.9928
10.811315223, 96.390, 4650.0, 68.1909
10.837575789, 96.390, 4625.0, 68.0074
10.863836354, 96.390, 4663.0, 68.2862
10.890096919, 96.390, 4632.0, 68.0588
10.916357485, 96.390, 4622.0, 67.9853
10.942618050, 96.390, 4667.0, 68.3154
10.968878616, 96.390, 4682.0, 68.4251
10.995139181, 96.390, 4689.0, 68.4763
11.021399746, 96.390, 4715.0, 68.6659
11.047660312, 96.390, 4575.0, 67.6387
11.073920877, 96.390, 4703.0, 68.5784
11.100181442, 96.390, 4638.0, 68.1029
11.126442008, 96.390, 4481.0, 66.9403
11.152702573, 96.390, 4532.0, 67.3201
11.178963138, 96.390, 4586.0, 67.7200
11.205223704, 96.390, 4548.0, 67.4389
11.231484269, 96.390, 4382.0, 66.1967
11.257744834, 96.390, 4601.0, 67.8307
11.284005400, 96.390, 4505.0, 67.1193
11.310265965, 96.390, 4398.0, 66.3174
11.336526530, 96.390, 4356.0, 66.0000
11.362787096, 96.390, 4364.0, 66.0606
11.389047661, 96.390, 4412.0, 66.4229
11.415308227, 96.390, 4253.0, 65.2150
11.441568792, 96.390, 4275.0, 65.3835
11.467829357, 96.390, 4216.0, 64.9307
11.494089923, 96.390, 4293.0, 65.5210
11.520350488, 96.390, 4155.0, 64.4593
11.546611053, 96.390, 4195.0, 64.7688
11.572871619, 96.390, 4173.0, 64.5988
11.599132184, 96.390, 4131.0, 64.2729
11.625392749, 96.390, 4073.0, 63.8201
11.651653315, 96.390, 4170.0, 64.5755
11.677913880, 96.390, 4046.0, 63.6082
11.704174445, 96.390, 3967.0, 62.9841
11.730435011, 96.390, 3895.0, 62.4099
11.756695576, 96.390, 3968.0, 62.9921
11.782956141, 96.390, 3971.0, 63.0159
11.809216707, 96.390, 3988.0, 63.1506
11.835477272, 96.390, 3783.0, 61.5061
11.861737838, 96.390, 3827.0, 61.8628
11.887998403, 96.390, 3886.0, 62.3378
11.914258968, 96.390, 3730.0, 61.0737
11.940519534, 96.390, 3754.0, 61.2699
11.966780099, 96.390, 3698.0, 60.8112
11.993040664, 96.390, 3730.0, 61.0737
12.019301230, 96.390, 3626.0, 60.2163
12.045561795, 96.390, 3652.0, 60.4318
12.071822360, 96.390, 3567.0, 59.7244
12.098082926, 96.390, 3637.0, 60.3075
12.124343491, 96.390, 3549.0, 59.5735
12.150604056, 96.390, 3606.0, 60.0500
12.176864622, 96.390, 3548.0, 59.5651
12.203125187, 96.390, 3472.0, 58.9237
12.229385753, 96.390, 3446.0, 58.7026
12.255646318, 96.390, 3422.0, 58.4979
12.281906883, 96.390, 3368.0, 58.0345
12.308167449, 96.390, 3414.0, 58.4294
12.334428014, 96.390, 3390.0, 58.2237
12.360688579, 96.390, 3306.0, 57.4978
12.386949145, 96.390, 3354.0, 57.9137
12.413209710, 96.390, 3321.0, 57.6281
12.439470275, 96.390, 3228.0, 56.8155
12.465730841, 96.390, 3207.0, 56.6304
12.491991406, 96.390, 3307.0, 57.5065
12.518251971, 96.390, 3241.0, 56.9298
12.544512537, 96.390, 3229.0, 56.8243
12.570773102, 96.390, 3182.0, 56.4092
12.597033667, 96.390, 3133.0, 55.9732
12.623294233, 96.390, 3181.0, 56.4004
12.649554798, 96.390, 3126.0, 55.9106
12.675815364, 96.390, 3049.0, 55.2178
12.702075929, 96.390, 3070.0, 55.4076
12.728336494, 96.390, 2957.0, 54.3783
12.754597060, 96.390, 3064.0, 55.3534
12.780857625, 96.390, 2981.0, 54.5985
12.807118190, 96.390, 3045.0, 55.1815
12.833378756, 96.390, 3020.0, 54.9545
12.859639321, 96.390, 2908.0, 53.9259
12.885899886, 96.390, 2937.0, 54.1941
12.912160452, 96.390, 2858.0, 53.4603
12.938421017, 96.390, 2931.0, 54.1387
12.964681582, 96.390, 2845.0, 53.3385
12.990942148, 96.390, 2870.0, 53.5724
13.017202713, 96.390, 2912.0, 53.9630
13.043463279, 96.390, 2735.0, 52.2972
13.069723844, 96.390, 2760.0, 52.5357
13.095984409, 96.390, 2775.0, 52.6783
13.122244975, 96.390, 2714.0, 52.0961
13.148505540, 96.390, 2646.0, 51.4393
13.174766105, 96.390, 2744.0, 52.3832
13.201026671, 96.390, 2735.0, 52.2972
13.227287236, 96.390, 2709.0, 52.0481
13.253547801, 96.390, 2742.0, 52.3641
13.279808367, 96.390, 2716.0, 52.1153
13.306068932, 96.390, 2623.0, 51.2152
13.332329497, 96.390, 2603.0, 51.0196
13.358590063, 96.390, 2634.0, 51.3225
13.384850628, 96.390, 2596.0, 50.9510
13.411111193, 96.390, 2660.0, 51.5752
13.437371759, 96.390, 2643.0, 51.4101
13.463632324, 96.390, 2553.0, 50.5272
13.489892890, 96.390, 2655.0, 51.5267
13.516153455, 96.390, 2564.0, 50.6360
13.542414020, 96.390, 2542.0, 50.4183
13.568674586, 96.390, 2629.0, 51.2738
13.594935151, 96.390, 2593.0, 50.9215
13.621195716, 96.390, 2587.0, 50.8626
13.647456282, 96.390, 2507.0, 50.0700
13.673716847, 96.390, 2495.0, 49.9500
13.699977412, 96.390, 2569.0, 50.6853
13.726237978, 96.390, 2410.0, 49.0918
13.752498543, 96.390, 2535.0, 50.3488
13.778759108, 96.390, 2559.0, 50.5866
13.805019674, 96.390, 2482.0, 49.8197
13.831280239, 96.390, 2470.0, 49.6991
13.857540805, 96.390, 2387.0, 48.8569
13.883801370, 96.390, 2434.0, 49.3356
13.910061935, 96.390, 2458.0, 49.5782
13.936322501, 96.390, 2496.0, 49.9600
13.962583066, 96.390, 2469.0, 49.6890
13.988843631, 96.390, 2418.0, 49.1732
14.015104197, 96.390, 2347.0, 48.4458
14.041364762, 96.390, 2426.0, 49.2544
14.067625327, 96.390, 2384.0, 48.8262
14.093885893, 96.390, 2412.0, 49.1121
14.120146458, 96.390, 2407.0, 49.0612
14.146407023, 96.390, 2403.0, 49.0204
14.172667589, 96.390, 2363.0, 48.6107
14.198928154, 96.390, 2299.0, 47.9479
14.225188719, 96.390, 2344.0, 48.4149
14.251449285, 96.390, 2344.0, 48.4149
14.277709850, 96.390, 2363.0, 48.6107
14.303970416, 96.390, 2311.0, 48.0729
14.330230981, 96.390, 2404.0, 49.0306
14.356491546, 96.390, 2311.0, 48.0729
14.382752112, 96.390, 2286.0, 47.8121
14.409012677, 96.390, 2320.0, 48.1664
14.435273242, 96.390, 2356.0, 48.5386
14.461533808, 96.390, 2334.0, 48.3115
14.487794373, 96.390, 2238.0, 47.3075
14.514054938, 96.390, 2333.0, 48.3011
14.540315504, 96.390, 2323.0, 48.1975
14.566576069, 96.390, 2302.0, 47.9792
14.592836634, 96.390, 2367.0, 48.6518
14.619097200, 96.390, 2219.0, 47.1063
14.645357765, 96.390, 2301.0, 47.9687
14.671618331, 96.390, 2284.0, 47.7912
14.697878896, 96.390, 2259.0, 47.5289
14.724139461, 96.390, 2265.0, 47.5920
14.750400027, 96.390, 2256.0, 47.4974
14.776660592, 96.390, 2313.0, 48.0937
14.802921157, 96.390, 2232.0, 47.2440
14.829181723, 96.390, 2207.0, 46.9787
14.855442288, 96.390, 2198.0, 46.8828
14.881702853, 96.390, 2197.0, 46.8722
14.907963419, 96.390, 2201.0, 46.9148
14.934223984, 96.390, 2094.0, 45.7602
14.960484549, 96.390, 2133.0, 46.1844
14.986745115, 96.390, 2162.0, 46.4973
15.013005680, 96.390, 2183.0, 46.7226
15.039266245, 96.390, 2199.0, 46.8935
15.065526811, 96.390, 2247.0, 47.4025
15.091787376, 96.390, 2102.0, 45.8476
15.118047942, 96.390, 2105.0, 45.8803
15.144308507, 96.390, 2195.0, 46.8508
15.170569072, 96.390, 2175.0, 46.6369
15.196829638, 96.390, 2182.0, 46.7119
15.223090203, 96.390, 2233.0, 47.2546
15.249350768, 96.390, 2163.0, 46.5081
15.275611334, 96.390, 2114.0, 45.9783
15.301871899, 96.390, 2163.0, 46.5081
15.328132464, 96.390, 2081.0, 45.6180
15.354393030, 96.390, 2112.0, 45.9565
15.380653595, 96.390, 2099.0, 45.8148
15.406914160, 96.390, 2159.0, 46.4650
15.433174726, 96.390, 2154.0, 46.4112
15.459435291, 96.390, 2060.0, 45.3872
15.485695857, 96.390, 2030.0, 45.0555
15.511956422, 96.390, 2086.0, 45.6727
15.538216987, 96.390, 2186.0, 46.7547
15.564477553, 96.390, 2117.0, 46.0109
15.590738118, 96.390, 2129.0, 46.1411
15.616998683, 96.390, 2155.0, 46.4220
15.643259249, 96.390, 2073.0, 45.5302
15.669519814, 96.390, 2143.0, 46.2925
15.695780379, 96.390, 2121.0, 46.0543
15.722040945, 96.390, 2058.0, 45.3652
15.748301510, 96.390, 2051.0, 45.2880
15.774562075, 96.390, 2120.0, 46.0435
15.800822641, 96.390, 2161.0, 46.4866
15.827083206, 96.390, 2097.0, 45.7930
15.853343771, 96.390, 2111.0, 45.9456
15.879604337, 96.390, 2113.0, 45.9674
15.905864902, 96.390, 2087.0, 45.6837
15.932125468, 96.390, 2041.0, 45.1774
15.958386033, 96.390, 2053.0, 45.3100
15.984646598, 96.390, 1984.0, 44.5421
16.010907164, 96.390, 2088.0, 45.6946
16.037167729, 96.390, 2023.0, 44.9778
16.063428294, 96.390, 2085.0, 45.6618
16.089688860, 96.390, 2084.0, 45.6508
16.115949425, 96.390, 1987.0, 44.5758
16.142209990, 96.390, 2025.0, 45.0000
16.168470556, 96.390, 2035.0, 45.1110
16.194731121, 96.390, 2000.0, 44.7214
16.220991686, 96.390, 2043.0, 45.1996
16.247252252, 96.390, 2010.0, 44.8330
16.273512817, 96.390, 2074.0, 45.5412
16.299773382, 96.390, 2036.0, 45.1221
16.326033948, 96.390, 2066.0, 45.4533
16.352294513, 96.390, 2016.0, 44.8999
16.378555079, 96.390, 2084.0, 45.6508
16.404815644, 96.390, 2058.0, 45.3652
16.431076209, 96.390, 2078.0, 45.5851
16.457336775, 96.390, 2082.0, 45.6289
16.483597340, 96.390, 2006.0, 44.7884
16.509857905, 96.390, 2041.0, 45.1774
16.536118471, 96.390, 2072.0, 45.5192
16.562379036, 96.390, 2063.0, 45.4203
16.588639601, 96.390, 2072.0, 45.5192
16.614900167, 96.390, 2011.0, 44.8442
16.641160732, 96.390, 2076.0, 45.5631
16.667421297, 96.390, 2070.0, 45.4973
16.693681863, 96.390, 2049.0, 45.2659
16.719942428, 96.390, 2003.0, 44.7549
16.746202994, 96.390, 2021.0, 44.9555
16.772463559, 96.390, 1998.0, 44.6990
16.798724124, 96.390, 2037.0, 45.1331
16.824984690, 96.390, 2024.0, 44.9889
16.851245255, 96.390, 2025.0, 45.0000
16.877505820, 96.390, 2056.0, 45.3431
16.903766386, 96.390, 1930.0, 43.9318
16.930026951, 96.390, 2056.0, 45.3431
16.956287516, 96.390, 1979.0, 44.4860
16.982548082, 96.390, 2057.0, 45.3542
17.008808647, 96.390, 1914.0, 43.7493
17.035069212, 96.390, 2002.0, 44.7437
17.061329778, 96.390, 1969.0, 44.3734
17.087590343, 96.390, 2052.0, 45.2990
17.113850908, 96.390, 2033.0, 45.0888
17.140111474, 96.390, 2045.0, 45.2217
17.166372039, 96.390, 1937.0, 44.0114
17.192632605, 96.390, 2033.0, 45.0888
17.218893170, 96.390, 2009.0, 44.8219
17.245153735, 96.390, 1989.0, 44.5982
17.271414301, 96.390, 1948.0, 44.1362
17.297674866, 96.390, 2005.0, 44.7772
17.323935431, 96.390, 1971.0, 44.3959
17.350195997, 96.390, 2012.0, 44.8553
17.376456562, 96.390, 1988.0, 44.5870
17.402717127, 96.390, 2043.0, 45.1996
17.428977693, 96.390, 1949.0, 44.1475
17.455238258, 96.390, 1958.0, 44.2493
17.481498823, 96.390, 2009.0, 44.8219
17.507759389, 96.390, 1968.0, 44.3621
17.534019954, 96.390, 1945.0, 44.1022
17.560280520, 96.390, 1946.0, 44.1135
17.586541085, 96.390, 2053.0, 45.3100
17.612801650, 96.390, 1983.0, 44.5309
17.639062216, 96.390, 2002.0, 44.7437
17.665322781, 96.390, 2004.0, 44.7661
17.691583346, 96.390, 2006.0, 44.7884
17.717843912, 96.390, 1954.0, 44.2041
17.744104477, 96.390, 2055.0, 45.3321
17.770365042, 96.390, 1968.0, 44.3621
17.796625608, 96.390, 1993.0, 44.6430
17.822886173, 96.390, 2029.0, 45.0444
17.849146738, 96.390, 1987.0, 44.5758
17.875407304, 96.390, 2079.0, 45.5961
17.901667869, 96.390, 1992.0, 44.6318
17.927928434, 96.390, 1965.0, 44.3283
17.954189000, 96.390, 2024.0, 44.9889
17.980449565, 96.390, 1954.0, 44.2041
18.006710131, 96.390, 1971.0, 44.3959
18.032970696, 96.390, 2002.0, 44.7437
18.059231261, 96.390, 1962.0, 44.2945
18.085491827, 96.390, 2036.0, 45.1221
18.111752392, 96.390, 2056.0, 45.3431
18.138012957, 96.390, 1946.0, 44.1135
18.164273523, 96.390, 2065.0, 45.4423
18.190534088, 96.390, 2017.0, 44.9110
18.216794653, 96.390, 1956.0, 44.2267
18.243055219, 96.390, 2042.0, 45.1885
18.269315784, 96.390, 2001.0, 44.7325
18.295576349, 96.390, 2031.0, 45.0666
18.321836915, 96.390, 2040.0, 45.1664
18.348097480, 96.390, 2061.0, 45.3982
18.374358046, 96.390, 2029.0, 45.0444
18.400618611, 96.390, 2000.0, 44.7214
18.426879176, 96.390, 2021.0, 44.9555
18.453139742, 96.390, 2023.0, 44.9778
18.479400307, 96.390, 2014.0, 44.8776
18.505660872, 96.390, 2059.0, 45.3762
18.531921438, 96.390, 2089.0, 45.7056
18.558182003, 96.390, 2002.0, 44.7437
18.584442568, 96.390, 2037.0, 45.1331
18.610703134, 96.390, 2041.0, 45.1774
18.636963699, 96.390, 2032.0, 45.0777
18.663224264, 96.390, 2073.0, 45.5302
18.689484830, 96.390, 2048.0, 45.2548
18.715745395, 96.390, 2001.0, 44.7325
18.742005960, 96.390, 2069.0, 45.4863
18.768266526, 96.390, 2024.0, 44.9889
18.794527091, 96.390, 2065.0, 45.4423
18.820787657, 96.390, 2082.0, 45.6289
18.847048222, 96.390, 2072.0, 45.5192
18.873308787, 96.390, 1986.0, 44.5646
18.899569353, 96.390, 1984.0, 44.5421
18.925829918, 96.390, 2078.0, 45.5851
18.952090483, 96.390, 2037.0, 45.1331
18.978351049, 96.390, 2058.0, 45.3652
19.004611614, 96.390, 2053.0, 45.3100
19.030872179, 96.390, 2118.0, 46.0217
19.057132745, 96.390, 2161.0, 46.4866
19.083393310, 96.390, 2066.0, 45.4533
19.109653875, 96.390, 2207.0, 46.9787
19.135914441, 96.390, 2095.0, 45.7712
19.162175006, 96.390, 2015.0, 44.8888
19.188435572, 96.390, 2010.0, 44.8330
19.214696137, 96.390, 2126.0, 46.1086
19.240956702, 96.390, 2092.0, 45.7384
19.267217268, 96.390, 2123.0, 46.0760
19.293477833, 96.390, 1973.0, 44.4185
19.319738398, 96.390, 2086.0, 45.6727
19.345998964, 96.390, 2082.0, 45.6289
19.372259529, 96.390, 2041.0, 45.1774
19.398520094, 96.390, 2062.0, 45.4093
19.424780660, 96.390, 2158.0, 46.4543
19.451041225, 96.390, 2059.0, 45.3762
19.477301790, 96.390, 2029.0, 45.0444
19.503562356, 96.390, 2068.0, 45.4753
19.529822921, 96.390, 2134.0, 46.1952
19.556083486, 96.390, 2175.0, 46.6369
19.582344052, 96.390, 2162.0, 46.4973
19.608604617, 96.390, 2177.0, 46.6583
19.634865183, 96.390, 2128.0, 46.1303
19.661125748, 96.390, 2158.0, 46.4543
19.687386313, 96.390, 2127.0, 46.1194
19.713646879, 96.390, 2177.0, 46.6583
19.739907444, 96.390, 2140.0, 46.2601
19.766168009, 96.390, 2206.0, 46.9681
19.792428575, 96.390, 2232.0, 47.2440
19.818689140, 96.390, 2133.0, 46.1844
19.844949705, 96.390, 2187.0, 46.7654
19.871210271, 96.390, 2093.0, 45.7493
19.897470836, 96.390, 2229.0, 47.2123
19.923731401, 96.390, 2147.0, 46.3357
19.949991967, 96.390, 2159.0, 46.4650
19.976252532, 96.390, 2140.0, 46.2601
20.002513097, 96.390, 2166.0, 46.5403
20.028773663, 96.390, 2225.0, 47.1699
20.055034228, 96.390, 2104.0, 45.8694
20.081294794, 96.390, 2259.0, 47.5289
20.107555359, 96.390, 2193.0, 46.8295
20.133815924, 96.390, 2249.0, 47.4236
20.160076490, 96.390, 2204.0, 46.9468
20.186337055, 96.390, 2263.0, 47.5710
20.212597620, 96.390, 2155.0, 46.4220
20.238858186, 96.390, 2209.0, 47.0000
20.265118751, 96.390, 2208.0, 46.9894
20.291379316, 96.390, 2257.0, 47.5079
20.317639882, 96.390, 2285.0, 47.8017
20.343900447, 96.390, 2198.0, 46.8828
20.370161012, 96.390, 2245.0, 47.3814
20.396421578, 96.390, 2312.0, 48.0833
20.422682143, 96.390, 2274.0, 47.6865
20.448942709, 96.390, 2303.0, 47.9896
20.475203274, 96.390, 2406.0, 49.0510
20.501463839, 96.390, 2228.0, 47.2017
20.527724405, 96.390, 2383.0, 48.8160
20.553984970, 96.390, 2289.0, 47.8435
20.580245535, 96.390, 2372.0, 48.7032
20.606506101, 96.390, 2393.0, 48.9183
20.632766666, 96.390, 2416.0, 49.1528
20.659027231, 96.390, 2310.0, 48.0625
20.685287797, 96.390, 2474.0, 49.7393
20.711548362, 96.390, 2345.0, 48.4252
20.737808927, 96.390, 2397.0, 48.9592
20.764069493, 96.390, 2475.0, 49.7494
20.790330058, 96.390, 2441.0, 49.4065
20.816590623, 96.390, 2399.0, 48.9796
20.842851189, 96.390, 2339.0, 48.3632
20.869111754, 96.390, 2332.0, 48.2908
20.895372320, 96.390, 2395.0, 48.9387
20.921632885, 96.390, 2364.0, 48.6210
20.947893450, 96.390, 2327.0, 48.2390
20.974154016, 96.390, 2424.0, 49.2341
21.000414581, 96.390, 2498.0, 49.9800
21.026675146, 96.390, 2375.0, 48.7340
21.052935712, 96.390, 2403.0, 49.0204
21.079196277, 96.390, 2422.0, 49.2138
21.105456842, 96.390, 2403.0, 49.0204
21.131717408, 96.390, 2387.0, 48.8569
21.157977973, 96.390, 2443.0, 49.4267
21.184238538, 96.390, 2537.0, 50.3686
21.210499104, 96.390, 2447.0, 49.4672
21.236759669, 96.390, 2550.0, 50.4975
21.263020235, 96.390, 2445.0, 49.4469
21.289280800, 96.390, 2485.0, 49.8498
21.315541365, 96.390, 2449.0, 49.4874
21.341801931, 96.390, 2527.0, 50.2693
21.368062496, 96.390, 2489.0, 49.8899
21.394323061, 96.390, 2516.0, 50.1597
21.420583627, 96.390, 2432.0, 49.3153
21.446844192, 96.390, 2454.0, 49.5379
21.473104757, 96.390, 2451.0, 49.5076
21.499365323, 96.390, 2463.0, 49.6286
21.525625888, 96.390, 2469.0, 49.6890
21.551886453, 96.390, 2445.0, 49.4469
21.578147019, 96.390, 2515.0, 50.1498
21.604407584, 96.390, 2531.0, 50.3090
21.630668149, 96.390, 2519.0, 50.1896
21.656928715, 96.390, 2497.0, 49.9700
21.683189280, 96.390, 2500.0, 50.0000
21.709449846, 96.390, 2498.0, 49.9800
21.735710411, 96.390, 2558.0, 50.5767
21.761970976, 96.390, 2496.0, 49.9600
21.788231542, 96.390, 2522.0, 50.2195
21.814492107, 96.390, 2626.0, 51.2445
21.840752672, 96.390, 2670.0, 51.6720
21.867013238, 96.390, 2556.0, 50.5569
21.893273803, 96.390, 2487.0, 49.8698
21.919534368, 96.390, 2579.0, 50.7839
21.945794934, 96.390, 2536.0, 50.3587
21.972055499, 96.390, 2647.0, 51.4490
21.998316064, 96.390, 2617.0, 51.1566
22.024576630, 96.390, 2613.0, 51.1175
22.050837195, 96.390, 2605.0, 51.0392
22.077097761, 96.390, 2577.0, 50.7642
22.103358326, 96.390, 2609.0, 51.0784
22.129618891, 96.390, 2678.0, 51.7494
22.155879457, 96.390, 2596.0, 50.9510
22.182140022, 96.390, 2612.0, 51.1077
22.208400587, 96.390, 2656.0, 51.5364
22.234661153, 96.390, 2493.0, 49.9300
22.260921718, 96.390, 2611.0, 51.0979
22.287182283, 96.390, 2691.0, 51.8748
22.313442849, 96.390, 2608.0, 51.0686
22.339703414, 96.390, 2671.0, 51.6817
22.365963979, 96.390, 2534.0, 50.3389
22.392224545, 96.390, 2573.0, 50.7247
22.418485110, 96.390, 2631.0, 51.2933
22.444745675, 96.390, 2577.0, 50.7642
22.471006241, 96.390, 2607.0, 51.0588
22.497266806, 96.390, 2561.0, 50.6063
22.523527372, 96.390, 2668.0, 51.6527
22.549787937, 96.390, 2550.0, 50.4975
22.576048502, 96.390, 2538.0, 50.3786
22.602309068, 96.390, 2572.0, 50.7149
22.628569633, 96.390, 2579.0, 50.7839
22.654830198, 96.390, 2594.0, 50.9313
22.681090764, 96.390, 2575.0, 50.7445
22.707351329, 96.390, 2548.0, 50.4777
22.733611894, 96.390, 2511.0, 50.1099
22.759872460, 96.390, 2565.0, 50.6458
22.786133025, 96.390, 2541.0, 50.4083
22.812393590, 96.390, 2520.0, 50.1996
22.838654156, 96.390, 2605.0, 51.0392
22.864914721, 96.390, 2522.0, 50.2195
22.891175287, 96.390, 2507.0, 50.0700
22.917435852, 96.390, 2513.0, 50.1298
22.943696417, 96.390, 2501.0, 50.0100
22.969956983, 96.390, 2484.0, 49.8397
22.996217548, 96.390, 2497.0, 49.9700
23.022478113, 96.390, 2533.0, 50.3289
23.048738679, 96.390, 2555.0, 50.5470
23.074999244, 96.390, 2412.0, 49.1121
23.101259809, 96.390, 2446.0, 49.4571
23.127520375, 96.390, 2546.0, 50.4579
23.153780940, 96.390, 2493.0, 49.9300
23.180041505, 96.390, 2481.0, 49.8096
23.206302071, 96.390, 2487.0, 49.8698
23.232562636, 96.390, 2464.0, 49.6387
23.258823201, 96.390, 2298.0, 47.9375
23.285083767, 96.390, 2381.0, 48.7955
23.311344332, 96.390, 2407.0, 49.0612
23.337604898, 96.390, 2403.0, 49.0204
23.363865463, 96.390, 2492.0, 49.9199
23.390126028, 96.390, 2276.0, 47.7074
23.416386594, 96.390, 2360.0, 48.5798
23.442647159, 96.390, 2317.0, 48.1352
23.468907724, 96.390, 2374.0, 48.7237
23.495168290, 96.390, 2422.0, 49.2138
23.521428855, 96.390, 2391.0, 48.8979
23.547689420, 96.390, 2297.0, 47.9270
23.573949986, 96.390, 2298.0, 47.9375
23.600210551, 96.390, 2397.0, 48.9592
23.626471116, 96.390, 2378.0, 48.7647
23.652731682, 96.390, 2297.0, 47.9270
23.678992247, 96.390, 2269.0, 47.6340
23.705252813, 96.390, 2258.0, 47.5184
23.731513378, 96.390, 2311.0, 48.0729
23.757773943, 96.390, 2346.0, 48.4355
23.784034509, 96.390, 2266.0, 47.6025
23.810295074, 96.390, 2217.0, 47.0850
23.836555639, 96.390, 2203.0, 46.9361
23.862816205, 96.390, 2201.0, 46.9148
23.889076770, 96.390, 2306.0, 48.0208
23.915337335, 96.390, 2236.0, 47.2864
23.941597901, 96.390, 2195.0, 46.8508
23.967858466, 96.390, 2233.0, 47.2546
23.994119031, 96.390, 2207.0, 46.9787
24.020379597, 96.390, 2216.0, 47.0744
24.046640162, 96.390, 2286.0, 47.8121
24.072900727, 96.390, 2196.0, 46.8615
24.099161293, 96.390, 2211.0, 47.0213
24.125421858, 96.390, 2213.0, 47.0425
24.151682424, 96.390, 2188.0, 46.7761
24.177942989, 96.390, 2156.0, 46.4327
24.204203554, 96.390, 2049.0, 45.2659
24.230464120, 96.390, 2130.0, 46.1519
24.256724685, 96.390, 2160.0, 46.4758
24.282985250, 96.390, 2159.0, 46.4650
24.309245816, 96.390, 2121.0, 46.0543
24.335506381, 96.390, 2173.0, 46.6154
24.361766946, 96.390, 2179.0, 46.6798
24.388027512, 96.390, 2113.0, 45.9674
24.414288077, 96.390, 2201.0, 46.9148
24.440548642, 96.390, 2079.0, 45.5961
24.466809208, 96.390, 2144.0, 46.3033
24.493069773, 96.390, 2078.0, 45.5851
24.519330338, 96.390, 2041.0, 45.1774
24.545590904, 96.390, 2132.0, 46.1736
24.571851469, 96.390, 2095.0, 45.7712
24.598112035, 96.390, 2062.0, 45.4093
24.624372600, 96.390, 2152.0, 46.3897
24.650633165, 96.390, 2119.0, 46.0326
24.676893731, 96.390, 2098.0, 45.8039
24.703154296, 96.390, 2166.0, 46.5403
24.729414861, 96.390, 2092.0, 45.7384
24.755675427, 96.390, 2109.0, 45.9239
24.781935992, 96.390, 2116.0, 46.0000
24.808196557, 96.390, 2037.0, 45.1331
24.834457123, 96.390, 2034.0, 45.0999
24.860717688, 96.390, 2083.0, 45.6399
24.886978253, 96.390, 2046.0, 45.2327
24.913238819, 96.390, 2012.0, 44.8553
24.939499384, 96.390, 2043.0, 45.1996
24.965759950, 96.390, 2067.0, 45.4643
24.992020515, 96.390, 1991.0, 44.6206
25.018281080, 96.390, 1969.0, 44.3734
25.044541646, 96.390, 2016.0, 44.8999
25.070802211, 96.390, 2025.0, 45.0000
25.097062776, 96.390, 2096.0, 45.7821
25.123323342, 96.390, 2020.0, 44.9444
25.149583907, 96.390, 2058.0, 45.3652
25.175844472, 96.390, 2034.0, 45.0999
25.202105038, 96.390, 2073.0, 45.5302
25.228365603, 96.390, 2112.0, 45.9565
25.254626168, 96.390, 2009.0, 44.8219
25.280886734, 96.390, 2033.0, 45.0888
25.307147299, 96.390, 2007.0, 44.7996
25.333407864, 96.390, 1985.0, 44.5533
25.359668430, 96.390, 2076.0, 45.5631
25.385928995, 96.390, 1911.0, 43.7150
25.412189561, 96.390, 1909.0, 43.6921
25.438450126, 96.390, 1966.0, 44.3396
25.464710691, 96.390, 2025.0, 45.0000
25.490971257, 96.390, 2000.0, 44.7214
25.517231822, 96.390, 2009.0, 44.8219
25.543492387, 96.390, 2048.0, 45.2548
25.569752953, 96.390, 1957.0, 44.2380
25.596013518, 96.390, 1948.0, 44.1362
25.622274083, 96.390, 1994.0, 44.6542
25.648534649, 96.390, 1995.0, 44.6654
25.674795214, 96.390, 1923.0, 43.8520
25.701055779, 96.390, 1889.0, 43.4626
25.727316345, 96.390, 2001.0, 44.7325
25.753576910, 96.390, 1955.0, 44.2154
25.779837476, 96.390, 1951.0, 44.1701
25.806098041, 96.390, 1884.0, 43.4051
25.832358606, 96.390, 1869.0, 43.2319
25.858619172, 96.390, 1984.0, 44.5421
25.884879737, 96.390, 1928.0, 43.9090
25.911140302, 96.390, 1887.0, 43.4396
25.937400868, 96.390, 1919.0, 43.8064
25.963661433, 96.390, 1982.0, 44.5197
25.989921998, 96.390, 1992.0, 44.6318
26.016182564, 96.390, 1946.0, 44.1135
26.042443129, 96.390, 1916.0, 43.7721
26.068703694, 96.390, 1955.0, 44.2154
26.094964260, 96.390, 1931.0, 43.9431
26.121224825, 96.390, 1934.0, 43.9773
26.147485390, 96.390, 1932.0, 43.9545
26.173745956, 96.390, 1949.0, 44.1475
26.200006521, 96.390, 1934.0, 43.9773
26.226267087, 96.390, 1955.0, 44.2154
26.252527652, 96.390, 2021.0, 44.9555
26.278788217, 96.390, 1940.0, 44.0454
26.305048783, 96.390, 1935.0, 43.9886
26.331309348, 96.390, 1875.0, 43.3013
26.357569913, 96.390, 1879.0, 43.3474
26.383830479, 96.390, 1977.0, 44.4635
26.410091044, 96.390, 1825.0, 42.7200
26.436351609, 96.390, 1891.0, 43.4856
26.462612175, 96.390, 1888.0, 43.4511
26.488872740, 96.390, 1925.0, 43.8748
26.515133305, 96.390, 1831.0, 42.7902
26.541393871, 96.390, 1879.0, 43.3474
26.567654436, 96.390, 1852.0, 43.0349
26.593915002, 96.390, 1971.0, 44.3959
26.620175567, 96.390, 1914.0, 43.7493
26.646436132, 96.390, 1914.0, 43.7493
26.672696698, 96.390, 1958.0, 44.2493
26.698957263, 96.390, 1917.0, 43.7836
26.725217828, 96.390, 1970.0, 44.3847
26.751478394, 96.390, 1892.0, 43.4971
26.777738959, 96.390, 1952.0, 44.1814
26.803999524, 96.390, 1971.0, 44.3959
26.830260090, 96.390, 1844.0, 42.9418
26.856520655, 96.390, 1816.0, 42.6146
26.882781220, 96.390, 1908.0, 43.6807
26.909041786, 96.390, 1903.0, 43.6234
26.935302351, 96.390, 1831.0, 42.7902
26.961562916, 96.390, 1899.0, 43.5775
26.987823482, 96.390, 1878.0, 43.3359
27.014084047, 96.390, 1823.0, 42.6966
27.040344613, 96.390, 1908.0, 43.6807
27.066605178, 96.390, 1940.0, 44.0454
27.092865743, 96.390, 1888.0, 43.4511
27.119126309, 96.390, 1902.0, 43.6119
27.145386874, 96.390, 1920.0, 43.8178
27.171647439, 96.390, 1869.0, 43.2319
27.197908005, 96.390, 1844.0, 42.9418
27.224168570, 96.390, 1909.0, 43.6921
27.250429135, 96.390, 1894.0, 43.5201
27.276689701, 96.390, 1865.0, 43.1856
27.302950266, 96.390, 1837.0, 42.8602
27.329210831, 96.390, 1880.0, 43.3590
27.355471397, 96.390, 1911.0, 43.7150
27.381731962, 96.390, 1822.0, 42.6849
27.407992528, 96.390, 1764.0, 42.0000
27.434253093, 96.390, 1834.0, 42.8252
27.460513658, 96.390, 1868.0, 43.2204
27.486774224, 96.390, 1864.0, 43.1741
27.513034789, 96.390, 1849.0, 43.0000
27.539295354, 96.390, 1880.0, 43.3590
27.565555920, 96.390, 1835.0, 42.8369
27.591816485, 96.390, 1760.0, 41.9524
27.618077050, 96.390, 1814.0, 42.5911
27.644337616, 96.390, 1798.0, 42.4028
27.670598181, 96.390, 1855.0, 43.0697
27.696858746, 96.390, 1793.0, 42.3438
27.723119312, 96.390, 1842.0, 42.9185
27.749379877, 96.390, 1929.0, 43.9204
27.775640442, 96.390, 1940.0, 44.0454
27.801901008, 96.390, 1805.0, 42.4853
27.828161573, 96.390, 1892.0, 43.4971
27.854422139, 96.390, 1874.0, 43.2897
27.880682704, 96.390, 1880.0, 43.3590
27.906943269, 96.390, 1855.0, 43.0697
27.933203835, 96.390, 1883.0, 43.3935
27.959464400, 96.390, 1825.0, 42.7200
27.985724965, 96.390, 1811.0, 42.5558
28.011985531, 96.390, 1854.0, 43.0581
28.038246096, 96.390, 1896.0, 43.5431
28.064506661, 96.390, 1818.0, 42.6380
28.090767227, 96.390, 1833.0, 42.8135
28.117027792, 96.390, 1822.0, 42.6849
28.143288357, 96.390, 1789.0, 42.2966
28.169548923, 96.390, 1817.0, 42.6263
28.195809488, 96.390, 1865.0, 43.1856
28.222070054, 96.390, 1833.0, 42.8135
28.248330619, 96.390, 1811.0, 42.5558
28.274591184, 96.390, 1806.0, 42.4971
28.300851750, 96.390, 1898.0, 43.5660
28.327112315, 96.390, 1804.0, 42.4735
28.353372880, 96.390, 1884.0, 43.4051
28.379633446, 96.390, 1831.0, 42.7902
28.405894011, 96.390, 1842.0, 42.9185
28.432154576, 96.390, 1853.0, 43.0465
28.458415142, 96.390, 1910.0, 43.7035
28.484675707, 96.390, 1849.0, 43.0000
28.510936272, 96.390, 1807.0, 42.5088
28.537196838, 96.390, 1877.0, 43.3244
28.563457403, 96.390, 1779.0, 42.1782
28.589717968, 96.390, 1827.0, 42.7434
28.615978534, 96.390, 1837.0, 42.8602
28.642239099, 96.390, 1865.0, 43.1856
28.668499665, 96.390, 1876.0, 43.3128
28.694760230, 96.390, 1863.0, 43.1625
28.721020795, 96.390, 1887.0, 43.4396
28.747281361, 96.390, 1846.0, 42.9651
28.773541926, 96.390, 1800.0, 42.4264
28.799802491, 96.390, 1874.0, 43.2897
28.826063057, 96.390, 1806.0, 42.4971
28.852323622, 96.390, 1813.0, 42.5793
28.878584187, 96.390, 1832.0, 42.8019
28.904844753, 96.390, 1869.0, 43.2319
28.931105318, 96.390, 1905.0, 43.6463
28.957365883, 96.390, 1857.0, 43.0929
28.983626449, 96.390, 1868.0, 43.2204
29.009887014, 96.390, 1901.0, 43.6005
29.036147579, 96.390, 1827.0, 42.7434
29.062408145, 96.390, 1861.0, 43.1393
29.088668710, 96.390, 1801.0, 42.4382
29.114929276, 96.390, 1808.0, 42.5206
29.141189841, 96.390, 1902.0, 43.6119
29.167450406, 96.390, 1885.0, 43.4166
29.193710972, 96.390, 1865.0, 43.1856
29.219971537, 96.390, 1842.0, 42.9185
29.246232102, 96.390, 1922.0, 43.8406
29.272492668, 96.390, 1843.0, 42.9302
29.298753233, 96.390, 1878.0, 43.3359
29.325013798, 96.390, 1826.0, 42.7317
29.351274364, 96.390, 1793.0, 42.3438
29.377534929, 96.390, 1835.0, 42.8369
29.403795494, 96.390, 1819.0, 42.6497
29.430056060, 96.390, 1785.0, 42.2493
29.456316625, 96.390, 1883.0, 43.3935
29.482577191, 96.390, 1819.0, 42.6497
29.508837756, 96.390, 1839.0, 42.8836
29.535098321, 96.390, 1837.0, 42.8602
29.561358887, 96.390, 1850.0, 43.0116
29.587619452, 96.390, 1865.0, 43.1856
29.613880017, 96.390, 1911.0, 43.7150
29.640140583, 96.390, 1789.0, 42.2966
29.666401148, 96.390, 1807.0, 42.5088
29.692661713, 96.390, 1820.0, 42.6615
29.718922279, 96.390, 1832.0, 42.8019
29.745182844, 96.390, 1789.0, 42.2966
29.771443409, 96.390, 1851.0, 43.0232
29.797703975, 96.390, 1831.0, 42.7902
29.823964540, 96.390, 1794.0, 42.3556
29.850225105, 96.390, 1776.0, 42.1426
29.876485671, 96.390, 1785.0, 42.2493
29.902746236, 96.390, 1883.0, 43.3935
29.929006802, 96.390, 1832.0, 42.8019
29.955267367, 96.390, 1937.0, 44.0114
29.981527932, 96.390, 1818.0, 42.6380
30.007788498, 96.390, 1842.0, 42.9185
30.034049063, 96.390, 1819.0, 42.6497
30.060309628, 96.390, 1844.0, 42.9418
30.086570194, 96.390, 1805.0, 42.4853
30.112830759, 96.390, 1753.0, 41.8688
30.139091324, 96.390, 1814.0, 42.5911
30.165351890, 96.390, 1738.0, 41.6893
30.191612455, 96.390, 1831.0, 42.7902
30.217873020, 96.390, 1826.0, 42.7317
30.244133586, 96.390, 1797.0, 42.3910
30.270394151, 96.390, 1767.0, 42.0357
30.296654717, 96.390, 1778.0, 42.1663
30.322915282, 96.390, 1766.0, 42.0238
30.349175847, 96.390, 1813.0, 42.5793
30.375436413, 96.390, 1821.0, 42.6732
30.401696978, 96.390, 1793.0, 42.3438
30.427957543, 96.390, 1807.0, 42.5088
30.454218109, 96.390, 1785.0, 42.2493
30.480478674, 96.390, 1822.0, 42.6849
30.506739239, 96.390, 1796.0, 42.3792
30.532999805, 96.390, 1818.0, 42.6380
30.559260370, 96.390, 1753.0, 41.8688
30.585520935, 96.390, 1790.0, 42.3084
30.611781501, 96.390, 1804.0, 42.4735
30.638042066, 96.390, 1814.0, 42.5911
30.664302631, 96.390, 1798.0, 42.4028
30.690563197, 96.390, 1732.0, 41.6173
30.716823762, 96.390, 1795.0, 42.3674
30.743084328, 96.390, 1751.0, 41.8450
30.769344893, 96.390, 1799.0, 42.4146
30.795605458, 96.390, 1753.0, 41.8688
30.821866024, 96.390, 1810.0, 42.5441
30.848126589, 96.390, 1835.0, 42.8369
30.874387154, 96.390, 1735.0, 41.6533
30.900647720, 96.390, 1857.0, 43.0929
30.926908285, 96.390, 1726.0, 41.5452
30.953168850, 96.390, 1782.0, 42.2137
30.979429416, 96.390, 1784.0, 42.2374
31.005689981, 96.390, 1757.0, 41.9166
31.031950546, 96.390, 1762.0, 41.9762
31.058211112, 96.390, 1841.0, 42.9069
31.084471677, 96.390, 1748.0, 41.8091
31.110732243, 96.390, 1708.0, 41.3280
31.136992808, 96.390, 1797.0, 42.3910
31.163253373, 96.390, 1724.0, 41.5211
31.189513939, 96.390, 1795.0, 42.3674
31.215774504, 96.390, 1780.0, 42.1900
31.242035069, 96.390, 1759.0, 41.9404
31.268295635, 96.390, 1735.0, 41.6533
31.294556200, 96.390, 1746.0, 41.7852
31.320816765, 96.390, 1742.0, 41.7373
31.347077331, 96.390, 1711.0, 41.3642
31.373337896, 96.390, 1719.0, 41.4608
31.399598461, 96.390, 1770.0, 42.0714
31.425859027, 96.390, 1765.0, 42.0119
31.452119592, 96.390, 1799.0, 42.4146
31.478380157, 96.390, 1749.0, 41.8210
31.504640723, 96.390, 1650.0, 40.6202
31.530901288, 96.390, 1757.0, 41.9166
31.557161854, 96.390, 1776.0, 42.1426
31.583422419, 96.390, 1774.0, 42.1189
31.609682984, 96.390, 1830.0, 42.7785
31.635943550, 96.390, 1759.0, 41.9404
31.662204115, 96.390, 1701.0, 41.2432
31.688464680, 96.390, 1785.0, 42.2493
31.714725246, 96.390, 1801.0, 42.4382
31.740985811, 96.390, 1815.0, 42.6028
31.767246376, 96.390, 1698.0, 41.2068
31.793506942, 96.390, 1797.0, 42.3910
31.819767507, 96.390, 1732.0, 41.6173
31.846028072, 96.390, 1748.0, 41.8091
31.872288638, 96.390, 1784.0, 42.2374
31.898549203, 96.390, 1759.0, 41.9404
31.924809769, 96.390, 1767.0, 42.0357
31.951070334, 96.390, 1710.0, 41.3521
31.977330899, 96.390, 1827.0, 42.7434
32.003591465, 96.390, 1741.0, 41.7253
32.029852030, 96.390, 1674.0, 40.9145
32.056112595, 96.390, 1796.0, 42.3792
32.082373161, 96.390, 1763.0, 41.9881
32.108633726, 96.390, 1754.0, 41.8808
32.134894291, 96.390, 1751.0, 41.8450
32.161154857, 96.390, 1762.0, 41.9762
32.187415422, 96.390, 1716.0, 41.4246
32.213675987, 96.390, 1735.0, 41.6533
32.239936553, 96.390, 1773.0, 42.1070
32.266197118, 96.390, 1783.0, 42.2256
32.292457683, 96.390, 1728.0, 41.5692
32.318718249, 96.390, 1773.0, 42.1070
32.344978814, 96.390, 1655.0, 40.6817
32.371239380, 96.390, 1788.0, 42.2847
32.397499945, 96.390, 1846.0, 42.9651
32.423760510, 96.390, 1761.0, 41.9643
32.450021076, 96.390, 1753.0, 41.8688
32.476281641, 96.390, 1783.0, 42.2256
32.502542206, 96.390, 1776.0, 42.1426
32.528802772, 96.390, 1731.0, 41.6053
32.555063337, 96.390, 1802.0, 42.4500
32.581323902, 96.390, 1808.0, 42.5206
32.607584468, 96.390, 1825.0, 42.7200
32.633845033, 96.390, 1741.0, 41.7253
32.660105598, 96.390, 1808.0, 42.5206
32.686366164, 96.390, 1782.0, 42.2137
32.712626729, 96.390, 1812.0, 42.5676
32.738887295, 96.390, 1757.0, 41.9166
32.765147860, 96.390, 1771.0, 42.0833
32.791408425, 96.390, 1752.0, 41.8569
32.817668991, 96.390, 1817.0, 42.6263
32.843929556, 96.390, 1832.0, 42.8019
32.870190121, 96.390, 1807.0, 42.5088
32.896450687, 96.390, 1821.0, 42.6732
32.922711252, 96.390, 1715.0, 41.4126
32.948971817, 96.390, 1817.0, 42.6263
32.975232383, 96.390, 1815.0, 42.6028
33.001492948, 96.390, 1803.0, 42.4617
33.027753513, 96.390, 1802.0, 42.4500
33.054014079, 96.390, 1824.0, 42.7083
33.080274644, 96.390, 1824.0, 42.7083
33.106535209, 96.390, 1826.0, 42.7317
33.132795775, 96.390, 1784.0, 42.2374
33.159056340, 96.390, 1844.0, 42.9418
33.185316906, 96.390, 1875.0, 43.3013
33.211577471, 96.390, 1879.0, 43.3474
33.237838036, 96.390, 1880.0, 43.3590
33.264098602, 96.390, 1869.0, 43.2319
33.290359167, 96.390, 1910.0, 43.7035
33.316619732, 96.390, 1833.0, 42.8135
33.342880298, 96.390, 1919.0, 43.8064
33.369140863, 96.390, 1885.0, 43.4166
33.395401428, 96.390, 1936.0, 44.0000
33.421661994, 96.390, 1929.0, 43.9204
33.447922559, 96.390, 1872.0, 43.2666
33.474183124, 96.390, 1983.0, 44.5309
33.500443690, 96.390, 2077.0, 45.5741
33.526704255, 96.390, 2144.0, 46.3033
33.552964820, 96.390, 1982.0, 44.5197
33.579225386, 96.390, 2037.0, 45.1331
33.605485951, 96.390, 2042.0, 45.1885
33.631746517, 96.390, 2114.0, 45.9783
33.658007082, 96.390, 2070.0, 45.4973
33.684267647, 96.390, 2129.0, 46.1411
33.710528213, 96.390, 2104.0, 45.8694
33.736788778, 96.390, 2027.0, 45.0222
33.763049343, 96.390, 2095.0, 45.7712
33.789309909, 96.390, 2108.0, 45.9130
33.815570474, 96.390, 2137.0, 46.2277
33.841831039, 96.390, 2243.0, 47.3603
33.868091605, 96.390, 2242.0, 47.3498
33.894352170, 96.390, 2345.0, 48.4252
33.920612735, 96.390, 2299.0, 47.9479
33.946873301, 96.390, 2317.0, 48.1352
33.973133866, 96.390, 2316.0, 48.1248
33.999394432, 96.390, 2325.0, 48.2183
34.025654997, 96.390, 2334.0, 48.3115
34.051915562, 96.390, 2376.0, 48.7442
34.078176128, 96.390, 2410.0, 49.0918
34.104436693, 96.390, 2407.0, 49.0612
34.130697258, 96.390, 2460.0, 49.5984
34.156957824, 96.390, 2469.0, 49.6890
34.183218389, 96.390, 2495.0, 49.9500
34.209478954, 96.390, 2599.0, 50.9804
34.235739520, 96.390, 2628.0, 51.2640
34.262000085, 96.390, 2515.0, 50.1498
34.288260650, 96.390, 2528.0, 50.2792
34.314521216, 96.390, 2551.0, 50.5074
34.340781781, 96.390, 2522.0, 50.2195
34.367042346, 96.390, 2556.0, 50.5569
34.393302912, 96.390, 2510.0, 50.0999
34.419563477, 96.390, 2652.0, 51.4976
34.445824043, 96.390, 2499.0, 49.9900
34.472084608, 96.390, 2563.0, 50.6261
34.498345173, 96.390, 2711.0, 52.0673
34.524605739, 96.390, 2585.0, 50.8429
34.550866304, 96.390, 2564.0, 50.6360
34.577126869, 96.390, 2631.0, 51.2933
34.603387435, 96.390, 2643.0, 51.4101
34.629648000, 96.390, 2532.0, 50.3190
34.655908565, 96.390, 2695.0, 51.9134
34.682169131, 96.390, 2615.0, 51.1371
34.708429696, 96.390, 2679.0, 51.7591
34.734690261, 96.390, 2652.0, 51.4976
34.760950827, 96.390, 2639.0, 51.3712
34.787211392, 96.390, 2629.0, 51.2738
34.813471958, 96.390, 2597.0, 50.9608
34.839732523, 96.390, 2507.0, 50.0700
34.865993088, 96.390, 2540.0, 50.3984
34.892253654, 96.390, 2602.0, 51.0098
34.918514219, 96.390, 2611.0, 51.0979
34.944774784, 96.390, 2613.0, 51.1175
34.971035350, 96.390, 2643.0, 51.4101
34.997295915, 96.390, 2644.0, 51.4198
35.023556480, 96.390, 2701.0, 51.9711
35.049817046, 96.390, 2597.0, 50.9608
35.076077611, 96.390, 2741.0, 52.3546
35.102338176, 96.390, 2648.0, 51.4587
35.128598742, 96.390, 2634.0, 51.3225
35.154859307, 96.390, 2584.0, 50.8331
35.181119872, 96.390, 2600.0, 50.9902
35.207380438, 96.390, 2686.0, 51.8266
35.233641003, 96.390, 2509.0, 50.0899
35.259901569, 96.390, 2613.0, 51.1175
35.286162134, 96.390, 2599.0, 50.9804
35.312422699, 96.390, 2518.0, 50.1797
35.338683265, 96.390, 2505.0, 50.0500
35.364943830, 96.390, 2558.0, 50.5767
35.391204395, 96.390, 2446.0, 49.4571
35.417464961, 96.390, 2515.0, 50.1498
35.443725526, 96.390, 2491.0, 49.9099
35.469986091, 96.390, 2486.0, 49.8598
35.496246657, 96.390, 2525.0, 50.2494
35.522507222, 96.390, 2459.0, 49.5883
35.548767787, 96.390, 2550.0, 50.4975
35.575028353, 96.390, 2551.0, 50.5074
35.601288918, 96.390, 2553.0, 50.5272
35.627549484, 96.390, 2522.0, 50.2195
35.653810049, 96.390, 2501.0, 50.0100
35.680070614, 96.390, 2349.0, 48.4665
35.706331180, 96.390, 2413.0, 49.1223
35.732591745, 96.390, 2489.0, 49.8899
35.758852310, 96.390, 2420.0, 49.1935
35.785112876, 96.390, 2410.0, 49.0918
35.811373441, 96.390, 2390.0, 48.8876
35.837634006, 96.390, 2416.0, 49.1528
35.863894572, 96.390, 2408.0, 49.0714
35.890155137, 96.390, 2400.0, 48.9898
35.916415702, 96.390, 2390.0, 48.8876
35.942676268, 96.390, 2404.0, 49.0306
35.968936833, 96.390, 2360.0, 48.5798
35.995197398, 96.390, 2419.0, 49.1833
36.021457964, 96.390, 2354.0, 48.5180
36.047718529, 96.390, 2387.0, 48.8569
36.073979095, 96.390, 2384.0, 48.8262
36.100239660, 96.390, 2323.0, 48.1975
36.126500225, 96.390, 2372.0, 48.7032
36.152760791, 96.390, 2421.0, 49.2037
36.179021356, 96.390, 2346.0, 48.4355
36.205281921, 96.390, 2270.0, 47.6445
36.231542487, 96.390, 2338.0, 48.3529
36.257803052, 96.390, 2346.0, 48.4355
36.284063617, 96.390, 2373.0, 48.7134
36.310324183, 96.390, 2275.0, 47.6970
36.336584748, 96.390, 2320.0, 48.1664
36.362845313, 96.390, 2355.0, 48.5283
36.389105879, 96.390, 2338.0, 48.3529
36.415366444, 96.390, 2284.0, 47.7912
36.441627010, 96.390, 2215.0, 47.0638
36.467887575, 96.390, 2286.0, 47.8121
36.494148140, 96.390, 2248.0, 47.4131
36.520408706, 96.390, 2333.0, 48.3011
36.546669271, 96.390, 2257.0, 47.5079
36.572929836, 96.390, 2256.0, 47.4974
36.599190402, 96.390, 2356.0, 48.5386
36.625450967, 96.390, 2292.0, 47.8748
36.651711532, 96.390, 2326.0, 48.2286
36.677972098, 96.390, 2311.0, 48.0729
36.704232663, 96.390, 2284.0, 47.7912
36.730493228, 96.390, 2148.0, 46.3465
36.756753794, 96.390, 2256.0, 47.4974
36.783014359, 96.390, 2287.0, 47.8226
36.809274924, 96.390, 2227.0, 47.1911
36.835535490, 96.390, 2291.0, 47.8644
36.861796055, 96.390, 2232.0, 47.2440
36.888056621, 96.390, 2235.0, 47.2758
36.914317186, 96.390, 2292.0, 47.8748
36.940577751, 96.390, 2307.0, 48.0312
36.966838317, 96.390, 2186.0, 46.7547
36.993098882, 96.390, 2115.0, 45.9891
37.019359447, 96.390, 2193.0, 46.8295
37.045620013, 96.390, 2250.0, 47.4342
37.071880578, 96.390, 2172.0, 46.6047
37.098141143, 96.390, 2204.0, 46.9468
37.124401709, 96.390, 2238.0, 47.3075
37.150662274, 96.390, 2110.0, 45.9347
37.176922839, 96.390, 2178.0, 46.6690
37.203183405, 96.390, 2103.0, 45.8585
37.229443970, 96.390, 2192.0, 46.8188
37.255704535, 96.390, 2204.0, 46.9468
37.281965101, 96.390, 2116.0, 46.0000
37.308225666, 96.390, 2085.0, 45.6618
37.334486232, 96.390, 2055.0, 45.3321
37.360746797, 96.390, 2155.0, 46.4220
37.387007362, 96.390, 2068.0, 45.4753
37.413267928, 96.390, 2131.0, 46.1628
37.439528493, 96.390, 2108.0, 45.9130
37.465789058, 96.390, 2082.0, 45.6289
37.492049624, 96.390, 2133.0, 46.1844
37.518310189, 96.390, 2024.0, 44.9889
37.544570754, 96.390, 2098.0, 45.8039
37.570831320, 96.390, 2117.0, 46.0109
37.597091885, 96.390, 2107.0, 45.9021
37.623352450, 96.390, 2134.0, 46.1952
37.649613016, 96.390, 2035.0, 45.1110
37.675873581, 96.390, 2036.0, 45.1221
37.702134147, 96.390, 2080.0, 45.6070
37.728394712, 96.390, 1979.0, 44.4860
37.754655277, 96.390, 2052.0, 45.2990
37.780915843, 96.390, 1996.0, 44.6766
37.807176408, 96.390, 2130.0, 46.1519
37.833436973, 96.390, 2050.0, 45.2769
37.859697539, 96.390, 2053.0, 45.3100
37.885958104, 96.390, 2016.0, 44.8999
37.912218669, 96.390, 2045.0, 45.2217
37.938479235, 96.390, 1962.0, 44.2945
37.964739800, 96.390, 1970.0, 44.3847
37.991000365, 96.390, 1963.0, 44.3058
38.017260931, 96.390, 2013.0, 44.8665
38.043521496, 96.390, 2037.0, 45.1331
38.069782061, 96.390, 2048.0, 45.2548
38.096042627, 96.390, 2131.0, 46.1628
38.122303192, 96.390, 2097.0, 45.7930
38.148563758, 96.390, 2026.0, 45.0111
38.174824323, 96.390, 1994.0, 44.6542
38.201084888, 96.390, 1987.0, 44.5758
38.227345454, 96.390, 2032.0, 45.0777
38.253606019, 96.390, 1979.0, 44.4860
38.279866584, 96.390, 1938.0, 44.0227
38.306127150, 96.390, 1871.0, 43.2551
38.332387715, 96.390, 2009.0, 44.8219
38.358648280, 96.390, 1997.0, 44.6878
38.384908846, 96.390, 1963.0, 44.3058
38.411169411, 96.390, 1975.0, 44.4410
38.437429976, 96.390, 1971.0, 44.3959
38.463690542, 96.390, 1980.0, 44.4972
38.489951107, 96.390, 1832.0, 42.8019
38.516211673, 96.390, 1902.0, 43.6119
38.542472238, 96.390, 1893.0, 43.5086
38.568732803, 96.390, 1936.0, 44.0000
38.594993369, 96.390, 1948.0, 44.1362
38.621253934, 96.390, 1958.0, 44.2493
38.647514499, 96.390, 1886.0, 43.4281
38.673775065, 96.390, 1905.0, 43.6463
38.700035630, 96.390, 1917.0, 43.7836
38.726296195, 96.390, 1945.0, 44.1022
38.752556761, 96.390, 1885.0, 43.4166
38.778817326, 96.390, 1839.0, 42.8836
38.805077891, 96.390, 1907.0, 43.6692
38.831338457, 96.390, 1871.0, 43.2551
38.857599022, 96.390, 1902.0, 43.6119
38.883859587, 96.390, 1924.0, 43.8634
38.910120153, 96.390, 1904.0, 43.6348
38.936380718, 96.390, 1888.0, 43.4511
38.962641284, 96.390, 1854.0, 43.0581
38.988901849, 96.390, 1859.0, 43.1161
39.015162414, 96.390, 1804.0, 42.4735
39.041422980, 96.390, 1807.0, 42.5088
39.067683545, 96.390, 1835.0, 42.8369
39.093944110, 96.390, 1898.0, 43.5660
39.120204676, 96.390, 1760.0, 41.9524
39.146465241, 96.390, 1847.0, 42.9767
39.172725806, 96.390, 1763.0, 41.9881
39.198986372, 96.390, 1788.0, 42.2847
39.225246937, 96.390, 1808.0, 42.5206
39.251507502, 96.390, 1809.0, 42.5323
39.277768068, 96.390, 1720.0, 41.4729
39.304028633, 96.390, 1817.0, 42.6263
39.330289199, 96.390, 1866.0, 43.1972
39.356549764, 96.390, 1838.0, 42.8719
39.382810329, 96.390, 1813.0, 42.5793
39.409070895, 96.390, 1750.0, 41.8330
39.435331460, 96.390, 1765.0, 42.0119
39.461592025, 96.390, 1716.0, 41.4246
39.487852591, 96.390, 1734.0, 41.6413
39.514113156, 96.390, 1767.0, 42.0357
39.540373721, 96.390, 1721.0, 41.4849
39.566634287, 96.390, 1778.0, 42.1663
39.592894852, 96.390, 1702.0, 41.2553
39.619155417, 96.390, 1757.0, 41.9166
39.645415983, 96.390, 1677.0, 40.9512
39.671676548, 96.390, 1827.0, 42.7434
39.697937113, 96.390, 1795.0, 42.3674
39.724197679, 96.390, 1708.0, 41.3280
39.750458244, 96.390, 1690.0, 41.1096
39.776718810, 96.390, 1683.0, 41.0244
39.802979375, 96.390, 1693.0, 41.1461
39.829239940, 96.390, 1721.0, 41.4849
39.855500506, 96.390, 1731.0, 41.6053
39.881761071, 96.390, 1727.0, 41.5572
39.908021636, 96.390, 1693.0, 41.1461
39.934282202, 96.390, 1643.0, 40.5339
39.960542767, 96.390, 1672.0, 40.8901
39.986803332, 96.390, 1685.0, 41.0488
40.013063898, 96.390, 1742.0, 41.7373
40.039324463, 96.390, 1666.0, 40.8167
40.065585028, 96.390, 1665.0, 40.8044
40.091845594, 96.390, 1718.0, 41.4488
40.118106159, 96.390, 1624.0, 40.2989
40.144366725, 96.390, 1765.0, 42.0119
40.170627290, 96.390, 1640.0, 40.4969
40.196887855, 96.390, 1705.0, 41.2916
40.223148421, 96.390, 1673.0, 40.9023
40.249408986, 96.390, 1709.0, 41.3401
40.275669551, 96.390, 1615.0, 40.1871
40.301930117, 96.390, 1714.0, 41.4005
40.328190682, 96.390, 1714.0, 41.4005
40.354451247, 96.390, 1674.0, 40.9145
40.380711813, 96.390, 1668.0, 40.8412
40.406972378, 96.390, 1599.0, 39.9875
40.433232943, 96.390, 1700.0, 41.2311
40.459493509, 96.390, 1730.0, 41.5933
40.485754074, 96.390, 1690.0, 41.1096
40.512014639, 96.390, 1679.0, 40.9756
40.538275205, 96.390, 1636.0, 40.4475
40.564535770, 96.390, 1611.0, 40.1373
40.590796336, 96.390, 1640.0, 40.4969
40.617056901, 96.390, 1624.0, 40.2989
40.643317466, 96.390, 1541.0, 39.2556
40.669578032, 96.390, 1588.0, 39.8497
40.695838597, 96.390, 1644.0, 40.5463
40.722099162, 96.390, 1646.0, 40.5709
40.748359728, 96.390, 1719.0, 41.4608
40.774620293, 96.390, 1628.0, 40.3485
40.800880858, 96.390, 1652.0, 40.6448
40.827141424, 96.390, 1583.0, 39.7869
40.853401989, 96.390, 1696.0, 41.1825
40.879662554, 96.390, 1616.0, 40.1995
40.905923120, 96.390, 1659.0, 40.7308
40.932183685, 96.390, 1644.0, 40.5463
40.958444251, 96.390, 1592.0, 39.8999
40.984704816, 96.390, 1589.0, 39.8623
41.010965381, 96.390, 1599.0, 39.9875
41.037225947, 96.390, 1679.0, 40.9756
41.063486512, 96.390, 1576.0, 39.6989
41.089747077, 96.390, 1605.0, 40.0625
41.116007643, 96.390, 1634.0, 40.4228
41.142268208, 96.390, 1683.0, 41.0244
41.168528773, 96.390, 1637.0, 40.4599
41.194789339, 96.390, 1615.0, 40.1871
41.221049904, 96.390, 1657.0, 40.7063
41.247310469, 96.390, 1640.0, 40.4969
41.273571035, 96.390, 1593.0, 39.9124
41.299831600, 96.390, 1654.0, 40.6694
41.326092165, 96.390, 1684.0, 41.0366
41.352352731, 96.390, 1607.0, 40.0874
41.378613296, 96.390, 1654.0, 40.6694
41.404873862, 96.390, 1600.0, 40.0000
41.431134427, 96.390, 1621.0, 40.2616
41.457394992, 96.390, 1575.0, 39.6863
41.483655558, 96.390, 1668.0, 40.8412
41.509916123, 96.390, 1647.0, 40.5832
41.536176688, 96.390, 1627.0, 40.3361
41.562437254, 96.390, 1594.0, 39.9249
41.588697819, 96.390, 1663.0, 40.7799
41.614958384, 96.390, 1632.0, 40.3980
41.641218950, 96.390, 1612.0, 40.1497
41.667479515, 96.390, 1561.0, 39.5095
41.693740080, 96.390, 1672.0, 40.8901
41.720000646, 96.390, 1558.0, 39.4715
41.746261211, 96.390, 1592.0, 39.8999
41.772521776, 96.390, 1616.0, 40.1995
41.798782342, 96.390, 1646.0, 40.5709
41.825042907, 96.390, 1658.0, 40.7185
41.851303473, 96.390, 1641.0, 40.5093
41.877564038, 96.390, 1606.0, 40.0749
41.903824603, 96.390, 1709.0, 41.3401
41.930085169, 96.390, 1667.0, 40.8289
41.956345734, 96.390, 1678.0, 40.9634
41.982606299, 96.390, 1619.0, 40.2368
42.008866865, 96.390, 1713.0, 41.3884
42.035127430, 96.390, 1717.0, 41.4367
42.061387995, 96.390, 1712.0, 41.3763
42.087648561, 96.390, 1671.0, 40.8779
42.113909126, 96.390, 1697.0, 41.1947
42.140169691, 96.390, 1655.0, 40.6817
42.166430257, 96.390, 1718.0, 41.4488
42.192690822, 96.390, 1691.0, 41.1218
42.218951388, 96.390, 1793.0, 42.3438
42.245211953, 96.390, 1760.0, 41.9524
42.271472518, 96.390, 1734.0, 41.6413
42.297733084, 96.390, 1742.0, 41.7373
42.323993649, 96.390, 1792.0, 42.3320
42.350254214, 96.390, 1768.0, 42.0476
42.376514780, 96.390, 1738.0, 41.6893
42.402775345, 96.390, 1775.0, 42.1307
42.429035910, 96.390, 1809.0, 42.5323
42.455296476, 96.390, 1897.0, 43.5546
42.481557041, 96.390, 1844.0, 42.9418
42.507817606, 96.390, 1894.0, 43.5201
42.534078172, 96.390, 1937.0, 44.0114
42.560338737, 96.390, 1941.0, 44.0568
42.586599302, 96.390, 2000.0, 44.7214
42.612859868, 96.390, 1995.0, 44.6654
42.639120433, 96.390, 1977.0, 44.4635
42.665380999, 96.390, 1940.0, 44.0454
42.691641564, 96.390, 2067.0, 45.4643
42.717902129, 96.390, 2038.0, 45.1442
42.744162695, 96.390, 2175.0, 46.6369
42.770423260, 96.390, 2205.0, 46.9574
42.796683825, 96.390, 2290.0, 47.8539
42.822944391, 96.390, 2297.0, 47.9270
42.849204956, 96.390, 2392.0, 48.9081
42.875465521, 96.390, 2378.0, 48.7647
42.901726087, 96.390, 2351.0, 48.4871
42.927986652, 96.390, 2458.0, 49.5782
42.954247217, 96.390, 2424.0, 49.2341
42.980507783, 96.390, 2391.0, 48.8979
43.006768348, 96.390, 2394.0, 48.9285
43.033028914, 96.390, 2404.0, 49.0306
43.059289479, 96.390, 2304.0, 48.0000
43.085550044, 96.390, 2314.0, 48.1041
43.111810610, 96.390, 2208.0, 46.9894
43.138071175, 96.390, 2186.0, 46.7547
43.164331740, 96.390, 2179.0, 46.6798
43.190592306, 96.390, 2012.0, 44.8553
43.216852871, 96.390, 1999.0, 44.7102
43.243113436, 96.390, 2025.0, 45.0000
43.269374002, 96.390, 1980.0, 44.4972
43.295634567, 96.390, 1952.0, 44.1814
43.321895132, 96.390, 1952.0, 44.1814
43.348155698, 96.390, 1941.0, 44.0568
43.374416263, 96.390, 1930.0, 43.9318
43.400676828, 96.390, 1791.0, 42.3202
43.426937394, 96.390, 1877.0, 43.3244
43.453197959, 96.390, 1868.0, 43.2204
43.479458525, 96.390, 1812.0, 42.5676
43.505719090, 96.390, 1759.0, 41.9404
43.531979655, 96.390, 1769.0, 42.0595
43.558240221, 96.390, 1719.0, 41.4608
43.584500786, 96.390, 1804.0, 42.4735
43.610761351, 96.390, 1700.0, 41.2311
43.637021917, 96.390, 1735.0, 41.6533
43.663282482, 96.390, 1618.0, 40.2244
43.689543047, 96.390, 1753.0, 41.8688
43.715803613, 96.390, 1747.0, 41.7971
43.742064178, 96.390, 1720.0, 41.4729
43.768324743, 96.390, 1716.0, 41.4246
43.794585309, 96.390, 1679.0, 40.9756
43.820845874, 96.390, 1699.0, 41.2189
43.847106440, 96.390, 1699.0, 41.2189
43.873367005, 96.390, 1677.0, 40.9512
43.899627570, 96.390, 1620.0, 40.2492
43.925888136, 96.390, 1645.0, 40.5586
43.952148701, 96.390, 1634.0, 40.4228
43.978409266, 96.390, 1618.0, 40.2244
44.004669832, 96.390, 1582.0, 39.7744
44.030930397, 96.390, 1608.0, 40.0999
44.057190962, 96.390, 1618.0, 40.2244
44.083451528, 96.390, 1610.0, 40.1248
44.109712093, 96.390, 1591.0, 39.8873
44.135972658, 96.390, 1546.0, 39.3192
44.162233224, 96.390, 1551.0, 39.3827
44.188493789, 96.390, 1686.0, 41.0609
44.214754354, 96.390, 1531.0, 39.1280
44.241014920, 96.390, 1596.0, 39.9500
44.267275485, 96.390, 1579.0, 39.7366
44.293536051, 96.390, 1589.0, 39.8623
44.319796616, 96.390, 1581.0, 39.7618
44.346057181, 96.390, 1542.0, 39.2683
44.372317747, 96.390, 1619.0, 40.2368
44.398578312, 96.390, 1549.0, 39.3573
44.424838877, 96.390, 1495.0, 38.6652
44.451099443, 96.390, 1472.0, 38.3667
44.477360008, 96.390, 1563.0, 39.5348
44.503620573, 96.390, 1458.0, 38.1838
44.529881139, 96.390, 1516.0, 38.9358
44.556141704, 96.390, 1520.0, 38.9872
44.582402269, 96.390, 1531.0, 39.1280
44.608662835, 96.390, 1562.0, 39.5221
44.634923400, 96.390, 1468.0, 38.3145
44.661183966, 96.390, 1523.0, 39.0256
44.687444531, 96.390, 1515.0, 38.9230
44.713705096, 96.390, 1474.0, 38.3927
44.739965662, 96.390, 1434.0, 37.8682
44.766226227, 96.390, 1437.0, 37.9078
44.792486792, 96.390, 1481.0, 38.4838
44.818747358, 96.390, 1428.0, 37.7889
44.845007923, 96.390, 1492.0, 38.6264
44.871268488, 96.390, 1426.0, 37.7624
44.897529054, 96.390, 1383.0, 37.1887
44.923789619, 96.390, 1559.0, 39.4842
44.950050184, 96.390, 1444.0, 38.0000
44.976310750, 96.390, 1482.0, 38.4968
45.002571315, 96.390, 1432.0, 37.8418
45.028831880, 96.390, 1505.0, 38.7943
45.055092446, 96.390, 1448.0, 38.0526
45.081353011, 96.390, 1450.0, 38.0789
45.107613577, 96.390, 1443.0, 37.9868
45.133874142, 96.390, 1472.0, 38.3667
45.160134707, 96.390, 1488.0, 38.5746
45.186395273, 96.390, 1409.0, 37.5366
45.212655838, 96.390, 1483.0, 38.5097
45.238916403, 96.390, 1379.0, 37.1349
45.265176969, 96.390, 1469.0, 38.3275
45.291437534, 96.390, 1405.0, 37.4833
45.317698099, 96.390, 1400.0, 37.4166
45.343958665, 96.390, 1413.0, 37.5899
45.370219230, 96.390, 1385.0, 37.2156
45.396479795, 96.390, 1366.0, 36.9594
45.422740361, 96.390, 1375.0, 37.0810
45.449000926, 96.390, 1402.0, 37.4433
45.475261492, 96.390, 1449.0, 38.0657
45.501522057, 96.390, 1363.0, 36.9188
45.527782622, 96.390, 1333.0, 36.5103
45.554043188, 96.390, 1286.0, 35.8608
45.580303753, 96.390, 1355.0, 36.8103
45.606564318, 96.390, 1313.0, 36.2353
45.632824884, 96.390, 1329.0, 36.4555
45.659085449, 96.390, 1369.0, 37.0000
45.685346014, 96.390, 1356.0, 36.8239
45.711606580, 96.390, 1337.0, 36.5650
45.737867145, 96.390, 1404.0, 37.4700
45.764127710, 96.390, 1389.0, 37.2693
45.790388276, 96.390, 1316.0, 36.2767
45.816648841, 96.390, 1310.0, 36.1939
45.842909406, 96.390, 1349.0, 36.7287
45.869169972, 96.390, 1297.0, 36.0139
45.895430537, 96.390, 1351.0, 36.7560
45.921691103, 96.390, 1320.0, 36.3318
45.947951668, 96.390, 1375.0, 37.0810
45.974212233, 96.390, 1376.0, 37.0945
46.000472799, 96.390, 1327.0, 36.4280
46.026733364, 96.390, 1336.0, 36.5513
46.052993929, 96.390, 1374.0, 37.0675
46.079254495, 96.390, 1297.0, 36.0139
46.105515060, 96.390, 1253.0, 35.3977
46.131775625, 96.390, 1282.0, 35.8050
46.158036191, 96.390, 1312.0, 36.2215
46.184296756, 96.390, 1217.0, 34.8855
46.210557321, 96.390, 1298.0, 36.0278
46.236817887, 96.390, 1354.0, 36.7967
46.263078452, 96.390, 1288.0, 35.8887
46.289339017, 96.390, 1221.0, 34.9428
46.315599583, 96.390, 1272.0, 35.6651
46.341860148, 96.390, 1330.0, 36.4692
46.368120714, 96.390, 1275.0, 35.7071
46.394381279, 96.390, 1264.0, 35.5528
46.420641844, 96.390, 1263.0, 35.5387
46.446902410, 96.390, 1229.0, 35.0571
46.473162975, 96.390, 1233.0, 35.1141
46.499423540, 96.390, 1270.0, 35.6371
46.525684106, 96.390, 1213.0, 34.8281
46.551944671, 96.390, 1188.0, 34.4674
46.578205236, 96.390, 1249.0, 35.3412
46.604465802, 96.390, 1284.0, 35.8329
46.630726367, 96.390, 1291.0, 35.9305
46.656986932, 96.390, 1246.0, 35.2987
46.683247498, 96.390, 1255.0, 35.4260
46.709508063, 96.390, 1270.0, 35.6371
46.735768629, 96.390, 1169.0, 34.1906
46.762029194, 96.390, 1229.0, 35.0571
46.788289759, 96.390, 1221.0, 34.9428
46.814550325, 96.390, 1206.0, 34.7275
46.840810890, 96.390, 1175.0, 34.2783
46.867071455, 96.390, 1281.0, 35.7911
46.893332021, 96.390, 1251.0, 35.3695
46.919592586, 96.390, 1191.0, 34.5109
46.945853151, 96.390, 1192.0, 34.5254
46.972113717, 96.390, 1211.0, 34.7994
46.998374282, 96.390, 1182.0, 34.3802
47.024634847, 96.390, 1218.0, 34.8999
47.050895413, 96.390, 1221.0, 34.9428
47.077155978, 96.390, 1212.0, 34.8138
47.103416543, 96.390, 1207.0, 34.7419
47.129677109, 96.390, 1156.0, 34.0000
47.155937674, 96.390, 1243.0, 35.2562
47.182198240, 96.390, 1234.0, 35.1283
47.208458805, 96.390, 1212.0, 34.8138
47.234719370, 96.390, 1194.0, 34.5543
47.260979936, 96.390, 1205.0, 34.7131
47.287240501, 96.390, 1108.0, 33.2866
47.313501066, 96.390, 1141.0, 33.7787
47.339761632, 96.390, 1205.0, 34.7131
47.366022197, 96.390, 1207.0, 34.7419
47.392282762, 96.390, 1153.0, 33.9559
47.418543328, 96.390, 1163.0, 34.1028
47.444803893, 96.390, 1170.0, 34.2053
47.471064458, 96.390, 1225.0, 35.0000
47.497325024, 96.390, 1240.0, 35.2136
47.523585589, 96.390, 1150.0, 33.9116
47.549846155, 96.390, 1154.0, 33.9706
47.576106720, 96.390, 1174.0, 34.2637
47.602367285, 96.390, 1132.0, 33.6452
47.628627851, 96.390, 1215.0, 34.8569
47.654888416, 96.390, 1149.0, 33.8969
47.681148981, 96.390, 1101.0, 33.1813
47.707409547, 96.390, 1187.0, 34.4529
47.733670112, 96.390, 1160.0, 34.0588
47.759930677, 96.390, 1152.0, 33.9411
47.786191243, 96.390, 1187.0, 34.4529
47.812451808, 96.390, 1141.0, 33.7787
47.838712373, 96.390, 1196.0, 34.5832
47.864972939, 96.390, 1152.0, 33.9411
47.891233504, 96.390, 1178.0, 34.3220
47.917494069, 96.390, 1120.0, 33.4664
47.943754635, 96.390, 1178.0, 34.3220
47.970015200, 96.390, 1145.0, 33.8378
47.996275766, 96.390, 1183.0, 34.3948
48.022536331, 96.390, 1158.0, 34.0294
48.048796896, 96.390, 1131.0, 33.6303
48.075057462, 96.390, 1122.0, 33.4963
48.101318027, 96.390, 1169.0, 34.1906
48.127578592, 96.390, 1129.0, 33.6006
48.153839158, 96.390, 1148.0, 33.8821
48.180099723, 96.390, 1075.0, 32.7872
48.206360288, 96.390, 1117.0, 33.4215
48.232620854, 96.390, 1081.0, 32.8786
48.258881419, 96.390, 1084.0, 32.9242
48.285141984, 96.390, 1093.0, 33.0606
48.311402550, 96.390, 1156.0, 34.0000
48.337663115, 96.390, 1114.0, 33.3766
48.363923681, 96.390, 1153.0, 33.9559
48.390184246, 96.390, 1135.0, 33.6898
48.416444811, 96.390, 1109.0, 33.3017
48.442705377, 96.390, 1136.0, 33.7046
48.468965942, 96.390, 1130.0, 33.6155
48.495226507, 96.390, 1089.0, 33.0000
48.521487073, 96.390, 1107.0, 33.2716
48.547747638, 96.390, 1081.0, 32.8786
48.574008203, 96.390, 1147.0, 33.8674
48.600268769, 96.390, 1107.0, 33.2716
48.626529334, 96.390, 1048.0, 32.3728
48.652789899, 96.390, 1092.0, 33.0454
48.679050465, 96.390, 1078.0, 32.8329
48.705311030, 96.390, 1074.0, 32.7719
48.731571595, 96.390, 1088.0, 32.9848
48.757832161, 96.390, 1029.0, 32.0780
48.784092726, 96.390, 1117.0, 33.4215
48.810353292, 96.390, 1040.0, 32.2490
48.836613857, 96.390, 1081.0, 32.8786
48.862874422, 96.390, 1072.0, 32.7414
48.889134988, 96.390, 1146.0, 33.8526
48.915395553, 96.390, 1123.0, 33.5112
48.941656118, 96.390, 1104.0, 33.2265
48.967916684, 96.390, 1046.0, 32.3419
48.994177249, 96.390, 1027.0, 32.0468
49.020437814, 96.390, 1118.0, 33.4365
49.046698380, 96.390, 1101.0, 33.1813
49.072958945, 96.390, 1068.0, 32.6803
49.099219510, 96.390, 1060.0, 32.5576
49.125480076, 96.390, 1119.0, 33.4515
49.151740641, 96.390, 1009.0, 31.7648
49.178001207, 96.390, 1093.0, 33.0606
49.204261772, 96.390, 1120.0, 33.4664
49.230522337, 96.390, 1087.0, 32.9697
49.256782903, 96.390, 1056.0, 32.4962
49.283043468, 96.390, 1060.0, 32.5576
49.309304033, 96.390, 1077.0, 32.8177
49.335564599, 96.390, 1004.0, 31.6860
49.361825164, 96.390, 1019.0, 31.9218
49.388085729, 96.390, 1090.0, 33.0151
49.414346295, 96.390, 1008.0, 31.7490
49.440606860, 96.390, 1054.0, 32.4654
49.466867425, 96.390, 1041.0, 32.2645
49.493127991, 96.390, 990.0, 31.4643
49.519388556, 96.390, 1061.0, 32.5730
49.545649121, 96.390, 1060.0, 32.5576
49.571909687, 96.390, 1033.0, 32.1403
49.598170252, 96.390, 1016.0, 31.8748
49.624430818, 96.390, 1041.0, 32.2645
49.650691383, 96.390, 953.0, 30.8707
49.676951948, 96.390, 1040.0, 32.2490
49.703212514, 96.390, 1076.0, 32.8024
49.729473079, 96.390, 976.0, 31.2410
49.755733644, 96.390, 972.0, 31.1769
49.781994210, 96.390, 1005.0, 31.7017
49.808254775, 96.390, 1043.0, 32.2955
49.834515340, 96.390, 1053.0, 32.4500
49.860775906, 96.390, 1032.0, 32.1248
49.887036471, 96.390, 1021.0, 31.9531
49.913297036, 96.390, 1008.0, 31.7490
49.939557602, 96.390, 1015.0, 31.8591
49.965818167, 96.390, 1021.0, 31.9531
49.992078732, 96.390, 1027.0, 32.0468
50.018339298, 96.390, 997.0, 31.5753
50.044599863, 96.390, 1008.0, 31.7490
50.070860429, 96.390, 987.0, 31.4166
50.097120994, 96.390, 991.0, 31.4802
50.123381559, 96.390, 989.0, 31.4484
50.149642125, 96.390, 1024.0, 32.0000
50.175902690, 96.390, 1026.0, 32.0312
50.202163255, 96.390, 991.0, 31.4802
50.228423821, 96.390, 985.0, 31.3847
50.254684386, 96.390, 990.0, 31.4643
50.280944951, 96.390, 938.0, 30.6268
50.307205517, 96.390, 940.0, 30.6594
50.333466082, 96.390, 994.0, 31.5278
50.359726647, 96.390, 994.0, 31.5278
50.385987213, 96.390, 935.0, 30.5778
50.412247778, 96.390, 1059.0, 32.5423
50.438508344, 96.390, 968.0, 31.1127
50.464768909, 96.390, 979.0, 31.2890
50.491029474, 96.390, 992.0, 31.4960
50.517290040, 96.390, 956.0, 30.9192
50.543550605, 96.390, 994.0, 31.5278
50.569811170, 96.390, 965.0, 31.0644
50.596071736, 96.390, 988.0, 31.4325
50.622332301, 96.390, 930.0, 30.4959
50.648592866, 96.390, 945.0, 30.7409
50.674853432, 96.390, 977.0, 31.2570
50.701113997, 96.390, 1001.0, 31.6386
50.727374562, 96.390, 919.0, 30.3150
50.753635128, 96.390, 961.0, 31.0000
50.779895693, 96.390, 1029.0, 32.0780
50.806156258, 96.390, 981.0, 31.3209
50.832416824, 96.390, 946.0, 30.7571
50.858677389, 96.390, 922.0, 30.3645
50.884937955, 96.390, 916.0, 30.2655
50.911198520, 96.390, 986.0, 31.4006
50.937459085, 96.390, 955.0, 30.9031
50.963719651, 96.390, 995.0, 31.5436
50.989980216, 96.390, 931.0, 30.5123
51.016240781, 96.390, 925.0, 30.4138
51.042501347, 96.390, 989.0, 31.4484
51.068761912, 96.390, 959.0, 30.9677
51.095022477, 96.390, 951.0, 30.8383
51.121283043, 96.390, 976.0, 31.2410
51.147543608, 96.390, 956.0, 30.9192
51.173804173, 96.390, 966.0, 31.0805
51.200064739, 96.390, 942.0, 30.6920
51.226325304, 96.390, 942.0, 30.6920
51.252585870, 96.390, 974.0, 31.2090
51.278846435, 96.390, 982.0, 31.3369
51.305107000, 96.390, 942.0, 30.6920
51.331367566, 96.390, 910.0, 30.1662
51.357628131, 96.390, 1045.0, 32.3265
51.383888696, 96.390, 996.0, 31.5595
51.410149262, 96.390, 979.0, 31.2890
51.436409827, 96.390, 921.0, 30.3480
51.462670392, 96.390, 894.0, 29.8998
51.488930958, 96.390, 941.0, 30.6757
51.515191523, 96.390, 905.0, 30.0832
51.541452088, 96.390, 936.0, 30.5941
51.567712654, 96.390, 966.0, 31.0805
51.593973219, 96.390, 934.0, 30.5614
51.620233784, 96.390, 969.0, 31.1288
51.646494350, 96.390, 888.0, 29.7993
51.672754915, 96.390, 916.0, 30.2655
51.699015481, 96.390, 981.0, 31.3209
51.725276046, 96.390, 900.0, 30.0000
51.751536611, 96.390, 957.0, 30.9354
51.777797177, 96.390, 947.0, 30.7734
51.804057742, 96.390, 944.0, 30.7246
51.830318307, 96.390, 962.0, 31.0161
51.856578873, 96.390, 964.0, 31.0483
51.882839438, 96.390, 990.0, 31.4643
51.909100003, 96.390, 932.0, 30.5287
51.935360569, 96.390, 924.0, 30.3974
51.961621134, 96.390, 962.0, 31.0161
51.987881699, 96.390, 937.0, 30.6105
52.014142265, 96.390, 890.0, 29.8329
52.040402830, 96.390, 909.0, 30.1496
52.066663396, 96.390, 963.0, 31.0322
52.092923961, 96.390, 927.0, 30.4467
52.119184526, 96.390, 941.0, 30.6757
52.145445092, 96.390, 945.0, 30.7409
52.171705657, 96.390, 892.0, 29.8664
52.197966222, 96.390, 957.0, 30.9354
52.224226788, 96.390, 971.0, 31.1609
52.250487353, 96.390, 954.0, 30.8869
52.276747918, 96.390, 937.0, 30.6105
52.303008484, 96.390, 918.0, 30.2985
52.329269049, 96.390, 939.0, 30.6431
52.355529614, 96.390, 930.0, 30.4959
52.381790180, 96.390, 865.0, 29.4109
52.408050745, 96.390, 882.0, 29.6985
52.434311310, 96.390, 900.0, 30.0000
52.460571876, 96.390, 887.0, 29.7825
52.486832441, 96.390, 979.0, 31.2890
52.513093007, 96.390, 935.0, 30.5778
52.539353572, 96.390, 946.0, 30.7571
52.565614137, 96.390, 921.0, 30.3480
52.591874703, 96.390, 890.0, 29.8329
52.618135268, 96.390, 900.0, 30.0000
52.644395833, 96.390, 861.0, 29.3428
52.670656399, 96.390, 897.0, 29.9500
52.696916964, 96.390, 862.0, 29.3598
52.723177529, 96.390, 929.0, 30.4795
52.749438095, 96.390, 868.0, 29.4618
52.775698660, 96.390, 962.0, 31.0161
52.801959225, 96.390, 947.0, 30.7734
52.828219791, 96.390, 896.0, 29.9333
52.854480356, 96.390, 938.0, 30.6268
52.880740922, 96.390, 914.0, 30.2324
52.907001487, 96.390, 937.0, 30.6105
52.933262052, 96.390, 947.0, 30.7734
52.959522618, 96.390, 948.0, 30.7896
52.985783183, 96.390, 916.0, 30.2655
53.012043748, 96.390, 884.0, 29.7321
53.038304314, 96.390, 887.0, 29.7825
53.064564879, 96.390, 937.0, 30.6105
53.090825444, 96.390, 923.0, 30.3809
53.117086010, 96.390, 938.0, 30.6268
53.143346575, 96.390, 886.0, 29.7658
53.169607140, 96.390, 876.0, 29.5973
53.195867706, 96.390, 930.0, 30.4959
53.222128271, 96.390, 909.0, 30.1496
53.248388836, 96.390, 936.0, 30.5941
53.274649402, 96.390, 934.0, 30.5614
53.300909967, 96.390, 848.0, 29.1204
53.327170533, 96.390, 915.0, 30.2490
53.353431098, 96.390, 883.0, 29.7153
53.379691663, 96.390, 873.0, 29.5466
53.405952229, 96.390, 907.0, 30.1164
53.432212794, 96.390, 847.0, 29.1033
53.458473359, 96.390, 895.0, 29.9166
53.484733925, 96.390, 880.0, 29.6648
53.510994490, 96.390, 900.0, 30.0000
53.537255055, 96.390, 926.0, 30.4302
53.563515621, 96.390, 930.0, 30.4959
53.589776186, 96.390, 871.0, 29.5127
53.616036751, 96.390, 946.0, 30.7571
53.642297317, 96.390, 922.0, 30.3645
53.668557882, 96.390, 869.0, 29.4788
53.694818448, 96.390, 843.0, 29.0345
53.721079013, 96.390, 881.0, 29.6816
53.747339578, 96.390, 927.0, 30.4467
53.773600144, 96.390, 908.0, 30.1330
53.799860709, 96.390, 906.0, 30.0998
53.826121274, 96.390, 904.0, 30.0666
53.852381840, 96.390, 917.0, 30.2820
53.878642405, 96.390, 913.0, 30.2159
53.904902970, 96.390, 862.0, 29.3598
53.931163536, 96.390, 867.0, 29.4449
53.957424101, 96.390, 838.0, 28.9482
53.983684666, 96.390, 932.0, 30.5287
54.009945232, 96.390, 885.0, 29.7489
54.036205797, 96.390, 911.0, 30.1828
54.062466362, 96.390, 902.0, 30.0333
54.088726928, 96.390, 857.0, 29.2746
54.114987493, 96.390, 927.0, 30.4467
54.141248059, 96.390, 912.0, 30.1993
54.167508624, 96.390, 862.0, 29.3598
54.193769189, 96.390, 876.0, 29.5973
54.220029755, 96.390, 911.0, 30.1828
54.246290320, 96.390, 890.0, 29.8329
54.272550885, 96.390, 880.0, 29.6648
54.298811451, 96.390, 925.0, 30.4138
54.325072016, 96.390, 904.0, 30.0666
54.351332581, 96.390, 966.0, 31.0805
54.377593147, 96.390, 899.0, 29.9833
54.403853712, 96.390, 883.0, 29.7153
54.430114277, 96.390, 873.0, 29.5466
54.456374843, 96.390, 865.0, 29.4109
54.482635408, 96.390, 954.0, 30.8869
54.508895973, 96.390, 885.0, 29.7489
54.535156539, 96.390, 825.0, 28.7228
54.561417104, 96.390, 886.0, 29.7658
54.587677670, 96.390, 866.0, 29.4279
54.613938235, 96.390, 890.0, 29.8329
54.640198800, 96.390, 917.0, 30.2820
54.666459366, 96.390, 932.0, 30.5287
54.692719931, 96.390, 933.0, 30.5450
54.718980496, 96.390, 932.0, 30.5287
54.745241062, 96.390, 870.0, 29.4958
54.771501627, 96.390, 938.0, 30.6268
54.797762192, 96.390, 901.0, 30.0167
54.824022758, 96.390, 900.0, 30.0000
54.850283323, 96.390, 914.0, 30.2324
54.876543888, 96.390, 887.0, 29.7825
54.902804454, 96.390, 871.0, 29.5127
54.929065019, 96.390, 903.0, 30.0500
54.955325585, 96.390, 886.0, 29.7658
54.981586150, 96.390, 918.0, 30.2985
55.007846715, 96.390, 894.0, 29.8998
55.034107281, 96.390, 855.0, 29.2404
55.060367846, 96.390, 860.0, 29.3258
55.086628411, 96.390, 959.0, 30.9677
55.112888977, 96.390, 904.0, 30.0666
55.139149542, 96.390, 845.0, 29.0689
55.165410107, 96.390, 886.0, 29.7658
55.191670673, 96.390, 897.0, 29.9500
55.217931238, 96.390, 928.0, 30.4631
55.244191803, 96.390, 881.0, 29.6816
55.270452369, 96.390, 882.0, 29.6985
55.296712934, 96.390, 870.0, 29.4958
55.322973499, 96.390, 879.0, 29.6479
55.349234065, 96.390, 916.0, 30.2655
55.375494630, 96.390, 893.0, 29.8831
55.401755196, 96.390, 826.0, 28.7402
55.428015761, 96.390, 852.0, 29.1890
55.454276326, 96.390, 881.0, 29.6816
55.480536892, 96.390, 888.0, 29.7993
55.506797457, 96.390, 854.0, 29.2233
55.533058022, 96.390, 932.0, 30.5287
55.559318588, 96.390, 882.0, 29.6985
55.585579153, 96.390, 892.0, 29.8664
55.611839718, 96.390, 872.0, 29.5296
55.638100284, 96.390, 864.0, 29.3939
55.664360849, 96.390, 888.0, 29.7993
55.690621414, 96.390, 879.0, 29.6479
55.716881980, 96.390, 863.0, 29.3769
55.743142545, 96.390, 852.0, 29.1890
55.769403111, 96.390, 873.0, 29.5466
55.795663676, 96.390, 863.0, 29.3769
55.821924241, 96.390, 859.0, 29.3087
55.848184807, 96.390, 850.0, 29.1548
55.874445372, 96.390, 892.0, 29.8664
55.900705937, 96.390, 899.0, 29.9833
55.926966503, 96.390, 868.0, 29.4618
55.953227068, 96.390, 851.0, 29.1719
55.979487633, 96.390, 882.0, 29.6985
56.005748199, 96.390, 884.0, 29.7321
56.032008764, 96.390, 880.0, 29.6648
56.058269329, 96.390, 861.0, 29.3428
56.084529895, 96.390, 837.0, 28.9310
56.110790460, 96.390, 881.0, 29.6816
56.137051025, 96.390, 895.0, 29.9166
56.163311591, 96.390, 842.0, 29.0172
56.189572156, 96.390, 903.0, 30.0500
56.215832722, 96.390, 845.0, 29.0689
56.242093287, 96.390, 862.0, 29.3598
56.268353852, 96.390, 852.0, 29.1890
56.294614418, 96.390, 878.0, 29.6311
56.320874983, 96.390, 868.0, 29.4618
56.347135548, 96.390, 820.0, 28.6356
56.373396114, 96.390, 876.0, 29.5973
56.399656679, 96.390, 888.0, 29.7993
56.425917244, 96.390, 881.0, 29.6816
56.452177810, 96.390, 879.0, 29.6479
56.478438375, 96.390, 860.0, 29.3258
56.504698940, 96.390, 863.0, 29.3769
56.530959506, 96.390, 844.0, 29.0517
56.557220071, 96.390, 860.0, 29.3258
56.583480637, 96.390, 872.0, 29.5296
56.609741202, 96.390, 868.0, 29.4618
56.636001767, 96.390, 912.0, 30.1993
56.662262333, 96.390, 913.0, 30.2159
56.688522898, 96.390, 865.0, 29.4109
56.714783463, 96.390, 912.0, 30.1993
56.741044029, 96.390, 881.0, 29.6816
56.767304594, 96.390, 889.0, 29.8161
56.793565159, 96.390, 917.0, 30.2820
56.819825725, 96.390, 872.0, 29.5296
56.846086290, 96.390, 897.0, 29.9500
56.872346855, 96.390, 908.0, 30.1330
56.898607421, 96.390, 878.0, 29.6311
56.924867986, 96.390, 882.0, 29.6985
56.951128551, 96.390, 876.0, 29.5973
56.977389117, 96.390, 860.0, 29.3258
57.003649682, 96.390, 867.0, 29.4449
57.029910248, 96.390, 907.0, 30.1164
57.056170813, 96.390, 910.0, 30.1662
57.082431378, 96.390, 870.0, 29.4958
57.108691944, 96.390, 894.0, 29.8998
57.134952509, 96.390, 817.0, 28.5832
57.161213074, 96.390, 867.0, 29.4449
57.187473640, 96.390, 878.0, 29.6311
57.213734205, 96.390, 824.0, 28.7054
57.239994770, 96.390, 867.0, 29.4449
57.266255336, 96.390, 818.0, 28.6007
57.292515901, 96.390, 875.0, 29.5804
57.318776466, 96.390, 812.0, 28.4956
57.345037032, 96.390, 898.0, 29.9666
57.371297597, 96.390, 857.0, 29.2746
57.397558163, 96.390, 875.0, 29.5804
57.423818728, 96.390, 857.0, 29.2746
57.450079293, 96.390, 891.0, 29.8496
57.476339859, 96.390, 913.0, 30.2159
57.502600424, 96.390, 918.0, 30.2985
57.528860989, 96.390, 922.0, 30.3645
57.555121555, 96.390, 920.0, 30.3315
57.581382120, 96.390, 829.0, 28.7924
57.607642685, 96.390, 868.0, 29.4618
57.633903251, 96.390, 856.0, 29.2575
57.660163816, 96.390, 874.0, 29.5635
57.686424381, 96.390, 860.0, 29.3258
57.712684947, 96.390, 963.0, 31.0322
57.738945512, 96.390, 940.0, 30.6594
57.765206077, 96.390, 916.0, 30.2655
57.791466643, 96.390, 858.0, 29.2916
57.817727208, 96.390, 956.0, 30.9192
57.843987774, 96.390, 873.0, 29.5466
57.870248339, 96.390, 903.0, 30.0500
57.896508904, 96.390, 888.0, 29.7993
57.922769470, 96.390, 875.0, 29.5804
57.949030035, 96.390, 933.0, 30.5450
57.975290600, 96.390, 925.0, 30.4138
58.001551166, 96.390, 942.0, 30.6920
58.027811731, 96.390, 951.0, 30.8383
58.054072296, 96.390, 914.0, 30.2324
58.080332862, 96.390, 953.0, 30.8707
58.106593427, 96.390, 877.0, 29.6142
58.132853992, 96.390, 872.0, 29.5296
58.159114558, 96.390, 894.0, 29.8998
58.185375123, 96.390, 889.0, 29.8161
58.211635689, 96.390, 912.0, 30.1993
58.237896254, 96.390, 919.0, 30.3150
58.264156819, 96.390, 912.0, 30.1993
58.290417385, 96.390, 930.0, 30.4959
58.316677950, 96.390, 907.0, 30.1164
58.342938515, 96.390, 932.0, 30.5287
58.369199081, 96.390, 957.0, 30.9354
58.395459646, 96.390, 982.0, 31.3369
58.421720211, 96.390, 901.0, 30.0167
58.447980777, 96.390, 978.0, 31.2730
58.474241342, 96.390, 899.0, 29.9833
58.500501907, 96.390, 942.0, 30.6920
58.526762473, 96.390, 986.0, 31.4006
58.553023038, 96.390, 932.0, 30.5287
58.579283603, 96.390, 985.0, 31.3847
58.605544169, 96.390, 960.0, 30.9839
58.631804734, 96.390, 987.0, 31.4166
58.658065300, 96.390, 963.0, 31.0322
58.684325865, 96.390, 958.0, 30.9516
58.710586430, 96.390, 942.0, 30.6920
58.736846996, 96.390, 1047.0, 32.3574
58.763107561, 96.390, 892.0, 29.8664
58.789368126, 96.390, 936.0, 30.5941
58.815628692, 96.390, 971.0, 31.1609
58.841889257, 96.390, 1011.0, 31.7962
58.868149822, 96.390, 985.0, 31.3847
58.894410388, 96.390, 983.0, 31.3528
58.920670953, 96.390, 1060.0, 32.5576
58.946931518, 96.390, 996.0, 31.5595
58.973192084, 96.390, 1026.0, 32.0312
58.999452649, 96.390, 984.0, 31.3688
59.025713214, 96.390, 1045.0, 32.3265
59.051973780, 96.390, 1059.0, 32.5423
59.078234345, 96.390, 1032.0, 32.1248
59.104494911, 96.390, 1029.0, 32.0780
59.130755476, 96.390, 1068.0, 32.6803
59.157016041, 96.390, 1030.0, 32.0936
59.183276607, 96.390, 1144.0, 33.8231
59.209537172, 96.390, 1027.0, 32.0468
59.235797737, 96.390, 1161.0, 34.0735
59.262058303, 96.390, 1051.0, 32.4191
59.288318868, 96.390, 1070.0, 32.7109
59.314579433, 96.390, 1106.0, 33.2566
59.340839999, 96.390, 1120.0, 33.4664
59.367100564, 96.390, 1067.0, 32.6650
59.393361129, 96.390, 1146.0, 33.8526
59.419621695, 96.390, 1167.0, 34.1614
59.445882260, 96.390, 1195.0, 34.5688
59.472142826, 96.390, 1183.0, 34.3948
59.498403391, 96.390, 1126.0, 33.5559
59.524663956, 96.390, 1185.0, 34.4238
59.550924522, 96.390, 1165.0, 34.1321
59.577185087, 96.390, 1295.0, 35.9861
59.603445652, 96.390, 1258.0, 35.4683
59.629706218, 96.390, 1177.0, 34.3074
59.655966783, 96.390, 1289.0, 35.9026
59.682227348, 96.390, 1179.0, 34.3366
59.708487914, 96.390, 1270.0, 35.6371
59.734748479, 96.390, 1240.0, 35.2136
59.761009044, 96.390, 1312.0, 36.2215
59.787269610, 96.390, 1257.0, 35.4542
59.813530175, 96.390, 1270.0, 35.6371
59.839790740, 96.390, 1402.0, 37.4433
59.866051306, 96.390, 1340.0, 36.6060
59.892311871, 96.390, 1385.0, 37.2156
59.918572437, 96.390, 1386.0, 37.2290
59.944833002, 96.390, 1399.0, 37.4032
59.971093567, 96.390, 1436.0, 37.8946
59.997354133, 96.390, 1461.0, 38.2230
60.023614698, 96.390, 1358.0, 36.8511
60.049875263, 96.390, 1447.0, 38.0395
60.076135829, 96.390, 1492.0, 38.6264
60.102396394, 96.390, 1492.0, 38.6264
60.128656959, 96.390, 1511.0, 38.8716
60.154917525, 96.390, 1458.0, 38.1838
60.181178090, 96.390, 1532.0, 39.1408
60.207438655, 96.390, 1560.0, 39.4968
60.233699221, 96.390, 1594.0, 39.9249
60.259959786, 96.390, 1581.0, 39.7618
60.286220352, 96.390, 1612.0, 40.1497
60.312480917, 96.390, 1636.0, 40.4475
60.338741482, 96.390, 1567.0, 39.5854
60.365002048, 96.390, 1543.0, 39.2810
60.391262613, 96.390, 1587.0, 39.8372
60.417523178, 96.390, 1688.0, 41.0853
60.443783744, 96.390, 1642.0, 40.5216
60.470044309, 96.390, 1637.0, 40.4599
60.496304874, 96.390, 1581.0, 39.7618
60.522565440, 96.390, 1607.0, 40.0874
60.548826005, 96.390, 1673.0, 40.9023
60.575086570, 96.390, 1622.0, 40.2741
60.601347136, 96.390, 1646.0, 40.5709
60.627607701, 96.390, 1677.0, 40.9512
60.653868266, 96.390, 1636.0, 40.4475
60.680128832, 96.390, 1631.0, 40.3856
60.706389397, 96.390, 1644.0, 40.5463
60.732649963, 96.390, 1700.0, 41.2311
60.758910528, 96.390, 1594.0, 39.9249
60.785171093, 96.390, 1626.0, 40.3237
60.811431659, 96.390, 1578.0, 39.7240
60.837692224, 96.390, 1633.0, 40.4104
60.863952789, 96.390, 1579.0, 39.7366
60.890213355, 96.390, 1654.0, 40.6694
60.916473920, 96.390, 1665.0, 40.8044
60.942734485, 96.390, 1543.0, 39.2810
60.968995051, 96.390, 1551.0, 39.3827
60.995255616, 96.390, 1589.0, 39.8623
61.021516181, 96.390, 1538.0, 39.2173
61.047776747, 96.390, 1586.0, 39.8246
61.074037312, 96.390, 1570.0, 39.6232
61.100297878, 96.390, 1533.0, 39.1535
61.126558443, 96.390, 1569.0, 39.6106
61.152819008, 96.390, 1538.0, 39.2173
61.179079574, 96.390, 1563.0, 39.5348
61.205340139, 96.390, 1461.0, 38.2230
61.231600704, 96.390, 1533.0, 39.1535
61.257861270, 96.390, 1456.0, 38.1576
61.284121835, 96.390, 1496.0, 38.6782
61.310382400, 96.390, 1530.0, 39.1152
61.336642966, 96.390, 1381.0, 37.1618
61.362903531, 96.390, 1520.0, 38.9872
61.389164096, 96.390, 1506.0, 38.8072
61.415424662, 96.390, 1484.0, 38.5227
61.441685227, 96.390, 1466.0, 38.2884
61.467945792, 96.390, 1458.0, 38.1838
61.494206358, 96.390, 1453.0, 38.1182
61.520466923, 96.390, 1583.0, 39.7869
61.546727489, 96.390, 1483.0, 38.5097
61.572988054, 96.390, 1418.0, 37.6563
61.599248619, 96.390, 1428.0, 37.7889
61.625509185, 96.390, 1438.0, 37.9210
61.651769750, 96.390, 1430.0, 37.8153
61.678030315, 96.390, 1439.0, 37.9342
61.704290881, 96.390, 1480.0, 38.4708
61.730551446, 96.390, 1528.0, 39.0896
61.756812011, 96.390, 1386.0, 37.2290
61.783072577, 96.390, 1444.0, 38.0000
61.809333142, 96.390, 1464.0, 38.2623
61.835593707, 96.390, 1424.0, 37.7359
61.861854273, 96.390, 1441.0, 37.9605
61.888114838, 96.390, 1390.0, 37.2827
61.914375404, 96.390, 1451.0, 38.0920
61.940635969, 96.390, 1455.0, 38.1445
61.966896534, 96.390, 1424.0, 37.7359
61.993157100, 96.390, 1498.0, 38.7040
62.019417665, 96.390, 1478.0, 38.4448
62.045678230, 96.390, 1525.0, 39.0512
62.071938796, 96.390, 1512.0, 38.8844
62.098199361, 96.390, 1515.0, 38.9230
62.124459926, 96.390, 1491.0, 38.6135
62.150720492, 96.390, 1552.0, 39.3954
62.176981057, 96.390, 1508.0, 38.8330
62.203241622, 96.390, 1473.0, 38.3797
62.229502188, 96.390, 1501.0, 38.7427
62.255762753, 96.390, 1557.0, 39.4588
62.282023318, 96.390, 1637.0, 40.4599
62.308283884, 96.390, 1566.0, 39.5727
62.334544449, 96.390, 1533.0, 39.1535
62.360805015, 96.390, 1505.0, 38.7943
62.387065580, 96.390, 1575.0, 39.6863
62.413326145, 96.390, 1520.0, 38.9872
62.439586711, 96.390, 1479.0, 38.4578
62.465847276, 96.390, 1485.0, 38.5357
62.492107841, 96.390, 1492.0, 38.6264
62.518368407, 96.390, 1450.0, 38.0789
62.544628972, 96.390, 1484.0, 38.5227
62.570889537, 96.390, 1355.0, 36.8103
62.597150103, 96.390, 1342.0, 36.6333
62.623410668, 96.390, 1340.0, 36.6060
62.649671233, 96.390, 1257.0, 35.4542
62.675931799, 96.390, 1377.0, 37.1080
62.702192364, 96.390, 1299.0, 36.0416
62.728452930, 96.390, 1271.0, 35.6511
62.754713495, 96.390, 1306.0, 36.1386
62.780974060, 96.390, 1233.0, 35.1141
62.807234626, 96.390, 1238.0, 35.1852
62.833495191, 96.390, 1209.0, 34.7707
62.859755756, 96.390, 1229.0, 35.0571
62.886016322, 96.390, 1206.0, 34.7275
62.912276887, 96.390, 1200.0, 34.6410
62.938537452, 96.390, 1209.0, 34.7707
62.964798018, 96.390, 1162.0, 34.0881
62.991058583, 96.390, 1165.0, 34.1321
63.017319148, 96.390, 1199.0, 34.6266
63.043579714, 96.390, 1145.0, 33.8378
63.069840279, 96.390, 1108.0, 33.2866
63.096100844, 96.390, 1148.0, 33.8821
63.122361410, 96.390, 1088.0, 32.9848
63.148621975, 96.390, 1119.0, 33.4515
63.174882541, 96.390, 1051.0, 32.4191
63.201143106, 96.390, 1022.0, 31.9687
63.227403671, 96.390, 1028.0, 32.0624
63.253664237, 96.390, 1071.0, 32.7261
63.279924802, 96.390, 1059.0, 32.5423
63.306185367, 96.390, 1063.0, 32.6037
63.332445933, 96.390, 1008.0, 31.7490
63.358706498, 96.390, 968.0, 31.1127
63.384967063, 96.390, 1007.0, 31.7333
63.411227629, 96.390, 1026.0, 32.0312
63.437488194, 96.390, 985.0, 31.3847
63.463748759, 96.390, 990.0, 31.4643
63.490009325, 96.390, 1013.0, 31.8277
63.516269890, 96.390, 944.0, 30.7246
63.542530455, 96.390, 941.0, 30.6757
63.568791021, 96.390, 999.0, 31.6070
63.595051586, 96.390, 902.0, 30.0333
63.621312152, 96.390, 980.0, 31.3050
63.647572717, 96.390, 968.0, 31.1127
63.673833282, 96.390, 964.0, 31.0483
63.700093848, 96.390, 944.0, 30.7246
63.726354413, 96.390, 899.0, 29.9833
63.752614978, 96.390, 950.0, 30.8221
63.778875544, 96.390, 947.0, 30.7734
63.805136109, 96.390, 920.0, 30.3315
63.831396674, 96.390, 950.0, 30.8221
63.857657240, 96.390, 985.0, 31.3847
63.883917805, 96.390, 955.0, 30.9031
63.910178370, 96.390, 887.0, 29.7825
63.936438936, 96.390, 918.0, 30.2985
63.962699501, 96.390, 945.0, 30.7409
63.988960067, 96.390, 923.0, 30.3809
64.015220632, 96.390, 897.0, 29.9500
64.041481197, 96.390, 913.0, 30.2159
64.067741763, 96.390, 874.0, 29.5635
64.094002328, 96.390, 871.0, 29.5127
64.120262893, 96.390, 855.0, 29.2404
64.146523459, 96.390, 921.0, 30.3480
64.172784024, 96.390, 873.0, 29.5466
64.199044589, 96.390, 862.0, 29.3598
64.225305155, 96.390, 857.0, 29.2746
64.251565720, 96.390, 894.0, 29.8998
64.277826285, 96.390, 907.0, 30.1164
64.304086851, 96.390, 880.0, 29.6648
64.330347416, 96.390, 875.0, 29.5804
64.356607981, 96.390, 876.0, 29.5973
64.382868547, 96.390, 867.0, 29.4449
64.409129112, 96.390, 803.0, 28.3373
64.435389678, 96.390, 888.0, 29.7993
64.461650243, 96.390, 827.0, 28.7576
64.487910808, 96.390, 848.0, 29.1204
64.514171374, 96.390, 863.0, 29.3769
64.540431939, 96.390, 893.0, 29.8831
64.566692504, 96.390, 795.0, 28.1957
64.592953070, 96.390, 799.0, 28.2666
64.619213635, 96.390, 846.0, 29.0861
64.645474200, 96.390, 844.0, 29.0517
64.671734766, 96.390, 841.0, 29.0000
64.697995331, 96.390, 887.0, 29.7825
64.724255896, 96.390, 832.0, 28.8444
64.750516462, 96.390, 809.0, 28.4429
64.776777027, 96.390, 818.0, 28.6007
64.803037593, 96.390, 838.0, 28.9482
64.829298158, 96.390, 850.0, 29.1548
64.855558723, 96.390, 829.0, 28.7924
64.881819289, 96.390, 806.0, 28.3901
64.908079854, 96.390, 813.0, 28.5132
64.934340419, 96.390, 804.0, 28.3549
64.960600985, 96.390, 817.0, 28.5832
64.986861550, 96.390, 865.0, 29.4109
