[Measurement conditions]
Sample identification,XRD_SiAxial12Jan22_Act07Feb22_B3_0310M_NaOH_LS0117_1
Comment - 1,"Configuration=Stage for Flat Samples/Holders, Owner=User-1, Creation date=7/1/2020 9:53:24 AM"
Comment - 2,"Goniometer=Theta/Theta; Minimum step size 2Theta:0.0001; Minimum step size Omega:0.0001"
Comment - 3,"Sample stage=Stage for flat samples/holders"
Comment - 4,"Diffractometer system=EMPYREAN"
Comment - 5,"Measurement program=C:\Users\ibo5034\OneDrive - The Pennsylvania State University\NEUP - Reed, Titus's files\XRD\Cement\Zerobackground scan.xrdmp, Identifier={98A3B11C-88F9-4AA6-982C-73314A311EF5}"
Anode material,Cu
K-Alpha1 wavelength,1.5405980
K-Alpha2 wavelength,1.5444260
Ratio K-Alpha2/K-Alpha1,0.500
Divergence slit,Fixed,0.25
Monochromator used,NO
Generator voltage, 45
Tube current, 40
File date and time,10/Feb/2022 13:38
Unit cell,
h k l, 0 0 0
Scan axis,Gonio
Scan range,4.994599997,64.999991833
Scan step size,0.0262606
No. of points, 2285
Scan type,CONTINUOUS
Time per step,96.390
[Scan points]
Angle, TimePerStep, Intensity, ESD
5.007730280, 96.390, 5523.0, 74.3169
5.033990845, 96.390, 5644.0, 75.1266
5.060251411, 96.390, 5621.0, 74.9733
5.086511976, 96.390, 5696.0, 75.4718
5.112772541, 96.390, 5497.0, 74.1418
5.139033107, 96.390, 5568.0, 74.6190
5.165293672, 96.390, 5578.0, 74.6860
5.191554237, 96.390, 5486.0, 74.0675
5.217814803, 96.390, 5351.0, 73.1505
5.244075368, 96.390, 5322.0, 72.9520
5.270335934, 96.390, 5299.0, 72.7942
5.296596499, 96.390, 5409.0, 73.5459
5.322857064, 96.390, 5394.0, 73.4439
5.349117630, 96.390, 5332.0, 73.0205
5.375378195, 96.390, 5208.0, 72.1665
5.401638760, 96.390, 5189.0, 72.0347
5.427899326, 96.390, 5208.0, 72.1665
5.454159891, 96.390, 5133.0, 71.6450
5.480420456, 96.390, 5233.0, 72.3395
5.506681022, 96.390, 5119.0, 71.5472
5.532941587, 96.390, 5068.0, 71.1899
5.559202152, 96.390, 4997.0, 70.6895
5.585462718, 96.390, 5100.0, 71.4143
5.611723283, 96.390, 5227.0, 72.2980
5.637983849, 96.390, 4984.0, 70.5975
5.664244414, 96.390, 4975.0, 70.5337
5.690504979, 96.390, 4947.0, 70.3349
5.716765545, 96.390, 5005.0, 70.7460
5.743026110, 96.390, 4964.0, 70.4557
5.769286675, 96.390, 5024.0, 70.8802
5.795547241, 96.390, 4879.0, 69.8498
5.821807806, 96.390, 4885.0, 69.8928
5.848068371, 96.390, 5024.0, 70.8802
5.874328937, 96.390, 4834.0, 69.5270
5.900589502, 96.390, 4856.0, 69.6850
5.926850067, 96.390, 4876.0, 69.8284
5.953110633, 96.390, 4867.0, 69.7639
5.979371198, 96.390, 4953.0, 70.3776
6.005631763, 96.390, 4715.0, 68.6659
6.031892329, 96.390, 4747.0, 68.8985
6.058152894, 96.390, 4599.0, 67.8159
6.084413460, 96.390, 4658.0, 68.2495
6.110674025, 96.390, 4715.0, 68.6659
6.136934590, 96.390, 4765.0, 69.0290
6.163195156, 96.390, 4692.0, 68.4982
6.189455721, 96.390, 4691.0, 68.4909
6.215716286, 96.390, 4682.0, 68.4251
6.241976852, 96.390, 4677.0, 68.3886
6.268237417, 96.390, 4741.0, 68.8549
6.294497982, 96.390, 4686.0, 68.4544
6.320758548, 96.390, 4730.0, 68.7750
6.347019113, 96.390, 4694.0, 68.5128
6.373279678, 96.390, 4727.0, 68.7532
6.399540244, 96.390, 4658.0, 68.2495
6.425800809, 96.390, 4637.0, 68.0955
6.452061375, 96.390, 4561.0, 67.5352
6.478321940, 96.390, 4631.0, 68.0515
6.504582505, 96.390, 4641.0, 68.1249
6.530843071, 96.390, 4598.0, 67.8086
6.557103636, 96.390, 4533.0, 67.3276
6.583364201, 96.390, 4504.0, 67.1118
6.609624767, 96.390, 4458.0, 66.7683
6.635885332, 96.390, 4572.0, 67.6166
6.662145897, 96.390, 4519.0, 67.2235
6.688406463, 96.390, 4402.0, 66.3476
6.714667028, 96.390, 4561.0, 67.5352
6.740927593, 96.390, 4495.0, 67.0448
6.767188159, 96.390, 4457.0, 66.7608
6.793448724, 96.390, 4393.0, 66.2797
6.819709289, 96.390, 4615.0, 67.9338
6.845969855, 96.390, 4353.0, 65.9773
6.872230420, 96.390, 4424.0, 66.5132
6.898490986, 96.390, 4506.0, 67.1267
6.924751551, 96.390, 4411.0, 66.4154
6.951012116, 96.390, 4470.0, 66.8581
6.977272682, 96.390, 4445.0, 66.6708
7.003533247, 96.390, 4421.0, 66.4906
7.029793812, 96.390, 4482.0, 66.9477
7.056054378, 96.390, 4434.0, 66.5883
7.082314943, 96.390, 4469.0, 66.8506
7.108575508, 96.390, 4378.0, 66.1665
7.134836074, 96.390, 4315.0, 65.6887
7.161096639, 96.390, 4368.0, 66.0908
7.187357204, 96.390, 4246.0, 65.1613
7.213617770, 96.390, 4377.0, 66.1589
7.239878335, 96.390, 4290.0, 65.4981
7.266138900, 96.390, 4257.0, 65.2457
7.292399466, 96.390, 4338.0, 65.8635
7.318660031, 96.390, 4341.0, 65.8863
7.344920597, 96.390, 4212.0, 64.8999
7.371181162, 96.390, 4321.0, 65.7343
7.397441727, 96.390, 4249.0, 65.1844
7.423702293, 96.390, 4210.0, 64.8845
7.449962858, 96.390, 4215.0, 64.9230
7.476223423, 96.390, 4328.0, 65.7875
7.502483989, 96.390, 4249.0, 65.1844
7.528744554, 96.390, 4208.0, 64.8691
7.555005119, 96.390, 4330.0, 65.8027
7.581265685, 96.390, 4212.0, 64.8999
7.607526250, 96.390, 4136.0, 64.3117
7.633786815, 96.390, 4143.0, 64.3661
7.660047381, 96.390, 4118.0, 64.1716
7.686307946, 96.390, 4307.0, 65.6277
7.712568512, 96.390, 4165.0, 64.5368
7.738829077, 96.390, 4136.0, 64.3117
7.765089642, 96.390, 4230.0, 65.0385
7.791350208, 96.390, 3984.0, 63.1189
7.817610773, 96.390, 4036.0, 63.5295
7.843871338, 96.390, 4039.0, 63.5531
7.870131904, 96.390, 4194.0, 64.7611
7.896392469, 96.390, 4209.0, 64.8768
7.922653034, 96.390, 4177.0, 64.6297
7.948913600, 96.390, 4107.0, 64.0859
7.975174165, 96.390, 4125.0, 64.2262
8.001434730, 96.390, 3985.0, 63.1269
8.027695296, 96.390, 4103.0, 64.0547
8.053955861, 96.390, 4133.0, 64.2884
8.080216426, 96.390, 4084.0, 63.9062
8.106476992, 96.390, 3953.0, 62.8729
8.132737557, 96.390, 3965.0, 62.9682
8.158998123, 96.390, 3961.0, 62.9365
8.185258688, 96.390, 4031.0, 63.4902
8.211519253, 96.390, 3890.0, 62.3699
8.237779819, 96.390, 4035.0, 63.5216
8.264040384, 96.390, 4074.0, 63.8279
8.290300949, 96.390, 3977.0, 63.0635
8.316561515, 96.390, 3932.0, 62.7057
8.342822080, 96.390, 3884.0, 62.3217
8.369082645, 96.390, 4031.0, 63.4902
8.395343211, 96.390, 3942.0, 62.7853
8.421603776, 96.390, 3909.0, 62.5220
8.447864341, 96.390, 3875.0, 62.2495
8.474124907, 96.390, 3844.0, 62.0000
8.500385472, 96.390, 3910.0, 62.5300
8.526646038, 96.390, 3796.0, 61.6117
8.552906603, 96.390, 3848.0, 62.0322
8.579167168, 96.390, 3972.0, 63.0238
8.605427734, 96.390, 3950.0, 62.8490
8.631688299, 96.390, 3691.0, 60.7536
8.657948864, 96.390, 3804.0, 61.6766
8.684209430, 96.390, 3799.0, 61.6360
8.710469995, 96.390, 3871.0, 62.2174
8.736730560, 96.390, 3774.0, 61.4329
8.762991126, 96.390, 3767.0, 61.3759
8.789251691, 96.390, 3690.0, 60.7454
8.815512256, 96.390, 3715.0, 60.9508
8.841772822, 96.390, 3831.0, 61.8951
8.868033387, 96.390, 3751.0, 61.2454
8.894293952, 96.390, 3692.0, 60.7618
8.920554518, 96.390, 3678.0, 60.6465
8.946815083, 96.390, 3889.0, 62.3618
8.973075649, 96.390, 3770.0, 61.4003
8.999336214, 96.390, 3789.0, 61.5549
9.025596779, 96.390, 3710.0, 60.9098
9.051857345, 96.390, 3664.0, 60.5310
9.078117910, 96.390, 3686.0, 60.7124
9.104378475, 96.390, 3841.0, 61.9758
9.130639041, 96.390, 3720.0, 60.9918
9.156899606, 96.390, 3830.0, 61.8870
9.183160171, 96.390, 3585.0, 59.8749
9.209420737, 96.390, 3690.0, 60.7454
9.235681302, 96.390, 3644.0, 60.3656
9.261941867, 96.390, 3664.0, 60.5310
9.288202433, 96.390, 3605.0, 60.0417
9.314462998, 96.390, 3684.0, 60.6960
9.340723564, 96.390, 3687.0, 60.7207
9.366984129, 96.390, 3466.0, 58.8727
9.393244694, 96.390, 3597.0, 59.9750
9.419505260, 96.390, 3580.0, 59.8331
9.445765825, 96.390, 3610.0, 60.0833
9.472026390, 96.390, 3693.0, 60.7701
9.498286956, 96.390, 3563.0, 59.6909
9.524547521, 96.390, 3592.0, 59.9333
9.550808086, 96.390, 3540.0, 59.4979
9.577068652, 96.390, 3729.0, 61.0655
9.603329217, 96.390, 3490.0, 59.0762
9.629589782, 96.390, 3540.0, 59.4979
9.655850348, 96.390, 3507.0, 59.2199
9.682110913, 96.390, 3494.0, 59.1101
9.708371478, 96.390, 3581.0, 59.8415
9.734632044, 96.390, 3427.0, 58.5406
9.760892609, 96.390, 3347.0, 57.8533
9.787153175, 96.390, 3596.0, 59.9667
9.813413740, 96.390, 3542.0, 59.5147
9.839674305, 96.390, 3464.0, 58.8558
9.865934871, 96.390, 3381.0, 58.1464
9.892195436, 96.390, 3504.0, 59.1946
9.918456001, 96.390, 3434.0, 58.6003
9.944716567, 96.390, 3397.0, 58.2838
9.970977132, 96.390, 3409.0, 58.3866
9.997237697, 96.390, 3408.0, 58.3781
10.023498263, 96.390, 3568.0, 59.7327
10.049758828, 96.390, 3436.0, 58.6174
10.076019393, 96.390, 3438.0, 58.6345
10.102279959, 96.390, 3360.0, 57.9655
10.128540524, 96.390, 3418.0, 58.4637
10.154801090, 96.390, 3243.0, 56.9473
10.181061655, 96.390, 3289.0, 57.3498
10.207322220, 96.390, 3353.0, 57.9051
10.233582786, 96.390, 3292.0, 57.3760
10.259843351, 96.390, 3229.0, 56.8243
10.286103916, 96.390, 3359.0, 57.9569
10.312364482, 96.390, 3341.0, 57.8014
10.338625047, 96.390, 3369.0, 58.0431
10.364885612, 96.390, 3308.0, 57.5152
10.391146178, 96.390, 3343.0, 57.8187
10.417406743, 96.390, 3266.0, 57.1489
10.443667308, 96.390, 3269.0, 57.1752
10.469927874, 96.390, 3292.0, 57.3760
10.496188439, 96.390, 3274.0, 57.2189
10.522449004, 96.390, 3214.0, 56.6922
10.548709570, 96.390, 3348.0, 57.8619
10.574970135, 96.390, 3291.0, 57.3672
10.601230701, 96.390, 3268.0, 57.1664
10.627491266, 96.390, 3156.0, 56.1783
10.653751831, 96.390, 3210.0, 56.6569
10.680012397, 96.390, 3196.0, 56.5332
10.706272962, 96.390, 3217.0, 56.7186
10.732533527, 96.390, 3244.0, 56.9561
10.758794093, 96.390, 3276.0, 57.2364
10.785054658, 96.390, 3112.0, 55.7853
10.811315223, 96.390, 3144.0, 56.0714
10.837575789, 96.390, 3138.0, 56.0179
10.863836354, 96.390, 3218.0, 56.7274
10.890096919, 96.390, 3151.0, 56.1338
10.916357485, 96.390, 3072.0, 55.4256
10.942618050, 96.390, 3118.0, 55.8391
10.968878616, 96.390, 3057.0, 55.2901
10.995139181, 96.390, 3073.0, 55.4346
11.021399746, 96.390, 3120.0, 55.8570
11.047660312, 96.390, 3240.0, 56.9210
11.073920877, 96.390, 3204.0, 56.6039
11.100181442, 96.390, 3053.0, 55.2540
11.126442008, 96.390, 3023.0, 54.9818
11.152702573, 96.390, 3147.0, 56.0981
11.178963138, 96.390, 3057.0, 55.2901
11.205223704, 96.390, 3075.0, 55.4527
11.231484269, 96.390, 3134.0, 55.9821
11.257744834, 96.390, 3040.0, 55.1362
11.284005400, 96.390, 3061.0, 55.3263
11.310265965, 96.390, 3106.0, 55.7315
11.336526530, 96.390, 3084.0, 55.5338
11.362787096, 96.390, 3178.0, 56.3738
11.389047661, 96.390, 3094.0, 55.6237
11.415308227, 96.390, 3088.0, 55.5698
11.441568792, 96.390, 3031.0, 55.0545
11.467829357, 96.390, 2981.0, 54.5985
11.494089923, 96.390, 2932.0, 54.1479
11.520350488, 96.390, 3096.0, 55.6417
11.546611053, 96.390, 2929.0, 54.1202
11.572871619, 96.390, 3073.0, 55.4346
11.599132184, 96.390, 2942.0, 54.2402
11.625392749, 96.390, 3033.0, 55.0727
11.651653315, 96.390, 2975.0, 54.5436
11.677913880, 96.390, 2938.0, 54.2033
11.704174445, 96.390, 2961.0, 54.4151
11.730435011, 96.390, 2971.0, 54.5069
11.756695576, 96.390, 3020.0, 54.9545
11.782956141, 96.390, 2859.0, 53.4696
11.809216707, 96.390, 3024.0, 54.9909
11.835477272, 96.390, 2901.0, 53.8609
11.861737838, 96.390, 2952.0, 54.3323
11.887998403, 96.390, 2905.0, 53.8981
11.914258968, 96.390, 2925.0, 54.0833
11.940519534, 96.390, 2881.0, 53.6749
11.966780099, 96.390, 2870.0, 53.5724
11.993040664, 96.390, 2881.0, 53.6749
12.019301230, 96.390, 2868.0, 53.5537
12.045561795, 96.390, 2841.0, 53.3010
12.071822360, 96.390, 2854.0, 53.4228
12.098082926, 96.390, 2864.0, 53.5164
12.124343491, 96.390, 2820.0, 53.1037
12.150604056, 96.390, 2753.0, 52.4690
12.176864622, 96.390, 2796.0, 52.8772
12.203125187, 96.390, 2820.0, 53.1037
12.229385753, 96.390, 2885.0, 53.7122
12.255646318, 96.390, 2817.0, 53.0754
12.281906883, 96.390, 2778.0, 52.7067
12.308167449, 96.390, 2762.0, 52.5547
12.334428014, 96.390, 2787.0, 52.7920
12.360688579, 96.390, 2804.0, 52.9528
12.386949145, 96.390, 2777.0, 52.6972
12.413209710, 96.390, 2745.0, 52.3927
12.439470275, 96.390, 2766.0, 52.5928
12.465730841, 96.390, 2782.0, 52.7447
12.491991406, 96.390, 2721.0, 52.1632
12.518251971, 96.390, 2785.0, 52.7731
12.544512537, 96.390, 2720.0, 52.1536
12.570773102, 96.390, 2780.0, 52.7257
12.597033667, 96.390, 2684.0, 51.8073
12.623294233, 96.390, 2724.0, 52.1920
12.649554798, 96.390, 2822.0, 53.1225
12.675815364, 96.390, 2644.0, 51.4198
12.702075929, 96.390, 2757.0, 52.5071
12.728336494, 96.390, 2658.0, 51.5558
12.754597060, 96.390, 2674.0, 51.7107
12.780857625, 96.390, 2714.0, 52.0961
12.807118190, 96.390, 2643.0, 51.4101
12.833378756, 96.390, 2847.0, 53.3573
12.859639321, 96.390, 2686.0, 51.8266
12.885899886, 96.390, 2686.0, 51.8266
12.912160452, 96.390, 2720.0, 52.1536
12.938421017, 96.390, 2722.0, 52.1728
12.964681582, 96.390, 2662.0, 51.5946
12.990942148, 96.390, 2638.0, 51.3615
13.017202713, 96.390, 2683.0, 51.7977
13.043463279, 96.390, 2684.0, 51.8073
13.069723844, 96.390, 2534.0, 50.3389
13.095984409, 96.390, 2657.0, 51.5461
13.122244975, 96.390, 2588.0, 50.8724
13.148505540, 96.390, 2548.0, 50.4777
13.174766105, 96.390, 2624.0, 51.2250
13.201026671, 96.390, 2727.0, 52.2207
13.227287236, 96.390, 2610.0, 51.0882
13.253547801, 96.390, 2618.0, 51.1664
13.279808367, 96.390, 2585.0, 50.8429
13.306068932, 96.390, 2630.0, 51.2835
13.332329497, 96.390, 2658.0, 51.5558
13.358590063, 96.390, 2605.0, 51.0392
13.384850628, 96.390, 2583.0, 50.8232
13.411111193, 96.390, 2545.0, 50.4480
13.437371759, 96.390, 2636.0, 51.3420
13.463632324, 96.390, 2599.0, 50.9804
13.489892890, 96.390, 2561.0, 50.6063
13.516153455, 96.390, 2528.0, 50.2792
13.542414020, 96.390, 2492.0, 49.9199
13.568674586, 96.390, 2509.0, 50.0899
13.594935151, 96.390, 2544.0, 50.4381
13.621195716, 96.390, 2591.0, 50.9019
13.647456282, 96.390, 2545.0, 50.4480
13.673716847, 96.390, 2617.0, 51.1566
13.699977412, 96.390, 2579.0, 50.7839
13.726237978, 96.390, 2584.0, 50.8331
13.752498543, 96.390, 2595.0, 50.9411
13.778759108, 96.390, 2563.0, 50.6261
13.805019674, 96.390, 2446.0, 49.4571
13.831280239, 96.390, 2548.0, 50.4777
13.857540805, 96.390, 2623.0, 51.2152
13.883801370, 96.390, 2502.0, 50.0200
13.910061935, 96.390, 2509.0, 50.0899
13.936322501, 96.390, 2515.0, 50.1498
13.962583066, 96.390, 2537.0, 50.3686
13.988843631, 96.390, 2584.0, 50.8331
14.015104197, 96.390, 2474.0, 49.7393
14.041364762, 96.390, 2530.0, 50.2991
14.067625327, 96.390, 2537.0, 50.3686
14.093885893, 96.390, 2474.0, 49.7393
14.120146458, 96.390, 2514.0, 50.1398
14.146407023, 96.390, 2475.0, 49.7494
14.172667589, 96.390, 2491.0, 49.9099
14.198928154, 96.390, 2512.0, 50.1199
14.225188719, 96.390, 2458.0, 49.5782
14.251449285, 96.390, 2486.0, 49.8598
14.277709850, 96.390, 2450.0, 49.4975
14.303970416, 96.390, 2467.0, 49.6689
14.330230981, 96.390, 2532.0, 50.3190
14.356491546, 96.390, 2518.0, 50.1797
14.382752112, 96.390, 2557.0, 50.5668
14.409012677, 96.390, 2528.0, 50.2792
14.435273242, 96.390, 2418.0, 49.1732
14.461533808, 96.390, 2486.0, 49.8598
14.487794373, 96.390, 2414.0, 49.1325
14.514054938, 96.390, 2478.0, 49.7795
14.540315504, 96.390, 2357.0, 48.5489
14.566576069, 96.390, 2480.0, 49.7996
14.592836634, 96.390, 2410.0, 49.0918
14.619097200, 96.390, 2360.0, 48.5798
14.645357765, 96.390, 2472.0, 49.7192
14.671618331, 96.390, 2423.0, 49.2240
14.697878896, 96.390, 2467.0, 49.6689
14.724139461, 96.390, 2453.0, 49.5278
14.750400027, 96.390, 2413.0, 49.1223
14.776660592, 96.390, 2361.0, 48.5901
14.802921157, 96.390, 2487.0, 49.8698
14.829181723, 96.390, 2459.0, 49.5883
14.855442288, 96.390, 2465.0, 49.6488
14.881702853, 96.390, 2391.0, 48.8979
14.907963419, 96.390, 2334.0, 48.3115
14.934223984, 96.390, 2399.0, 48.9796
14.960484549, 96.390, 2437.0, 49.3660
14.986745115, 96.390, 2385.0, 48.8365
15.013005680, 96.390, 2487.0, 49.8698
15.039266245, 96.390, 2416.0, 49.1528
15.065526811, 96.390, 2427.0, 49.2646
15.091787376, 96.390, 2437.0, 49.3660
15.118047942, 96.390, 2342.0, 48.3942
15.144308507, 96.390, 2387.0, 48.8569
15.170569072, 96.390, 2433.0, 49.3254
15.196829638, 96.390, 2443.0, 49.4267
15.223090203, 96.390, 2397.0, 48.9592
15.249350768, 96.390, 2371.0, 48.6929
15.275611334, 96.390, 2413.0, 49.1223
15.301871899, 96.390, 2446.0, 49.4571
15.328132464, 96.390, 2408.0, 49.0714
15.354393030, 96.390, 2405.0, 49.0408
15.380653595, 96.390, 2404.0, 49.0306
15.406914160, 96.390, 2429.0, 49.2849
15.433174726, 96.390, 2390.0, 48.8876
15.459435291, 96.390, 2470.0, 49.6991
15.485695857, 96.390, 2342.0, 48.3942
15.511956422, 96.390, 2413.0, 49.1223
15.538216987, 96.390, 2336.0, 48.3322
15.564477553, 96.390, 2300.0, 47.9583
15.590738118, 96.390, 2366.0, 48.6415
15.616998683, 96.390, 2381.0, 48.7955
15.643259249, 96.390, 2383.0, 48.8160
15.669519814, 96.390, 2348.0, 48.4562
15.695780379, 96.390, 2432.0, 49.3153
15.722040945, 96.390, 2425.0, 49.2443
15.748301510, 96.390, 2382.0, 48.8057
15.774562075, 96.390, 2349.0, 48.4665
15.800822641, 96.390, 2422.0, 49.2138
15.827083206, 96.390, 2298.0, 47.9375
15.853343771, 96.390, 2412.0, 49.1121
15.879604337, 96.390, 2413.0, 49.1223
15.905864902, 96.390, 2349.0, 48.4665
15.932125468, 96.390, 2434.0, 49.3356
15.958386033, 96.390, 2393.0, 48.9183
15.984646598, 96.390, 2308.0, 48.0416
16.010907164, 96.390, 2378.0, 48.7647
16.037167729, 96.390, 2420.0, 49.1935
16.063428294, 96.390, 2371.0, 48.6929
16.089688860, 96.390, 2392.0, 48.9081
16.115949425, 96.390, 2462.0, 49.6185
16.142209990, 96.390, 2441.0, 49.4065
16.168470556, 96.390, 2419.0, 49.1833
16.194731121, 96.390, 2406.0, 49.0510
16.220991686, 96.390, 2383.0, 48.8160
16.247252252, 96.390, 2368.0, 48.6621
16.273512817, 96.390, 2456.0, 49.5580
16.299773382, 96.390, 2447.0, 49.4672
16.326033948, 96.390, 2381.0, 48.7955
16.352294513, 96.390, 2427.0, 49.2646
16.378555079, 96.390, 2430.0, 49.2950
16.404815644, 96.390, 2446.0, 49.4571
16.431076209, 96.390, 2509.0, 50.0899
16.457336775, 96.390, 2447.0, 49.4672
16.483597340, 96.390, 2450.0, 49.4975
16.509857905, 96.390, 2459.0, 49.5883
16.536118471, 96.390, 2435.0, 49.3457
16.562379036, 96.390, 2352.0, 48.4974
16.588639601, 96.390, 2453.0, 49.5278
16.614900167, 96.390, 2515.0, 50.1498
16.641160732, 96.390, 2346.0, 48.4355
16.667421297, 96.390, 2443.0, 49.4267
16.693681863, 96.390, 2424.0, 49.2341
16.719942428, 96.390, 2439.0, 49.3862
16.746202994, 96.390, 2494.0, 49.9400
16.772463559, 96.390, 2483.0, 49.8297
16.798724124, 96.390, 2431.0, 49.3052
16.824984690, 96.390, 2425.0, 49.2443
16.851245255, 96.390, 2399.0, 48.9796
16.877505820, 96.390, 2452.0, 49.5177
16.903766386, 96.390, 2412.0, 49.1121
16.930026951, 96.390, 2521.0, 50.2096
16.956287516, 96.390, 2392.0, 48.9081
16.982548082, 96.390, 2467.0, 49.6689
17.008808647, 96.390, 2518.0, 50.1797
17.035069212, 96.390, 2495.0, 49.9500
17.061329778, 96.390, 2472.0, 49.7192
17.087590343, 96.390, 2560.0, 50.5964
17.113850908, 96.390, 2553.0, 50.5272
17.140111474, 96.390, 2531.0, 50.3090
17.166372039, 96.390, 2440.0, 49.3964
17.192632605, 96.390, 2435.0, 49.3457
17.218893170, 96.390, 2461.0, 49.6085
17.245153735, 96.390, 2488.0, 49.8799
17.271414301, 96.390, 2462.0, 49.6185
17.297674866, 96.390, 2563.0, 50.6261
17.323935431, 96.390, 2564.0, 50.6360
17.350195997, 96.390, 2478.0, 49.7795
17.376456562, 96.390, 2562.0, 50.6162
17.402717127, 96.390, 2527.0, 50.2693
17.428977693, 96.390, 2517.0, 50.1697
17.455238258, 96.390, 2440.0, 49.3964
17.481498823, 96.390, 2562.0, 50.6162
17.507759389, 96.390, 2505.0, 50.0500
17.534019954, 96.390, 2522.0, 50.2195
17.560280520, 96.390, 2568.0, 50.6754
17.586541085, 96.390, 2582.0, 50.8134
17.612801650, 96.390, 2600.0, 50.9902
17.639062216, 96.390, 2566.0, 50.6557
17.665322781, 96.390, 2540.0, 50.3984
17.691583346, 96.390, 2480.0, 49.7996
17.717843912, 96.390, 2648.0, 51.4587
17.744104477, 96.390, 2470.0, 49.6991
17.770365042, 96.390, 2561.0, 50.6063
17.796625608, 96.390, 2650.0, 51.4782
17.822886173, 96.390, 2676.0, 51.7301
17.849146738, 96.390, 2554.0, 50.5371
17.875407304, 96.390, 2550.0, 50.4975
17.901667869, 96.390, 2652.0, 51.4976
17.927928434, 96.390, 2678.0, 51.7494
17.954189000, 96.390, 2593.0, 50.9215
17.980449565, 96.390, 2543.0, 50.4282
18.006710131, 96.390, 2665.0, 51.6236
18.032970696, 96.390, 2645.0, 51.4296
18.059231261, 96.390, 2536.0, 50.3587
18.085491827, 96.390, 2630.0, 51.2835
18.111752392, 96.390, 2631.0, 51.2933
18.138012957, 96.390, 2634.0, 51.3225
18.164273523, 96.390, 2611.0, 51.0979
18.190534088, 96.390, 2610.0, 51.0882
18.216794653, 96.390, 2650.0, 51.4782
18.243055219, 96.390, 2681.0, 51.7784
18.269315784, 96.390, 2667.0, 51.6430
18.295576349, 96.390, 2655.0, 51.5267
18.321836915, 96.390, 2610.0, 51.0882
18.348097480, 96.390, 2628.0, 51.2640
18.374358046, 96.390, 2787.0, 52.7920
18.400618611, 96.390, 2778.0, 52.7067
18.426879176, 96.390, 2724.0, 52.1920
18.453139742, 96.390, 2673.0, 51.7011
18.479400307, 96.390, 2636.0, 51.3420
18.505660872, 96.390, 2757.0, 52.5071
18.531921438, 96.390, 2596.0, 50.9510
18.558182003, 96.390, 2599.0, 50.9804
18.584442568, 96.390, 2710.0, 52.0577
18.610703134, 96.390, 2699.0, 51.9519
18.636963699, 96.390, 2744.0, 52.3832
18.663224264, 96.390, 2765.0, 52.5833
18.689484830, 96.390, 2820.0, 53.1037
18.715745395, 96.390, 2817.0, 53.0754
18.742005960, 96.390, 2747.0, 52.4118
18.768266526, 96.390, 2807.0, 52.9811
18.794527091, 96.390, 2765.0, 52.5833
18.820787657, 96.390, 2742.0, 52.3641
18.847048222, 96.390, 2837.0, 53.2635
18.873308787, 96.390, 2812.0, 53.0283
18.899569353, 96.390, 2828.0, 53.1789
18.925829918, 96.390, 2757.0, 52.5071
18.952090483, 96.390, 2840.0, 53.2917
18.978351049, 96.390, 2802.0, 52.9339
19.004611614, 96.390, 2925.0, 54.0833
19.030872179, 96.390, 2752.0, 52.4595
19.057132745, 96.390, 2837.0, 53.2635
19.083393310, 96.390, 2884.0, 53.7029
19.109653875, 96.390, 2982.0, 54.6077
19.135914441, 96.390, 2800.0, 52.9150
19.162175006, 96.390, 2812.0, 53.0283
19.188435572, 96.390, 2849.0, 53.3760
19.214696137, 96.390, 2936.0, 54.1849
19.240956702, 96.390, 2866.0, 53.5350
19.267217268, 96.390, 2868.0, 53.5537
19.293477833, 96.390, 2902.0, 53.8702
19.319738398, 96.390, 3007.0, 54.8361
19.345998964, 96.390, 2922.0, 54.0555
19.372259529, 96.390, 2878.0, 53.6470
19.398520094, 96.390, 3064.0, 55.3534
19.424780660, 96.390, 2853.0, 53.4135
19.451041225, 96.390, 2994.0, 54.7175
19.477301790, 96.390, 3049.0, 55.2178
19.503562356, 96.390, 2931.0, 54.1387
19.529822921, 96.390, 2994.0, 54.7175
19.556083486, 96.390, 3003.0, 54.7996
19.582344052, 96.390, 3029.0, 55.0364
19.608604617, 96.390, 2995.0, 54.7266
19.634865183, 96.390, 3035.0, 55.0908
19.661125748, 96.390, 2918.0, 54.0185
19.687386313, 96.390, 3022.0, 54.9727
19.713646879, 96.390, 3049.0, 55.2178
19.739907444, 96.390, 2918.0, 54.0185
19.766168009, 96.390, 3000.0, 54.7723
19.792428575, 96.390, 3051.0, 55.2359
19.818689140, 96.390, 3008.0, 54.8452
19.844949705, 96.390, 2974.0, 54.5344
19.871210271, 96.390, 3177.0, 56.3649
19.897470836, 96.390, 3063.0, 55.3444
19.923731401, 96.390, 3094.0, 55.6237
19.949991967, 96.390, 3077.0, 55.4707
19.976252532, 96.390, 3098.0, 55.6597
20.002513097, 96.390, 3023.0, 54.9818
20.028773663, 96.390, 3148.0, 56.1070
20.055034228, 96.390, 3083.0, 55.5248
20.081294794, 96.390, 3020.0, 54.9545
20.107555359, 96.390, 3146.0, 56.0892
20.133815924, 96.390, 3139.0, 56.0268
20.160076490, 96.390, 3094.0, 55.6237
20.186337055, 96.390, 3129.0, 55.9375
20.212597620, 96.390, 3121.0, 55.8659
20.238858186, 96.390, 3052.0, 55.2449
20.265118751, 96.390, 3109.0, 55.7584
20.291379316, 96.390, 3178.0, 56.3738
20.317639882, 96.390, 3132.0, 55.9643
20.343900447, 96.390, 3268.0, 57.1664
20.370161012, 96.390, 3137.0, 56.0089
20.396421578, 96.390, 3283.0, 57.2975
20.422682143, 96.390, 3087.0, 55.5608
20.448942709, 96.390, 3260.0, 57.0964
20.475203274, 96.390, 3232.0, 56.8507
20.501463839, 96.390, 3238.0, 56.9034
20.527724405, 96.390, 3179.0, 56.3826
20.553984970, 96.390, 3211.0, 56.6657
20.580245535, 96.390, 3242.0, 56.9386
20.606506101, 96.390, 3105.0, 55.7225
20.632766666, 96.390, 3242.0, 56.9386
20.659027231, 96.390, 3249.0, 57.0000
20.685287797, 96.390, 3113.0, 55.7943
20.711548362, 96.390, 3216.0, 56.7098
20.737808927, 96.390, 3253.0, 57.0351
20.764069493, 96.390, 3377.0, 58.1120
20.790330058, 96.390, 3276.0, 57.2364
20.816590623, 96.390, 3271.0, 57.1927
20.842851189, 96.390, 3257.0, 57.0701
20.869111754, 96.390, 3266.0, 57.1489
20.895372320, 96.390, 3272.0, 57.2014
20.921632885, 96.390, 3169.0, 56.2939
20.947893450, 96.390, 3283.0, 57.2975
20.974154016, 96.390, 3317.0, 57.5934
21.000414581, 96.390, 3251.0, 57.0175
21.026675146, 96.390, 3305.0, 57.4891
21.052935712, 96.390, 3360.0, 57.9655
21.079196277, 96.390, 3396.0, 58.2752
21.105456842, 96.390, 3345.0, 57.8360
21.131717408, 96.390, 3259.0, 57.0877
21.157977973, 96.390, 3302.0, 57.4630
21.184238538, 96.390, 3379.0, 58.1292
21.210499104, 96.390, 3291.0, 57.3672
21.236759669, 96.390, 3247.0, 56.9825
21.263020235, 96.390, 3382.0, 58.1550
21.289280800, 96.390, 3281.0, 57.2800
21.315541365, 96.390, 3376.0, 58.1034
21.341801931, 96.390, 3311.0, 57.5413
21.368062496, 96.390, 3367.0, 58.0259
21.394323061, 96.390, 3440.0, 58.6515
21.420583627, 96.390, 3387.0, 58.1979
21.446844192, 96.390, 3371.0, 58.0603
21.473104757, 96.390, 3348.0, 57.8619
21.499365323, 96.390, 3456.0, 58.7878
21.525625888, 96.390, 3411.0, 58.4038
21.551886453, 96.390, 3376.0, 58.1034
21.578147019, 96.390, 3509.0, 59.2368
21.604407584, 96.390, 3389.0, 58.2151
21.630668149, 96.390, 3391.0, 58.2323
21.656928715, 96.390, 3354.0, 57.9137
21.683189280, 96.390, 3379.0, 58.1292
21.709449846, 96.390, 3380.0, 58.1378
21.735710411, 96.390, 3363.0, 57.9914
21.761970976, 96.390, 3313.0, 57.5587
21.788231542, 96.390, 3432.0, 58.5833
21.814492107, 96.390, 3451.0, 58.7452
21.840752672, 96.390, 3490.0, 59.0762
21.867013238, 96.390, 3328.0, 57.6888
21.893273803, 96.390, 3350.0, 57.8792
21.919534368, 96.390, 3435.0, 58.6089
21.945794934, 96.390, 3403.0, 58.3352
21.972055499, 96.390, 3391.0, 58.2323
21.998316064, 96.390, 3376.0, 58.1034
22.024576630, 96.390, 3389.0, 58.2151
22.050837195, 96.390, 3514.0, 59.2790
22.077097761, 96.390, 3474.0, 58.9406
22.103358326, 96.390, 3461.0, 58.8303
22.129618891, 96.390, 3387.0, 58.1979
22.155879457, 96.390, 3420.0, 58.4808
22.182140022, 96.390, 3464.0, 58.8558
22.208400587, 96.390, 3341.0, 57.8014
22.234661153, 96.390, 3291.0, 57.3672
22.260921718, 96.390, 3441.0, 58.6600
22.287182283, 96.390, 3350.0, 57.8792
22.313442849, 96.390, 3448.0, 58.7197
22.339703414, 96.390, 3419.0, 58.4722
22.365963979, 96.390, 3416.0, 58.4466
22.392224545, 96.390, 3327.0, 57.6802
22.418485110, 96.390, 3389.0, 58.2151
22.444745675, 96.390, 3428.0, 58.5491
22.471006241, 96.390, 3435.0, 58.6089
22.497266806, 96.390, 3443.0, 58.6771
22.523527372, 96.390, 3433.0, 58.5918
22.549787937, 96.390, 3337.0, 57.7668
22.576048502, 96.390, 3547.0, 59.5567
22.602309068, 96.390, 3313.0, 57.5587
22.628569633, 96.390, 3364.0, 58.0000
22.654830198, 96.390, 3235.0, 56.8771
22.681090764, 96.390, 3416.0, 58.4466
22.707351329, 96.390, 3423.0, 58.5064
22.733611894, 96.390, 3359.0, 57.9569
22.759872460, 96.390, 3340.0, 57.7927
22.786133025, 96.390, 3262.0, 57.1139
22.812393590, 96.390, 3301.0, 57.4543
22.838654156, 96.390, 3364.0, 58.0000
22.864914721, 96.390, 3260.0, 57.0964
22.891175287, 96.390, 3301.0, 57.4543
22.917435852, 96.390, 3405.0, 58.3524
22.943696417, 96.390, 3407.0, 58.3695
22.969956983, 96.390, 3385.0, 58.1808
22.996217548, 96.390, 3390.0, 58.2237
23.022478113, 96.390, 3243.0, 56.9473
23.048738679, 96.390, 3369.0, 58.0431
23.074999244, 96.390, 3272.0, 57.2014
23.101259809, 96.390, 3331.0, 57.7148
23.127520375, 96.390, 3347.0, 57.8533
23.153780940, 96.390, 3290.0, 57.3585
23.180041505, 96.390, 3321.0, 57.6281
23.206302071, 96.390, 3304.0, 57.4804
23.232562636, 96.390, 3251.0, 57.0175
23.258823201, 96.390, 3188.0, 56.4624
23.285083767, 96.390, 3201.0, 56.5774
23.311344332, 96.390, 3258.0, 57.0789
23.337604898, 96.390, 3223.0, 56.7715
23.363865463, 96.390, 3192.0, 56.4978
23.390126028, 96.390, 3219.0, 56.7362
23.416386594, 96.390, 3206.0, 56.6216
23.442647159, 96.390, 3271.0, 57.1927
23.468907724, 96.390, 3150.0, 56.1249
23.495168290, 96.390, 3152.0, 56.1427
23.521428855, 96.390, 3198.0, 56.5509
23.547689420, 96.390, 3219.0, 56.7362
23.573949986, 96.390, 3131.0, 55.9553
23.600210551, 96.390, 3184.0, 56.4269
23.626471116, 96.390, 3195.0, 56.5243
23.652731682, 96.390, 3151.0, 56.1338
23.678992247, 96.390, 3206.0, 56.6216
23.705252813, 96.390, 3110.0, 55.7674
23.731513378, 96.390, 3234.0, 56.8683
23.757773943, 96.390, 3152.0, 56.1427
23.784034509, 96.390, 3090.0, 55.5878
23.810295074, 96.390, 3179.0, 56.3826
23.836555639, 96.390, 3062.0, 55.3353
23.862816205, 96.390, 3148.0, 56.1070
23.889076770, 96.390, 3105.0, 55.7225
23.915337335, 96.390, 3063.0, 55.3444
23.941597901, 96.390, 3023.0, 54.9818
23.967858466, 96.390, 3075.0, 55.4527
23.994119031, 96.390, 3070.0, 55.4076
24.020379597, 96.390, 3102.0, 55.6956
24.046640162, 96.390, 3043.0, 55.1634
24.072900727, 96.390, 2935.0, 54.1756
24.099161293, 96.390, 2999.0, 54.7631
24.125421858, 96.390, 3051.0, 55.2359
24.151682424, 96.390, 3091.0, 55.5968
24.177942989, 96.390, 3205.0, 56.6127
24.204203554, 96.390, 2999.0, 54.7631
24.230464120, 96.390, 3045.0, 55.1815
24.256724685, 96.390, 3053.0, 55.2540
24.282985250, 96.390, 3003.0, 54.7996
24.309245816, 96.390, 3064.0, 55.3534
24.335506381, 96.390, 2949.0, 54.3047
24.361766946, 96.390, 2952.0, 54.3323
24.388027512, 96.390, 3031.0, 55.0545
24.414288077, 96.390, 2973.0, 54.5252
24.440548642, 96.390, 2945.0, 54.2679
24.466809208, 96.390, 2946.0, 54.2771
24.493069773, 96.390, 2965.0, 54.4518
24.519330338, 96.390, 2914.0, 53.9815
24.545590904, 96.390, 2944.0, 54.2586
24.571851469, 96.390, 2973.0, 54.5252
24.598112035, 96.390, 2921.0, 54.0463
24.624372600, 96.390, 2986.0, 54.6443
24.650633165, 96.390, 2894.0, 53.7959
24.676893731, 96.390, 2947.0, 54.2863
24.703154296, 96.390, 2882.0, 53.6843
24.729414861, 96.390, 2797.0, 52.8867
24.755675427, 96.390, 2925.0, 54.0833
24.781935992, 96.390, 2813.0, 53.0377
24.808196557, 96.390, 3004.0, 54.8088
24.834457123, 96.390, 2829.0, 53.1883
24.860717688, 96.390, 2841.0, 53.3010
24.886978253, 96.390, 2837.0, 53.2635
24.913238819, 96.390, 2972.0, 54.5161
24.939499384, 96.390, 2848.0, 53.3667
24.965759950, 96.390, 2872.0, 53.5910
24.992020515, 96.390, 2780.0, 52.7257
25.018281080, 96.390, 2815.0, 53.0566
25.044541646, 96.390, 2791.0, 52.8299
25.070802211, 96.390, 2811.0, 53.0189
25.097062776, 96.390, 2795.0, 52.8678
25.123323342, 96.390, 2851.0, 53.3948
25.149583907, 96.390, 2867.0, 53.5444
25.175844472, 96.390, 2764.0, 52.5738
25.202105038, 96.390, 2758.0, 52.5167
25.228365603, 96.390, 2772.0, 52.6498
25.254626168, 96.390, 2767.0, 52.6023
25.280886734, 96.390, 2731.0, 52.2590
25.307147299, 96.390, 2740.0, 52.3450
25.333407864, 96.390, 2676.0, 51.7301
25.359668430, 96.390, 2733.0, 52.2781
25.385928995, 96.390, 2744.0, 52.3832
25.412189561, 96.390, 2706.0, 52.0192
25.438450126, 96.390, 2667.0, 51.6430
25.464710691, 96.390, 2727.0, 52.2207
25.490971257, 96.390, 2757.0, 52.5071
25.517231822, 96.390, 2644.0, 51.4198
25.543492387, 96.390, 2711.0, 52.0673
25.569752953, 96.390, 2607.0, 51.0588
25.596013518, 96.390, 2627.0, 51.2543
25.622274083, 96.390, 2633.0, 51.3128
25.648534649, 96.390, 2655.0, 51.5267
25.674795214, 96.390, 2692.0, 51.8845
25.701055779, 96.390, 2681.0, 51.7784
25.727316345, 96.390, 2699.0, 51.9519
25.753576910, 96.390, 2621.0, 51.1957
25.779837476, 96.390, 2610.0, 51.0882
25.806098041, 96.390, 2619.0, 51.1762
25.832358606, 96.390, 2653.0, 51.5073
25.858619172, 96.390, 2627.0, 51.2543
25.884879737, 96.390, 2643.0, 51.4101
25.911140302, 96.390, 2649.0, 51.4684
25.937400868, 96.390, 2633.0, 51.3128
25.963661433, 96.390, 2640.0, 51.3809
25.989921998, 96.390, 2553.0, 50.5272
26.016182564, 96.390, 2663.0, 51.6043
26.042443129, 96.390, 2561.0, 50.6063
26.068703694, 96.390, 2655.0, 51.5267
26.094964260, 96.390, 2608.0, 51.0686
26.121224825, 96.390, 2598.0, 50.9706
26.147485390, 96.390, 2546.0, 50.4579
26.173745956, 96.390, 2651.0, 51.4879
26.200006521, 96.390, 2577.0, 50.7642
26.226267087, 96.390, 2464.0, 49.6387
26.252527652, 96.390, 2645.0, 51.4296
26.278788217, 96.390, 2642.0, 51.4004
26.305048783, 96.390, 2622.0, 51.2055
26.331309348, 96.390, 2576.0, 50.7543
26.357569913, 96.390, 2552.0, 50.5173
26.383830479, 96.390, 2514.0, 50.1398
26.410091044, 96.390, 2568.0, 50.6754
26.436351609, 96.390, 2499.0, 49.9900
26.462612175, 96.390, 2456.0, 49.5580
26.488872740, 96.390, 2555.0, 50.5470
26.515133305, 96.390, 2537.0, 50.3686
26.541393871, 96.390, 2430.0, 49.2950
26.567654436, 96.390, 2447.0, 49.4672
26.593915002, 96.390, 2517.0, 50.1697
26.620175567, 96.390, 2458.0, 49.5782
26.646436132, 96.390, 2544.0, 50.4381
26.672696698, 96.390, 2568.0, 50.6754
26.698957263, 96.390, 2485.0, 49.8498
26.725217828, 96.390, 2382.0, 48.8057
26.751478394, 96.390, 2541.0, 50.4083
26.777738959, 96.390, 2463.0, 49.6286
26.803999524, 96.390, 2413.0, 49.1223
26.830260090, 96.390, 2492.0, 49.9199
26.856520655, 96.390, 2491.0, 49.9099
26.882781220, 96.390, 2401.0, 49.0000
26.909041786, 96.390, 2474.0, 49.7393
26.935302351, 96.390, 2451.0, 49.5076
26.961562916, 96.390, 2443.0, 49.4267
26.987823482, 96.390, 2354.0, 48.5180
27.014084047, 96.390, 2340.0, 48.3735
27.040344613, 96.390, 2426.0, 49.2544
27.066605178, 96.390, 2415.0, 49.1426
27.092865743, 96.390, 2433.0, 49.3254
27.119126309, 96.390, 2453.0, 49.5278
27.145386874, 96.390, 2443.0, 49.4267
27.171647439, 96.390, 2324.0, 48.2079
27.197908005, 96.390, 2362.0, 48.6004
27.224168570, 96.390, 2416.0, 49.1528
27.250429135, 96.390, 2367.0, 48.6518
27.276689701, 96.390, 2349.0, 48.4665
27.302950266, 96.390, 2393.0, 48.9183
27.329210831, 96.390, 2382.0, 48.8057
27.355471397, 96.390, 2296.0, 47.9166
27.381731962, 96.390, 2420.0, 49.1935
27.407992528, 96.390, 2386.0, 48.8467
27.434253093, 96.390, 2311.0, 48.0729
27.460513658, 96.390, 2339.0, 48.3632
27.486774224, 96.390, 2380.0, 48.7852
27.513034789, 96.390, 2380.0, 48.7852
27.539295354, 96.390, 2319.0, 48.1560
27.565555920, 96.390, 2395.0, 48.9387
27.591816485, 96.390, 2448.0, 49.4773
27.618077050, 96.390, 2346.0, 48.4355
27.644337616, 96.390, 2300.0, 47.9583
27.670598181, 96.390, 2357.0, 48.5489
27.696858746, 96.390, 2370.0, 48.6826
27.723119312, 96.390, 2374.0, 48.7237
27.749379877, 96.390, 2396.0, 48.9490
27.775640442, 96.390, 2409.0, 49.0816
27.801901008, 96.390, 2293.0, 47.8853
27.828161573, 96.390, 2366.0, 48.6415
27.854422139, 96.390, 2293.0, 47.8853
27.880682704, 96.390, 2271.0, 47.6550
27.906943269, 96.390, 2357.0, 48.5489
27.933203835, 96.390, 2242.0, 47.3498
27.959464400, 96.390, 2245.0, 47.3814
27.985724965, 96.390, 2282.0, 47.7703
28.011985531, 96.390, 2327.0, 48.2390
28.038246096, 96.390, 2301.0, 47.9687
28.064506661, 96.390, 2262.0, 47.5605
28.090767227, 96.390, 2309.0, 48.0521
28.117027792, 96.390, 2328.0, 48.2494
28.143288357, 96.390, 2264.0, 47.5815
28.169548923, 96.390, 2257.0, 47.5079
28.195809488, 96.390, 2353.0, 48.5077
28.222070054, 96.390, 2240.0, 47.3286
28.248330619, 96.390, 2344.0, 48.4149
28.274591184, 96.390, 2282.0, 47.7703
28.300851750, 96.390, 2296.0, 47.9166
28.327112315, 96.390, 2294.0, 47.8957
28.353372880, 96.390, 2261.0, 47.5500
28.379633446, 96.390, 2258.0, 47.5184
28.405894011, 96.390, 2244.0, 47.3709
28.432154576, 96.390, 2361.0, 48.5901
28.458415142, 96.390, 2322.0, 48.1871
28.484675707, 96.390, 2251.0, 47.4447
28.510936272, 96.390, 2280.0, 47.7493
28.537196838, 96.390, 2233.0, 47.2546
28.563457403, 96.390, 2270.0, 47.6445
28.589717968, 96.390, 2262.0, 47.5605
28.615978534, 96.390, 2253.0, 47.4658
28.642239099, 96.390, 2276.0, 47.7074
28.668499665, 96.390, 2295.0, 47.9062
28.694760230, 96.390, 2229.0, 47.2123
28.721020795, 96.390, 2122.0, 46.0652
28.747281361, 96.390, 2297.0, 47.9270
28.773541926, 96.390, 2203.0, 46.9361
28.799802491, 96.390, 2235.0, 47.2758
28.826063057, 96.390, 2152.0, 46.3897
28.852323622, 96.390, 2287.0, 47.8226
28.878584187, 96.390, 2192.0, 46.8188
28.904844753, 96.390, 2261.0, 47.5500
28.931105318, 96.390, 2236.0, 47.2864
28.957365883, 96.390, 2192.0, 46.8188
28.983626449, 96.390, 2139.0, 46.2493
29.009887014, 96.390, 2190.0, 46.7974
29.036147579, 96.390, 2216.0, 47.0744
29.062408145, 96.390, 2326.0, 48.2286
29.088668710, 96.390, 2146.0, 46.3249
29.114929276, 96.390, 2184.0, 46.7333
29.141189841, 96.390, 2226.0, 47.1805
29.167450406, 96.390, 2227.0, 47.1911
29.193710972, 96.390, 2240.0, 47.3286
29.219971537, 96.390, 2178.0, 46.6690
29.246232102, 96.390, 2152.0, 46.3897
29.272492668, 96.390, 2088.0, 45.6946
29.298753233, 96.390, 2275.0, 47.6970
29.325013798, 96.390, 2240.0, 47.3286
29.351274364, 96.390, 2198.0, 46.8828
29.377534929, 96.390, 2173.0, 46.6154
29.403795494, 96.390, 2158.0, 46.4543
29.430056060, 96.390, 2133.0, 46.1844
29.456316625, 96.390, 2143.0, 46.2925
29.482577191, 96.390, 2150.0, 46.3681
29.508837756, 96.390, 2188.0, 46.7761
29.535098321, 96.390, 2149.0, 46.3573
29.561358887, 96.390, 2164.0, 46.5188
29.587619452, 96.390, 2140.0, 46.2601
29.613880017, 96.390, 2173.0, 46.6154
29.640140583, 96.390, 2179.0, 46.6798
29.666401148, 96.390, 2200.0, 46.9042
29.692661713, 96.390, 2247.0, 47.4025
29.718922279, 96.390, 2078.0, 45.5851
29.745182844, 96.390, 2071.0, 45.5082
29.771443409, 96.390, 2158.0, 46.4543
29.797703975, 96.390, 2158.0, 46.4543
29.823964540, 96.390, 2151.0, 46.3789
29.850225105, 96.390, 2236.0, 47.2864
29.876485671, 96.390, 2173.0, 46.6154
29.902746236, 96.390, 2208.0, 46.9894
29.929006802, 96.390, 2174.0, 46.6262
29.955267367, 96.390, 2180.0, 46.6905
29.981527932, 96.390, 2151.0, 46.3789
30.007788498, 96.390, 2197.0, 46.8722
30.034049063, 96.390, 2181.0, 46.7012
30.060309628, 96.390, 2156.0, 46.4327
30.086570194, 96.390, 2183.0, 46.7226
30.112830759, 96.390, 2122.0, 46.0652
30.139091324, 96.390, 2165.0, 46.5296
30.165351890, 96.390, 2131.0, 46.1628
30.191612455, 96.390, 2193.0, 46.8295
30.217873020, 96.390, 2122.0, 46.0652
30.244133586, 96.390, 2176.0, 46.6476
30.270394151, 96.390, 2127.0, 46.1194
30.296654717, 96.390, 2062.0, 45.4093
30.322915282, 96.390, 2163.0, 46.5081
30.349175847, 96.390, 2110.0, 45.9347
30.375436413, 96.390, 2112.0, 45.9565
30.401696978, 96.390, 2073.0, 45.5302
30.427957543, 96.390, 2114.0, 45.9783
30.454218109, 96.390, 2111.0, 45.9456
30.480478674, 96.390, 2172.0, 46.6047
30.506739239, 96.390, 2083.0, 45.6399
30.532999805, 96.390, 2078.0, 45.5851
30.559260370, 96.390, 2098.0, 45.8039
30.585520935, 96.390, 2076.0, 45.5631
30.611781501, 96.390, 2069.0, 45.4863
30.638042066, 96.390, 2146.0, 46.3249
30.664302631, 96.390, 2081.0, 45.6180
30.690563197, 96.390, 2088.0, 45.6946
30.716823762, 96.390, 2076.0, 45.5631
30.743084328, 96.390, 2055.0, 45.3321
30.769344893, 96.390, 2170.0, 46.5833
30.795605458, 96.390, 2159.0, 46.4650
30.821866024, 96.390, 2101.0, 45.8367
30.848126589, 96.390, 2111.0, 45.9456
30.874387154, 96.390, 2102.0, 45.8476
30.900647720, 96.390, 2016.0, 44.8999
30.926908285, 96.390, 2043.0, 45.1996
30.953168850, 96.390, 2070.0, 45.4973
30.979429416, 96.390, 2123.0, 46.0760
31.005689981, 96.390, 2064.0, 45.4313
31.031950546, 96.390, 1934.0, 43.9773
31.058211112, 96.390, 2097.0, 45.7930
31.084471677, 96.390, 2033.0, 45.0888
31.110732243, 96.390, 2044.0, 45.2106
31.136992808, 96.390, 2083.0, 45.6399
31.163253373, 96.390, 2083.0, 45.6399
31.189513939, 96.390, 2045.0, 45.2217
31.215774504, 96.390, 2071.0, 45.5082
31.242035069, 96.390, 2055.0, 45.3321
31.268295635, 96.390, 2050.0, 45.2769
31.294556200, 96.390, 2070.0, 45.4973
31.320816765, 96.390, 1965.0, 44.3283
31.347077331, 96.390, 2026.0, 45.0111
31.373337896, 96.390, 2002.0, 44.7437
31.399598461, 96.390, 2009.0, 44.8219
31.425859027, 96.390, 2029.0, 45.0444
31.452119592, 96.390, 2055.0, 45.3321
31.478380157, 96.390, 2032.0, 45.0777
31.504640723, 96.390, 2026.0, 45.0111
31.530901288, 96.390, 2058.0, 45.3652
31.557161854, 96.390, 2062.0, 45.4093
31.583422419, 96.390, 2029.0, 45.0444
31.609682984, 96.390, 2068.0, 45.4753
31.635943550, 96.390, 2007.0, 44.7996
31.662204115, 96.390, 1985.0, 44.5533
31.688464680, 96.390, 2018.0, 44.9222
31.714725246, 96.390, 2072.0, 45.5192
31.740985811, 96.390, 2054.0, 45.3211
31.767246376, 96.390, 2014.0, 44.8776
31.793506942, 96.390, 1978.0, 44.4747
31.819767507, 96.390, 1973.0, 44.4185
31.846028072, 96.390, 2037.0, 45.1331
31.872288638, 96.390, 1991.0, 44.6206
31.898549203, 96.390, 2023.0, 44.9778
31.924809769, 96.390, 1961.0, 44.2832
31.951070334, 96.390, 1982.0, 44.5197
31.977330899, 96.390, 1964.0, 44.3170
32.003591465, 96.390, 1993.0, 44.6430
32.029852030, 96.390, 1966.0, 44.3396
32.056112595, 96.390, 2000.0, 44.7214
32.082373161, 96.390, 1922.0, 43.8406
32.108633726, 96.390, 1993.0, 44.6430
32.134894291, 96.390, 2018.0, 44.9222
32.161154857, 96.390, 2016.0, 44.8999
32.187415422, 96.390, 1926.0, 43.8862
32.213675987, 96.390, 2004.0, 44.7661
32.239936553, 96.390, 1985.0, 44.5533
32.266197118, 96.390, 2021.0, 44.9555
32.292457683, 96.390, 1996.0, 44.6766
32.318718249, 96.390, 1933.0, 43.9659
32.344978814, 96.390, 1964.0, 44.3170
32.371239380, 96.390, 1993.0, 44.6430
32.397499945, 96.390, 1984.0, 44.5421
32.423760510, 96.390, 1898.0, 43.5660
32.450021076, 96.390, 1947.0, 44.1248
32.476281641, 96.390, 2004.0, 44.7661
32.502542206, 96.390, 1917.0, 43.7836
32.528802772, 96.390, 1993.0, 44.6430
32.555063337, 96.390, 1976.0, 44.4522
32.581323902, 96.390, 1968.0, 44.3621
32.607584468, 96.390, 1970.0, 44.3847
32.633845033, 96.390, 1952.0, 44.1814
32.660105598, 96.390, 1935.0, 43.9886
32.686366164, 96.390, 2067.0, 45.4643
32.712626729, 96.390, 1941.0, 44.0568
32.738887295, 96.390, 1986.0, 44.5646
32.765147860, 96.390, 1892.0, 43.4971
32.791408425, 96.390, 1964.0, 44.3170
32.817668991, 96.390, 1908.0, 43.6807
32.843929556, 96.390, 1914.0, 43.7493
32.870190121, 96.390, 1949.0, 44.1475
32.896450687, 96.390, 1949.0, 44.1475
32.922711252, 96.390, 1970.0, 44.3847
32.948971817, 96.390, 1956.0, 44.2267
32.975232383, 96.390, 1915.0, 43.7607
33.001492948, 96.390, 1934.0, 43.9773
33.027753513, 96.390, 1931.0, 43.9431
33.054014079, 96.390, 1970.0, 44.3847
33.080274644, 96.390, 1933.0, 43.9659
33.106535209, 96.390, 1957.0, 44.2380
33.132795775, 96.390, 1896.0, 43.5431
33.159056340, 96.390, 1934.0, 43.9773
33.185316906, 96.390, 1916.0, 43.7721
33.211577471, 96.390, 1868.0, 43.2204
33.237838036, 96.390, 1944.0, 44.0908
33.264098602, 96.390, 1900.0, 43.5890
33.290359167, 96.390, 1930.0, 43.9318
33.316619732, 96.390, 1949.0, 44.1475
33.342880298, 96.390, 1844.0, 42.9418
33.369140863, 96.390, 1826.0, 42.7317
33.395401428, 96.390, 1963.0, 44.3058
33.421661994, 96.390, 1865.0, 43.1856
33.447922559, 96.390, 1940.0, 44.0454
33.474183124, 96.390, 1896.0, 43.5431
33.500443690, 96.390, 1927.0, 43.8976
33.526704255, 96.390, 1900.0, 43.5890
33.552964820, 96.390, 1914.0, 43.7493
33.579225386, 96.390, 1848.0, 42.9884
33.605485951, 96.390, 1968.0, 44.3621
33.631746517, 96.390, 1784.0, 42.2374
33.658007082, 96.390, 1890.0, 43.4741
33.684267647, 96.390, 1861.0, 43.1393
33.710528213, 96.390, 1886.0, 43.4281
33.736788778, 96.390, 1950.0, 44.1588
33.763049343, 96.390, 1832.0, 42.8019
33.789309909, 96.390, 1969.0, 44.3734
33.815570474, 96.390, 1909.0, 43.6921
33.841831039, 96.390, 1921.0, 43.8292
33.868091605, 96.390, 1838.0, 42.8719
33.894352170, 96.390, 1863.0, 43.1625
33.920612735, 96.390, 1910.0, 43.7035
33.946873301, 96.390, 1859.0, 43.1161
33.973133866, 96.390, 1882.0, 43.3820
33.999394432, 96.390, 1863.0, 43.1625
34.025654997, 96.390, 1925.0, 43.8748
34.051915562, 96.390, 1923.0, 43.8520
34.078176128, 96.390, 1956.0, 44.2267
34.104436693, 96.390, 1837.0, 42.8602
34.130697258, 96.390, 1892.0, 43.4971
34.156957824, 96.390, 1948.0, 44.1362
34.183218389, 96.390, 1964.0, 44.3170
34.209478954, 96.390, 1873.0, 43.2782
34.235739520, 96.390, 1925.0, 43.8748
34.262000085, 96.390, 1945.0, 44.1022
34.288260650, 96.390, 1956.0, 44.2267
34.314521216, 96.390, 1933.0, 43.9659
34.340781781, 96.390, 1964.0, 44.3170
34.367042346, 96.390, 1942.0, 44.0681
34.393302912, 96.390, 1921.0, 43.8292
34.419563477, 96.390, 1944.0, 44.0908
34.445824043, 96.390, 1913.0, 43.7379
34.472084608, 96.390, 1937.0, 44.0114
34.498345173, 96.390, 1895.0, 43.5316
34.524605739, 96.390, 1938.0, 44.0227
34.550866304, 96.390, 1978.0, 44.4747
34.577126869, 96.390, 1964.0, 44.3170
34.603387435, 96.390, 1968.0, 44.3621
34.629648000, 96.390, 2041.0, 45.1774
34.655908565, 96.390, 1852.0, 43.0349
34.682169131, 96.390, 1893.0, 43.5086
34.708429696, 96.390, 1939.0, 44.0341
34.734690261, 96.390, 1949.0, 44.1475
34.760950827, 96.390, 1897.0, 43.5546
34.787211392, 96.390, 1938.0, 44.0227
34.813471958, 96.390, 1813.0, 42.5793
34.839732523, 96.390, 1938.0, 44.0227
34.865993088, 96.390, 1967.0, 44.3509
34.892253654, 96.390, 1969.0, 44.3734
34.918514219, 96.390, 1975.0, 44.4410
34.944774784, 96.390, 1949.0, 44.1475
34.971035350, 96.390, 1904.0, 43.6348
34.997295915, 96.390, 1945.0, 44.1022
35.023556480, 96.390, 1961.0, 44.2832
35.049817046, 96.390, 1990.0, 44.6094
35.076077611, 96.390, 2010.0, 44.8330
35.102338176, 96.390, 1931.0, 43.9431
35.128598742, 96.390, 1950.0, 44.1588
35.154859307, 96.390, 1920.0, 43.8178
35.181119872, 96.390, 1865.0, 43.1856
35.207380438, 96.390, 1945.0, 44.1022
35.233641003, 96.390, 1987.0, 44.5758
35.259901569, 96.390, 1954.0, 44.2041
35.286162134, 96.390, 1946.0, 44.1135
35.312422699, 96.390, 1959.0, 44.2606
35.338683265, 96.390, 1974.0, 44.4297
35.364943830, 96.390, 1870.0, 43.2435
35.391204395, 96.390, 1887.0, 43.4396
35.417464961, 96.390, 1925.0, 43.8748
35.443725526, 96.390, 1892.0, 43.4971
35.469986091, 96.390, 1865.0, 43.1856
35.496246657, 96.390, 1847.0, 42.9767
35.522507222, 96.390, 1964.0, 44.3170
35.548767787, 96.390, 1995.0, 44.6654
35.575028353, 96.390, 1895.0, 43.5316
35.601288918, 96.390, 1864.0, 43.1741
35.627549484, 96.390, 1977.0, 44.4635
35.653810049, 96.390, 1826.0, 42.7317
35.680070614, 96.390, 1895.0, 43.5316
35.706331180, 96.390, 1861.0, 43.1393
35.732591745, 96.390, 1918.0, 43.7950
35.758852310, 96.390, 1910.0, 43.7035
35.785112876, 96.390, 1842.0, 42.9185
35.811373441, 96.390, 1940.0, 44.0454
35.837634006, 96.390, 1841.0, 42.9069
35.863894572, 96.390, 1836.0, 42.8486
35.890155137, 96.390, 1882.0, 43.3820
35.916415702, 96.390, 1932.0, 43.9545
35.942676268, 96.390, 1883.0, 43.3935
35.968936833, 96.390, 1839.0, 42.8836
35.995197398, 96.390, 1744.0, 41.7612
36.021457964, 96.390, 1898.0, 43.5660
36.047718529, 96.390, 1916.0, 43.7721
36.073979095, 96.390, 1880.0, 43.3590
36.100239660, 96.390, 1878.0, 43.3359
36.126500225, 96.390, 1806.0, 42.4971
36.152760791, 96.390, 1819.0, 42.6497
36.179021356, 96.390, 1759.0, 41.9404
36.205281921, 96.390, 1843.0, 42.9302
36.231542487, 96.390, 1746.0, 41.7852
36.257803052, 96.390, 1824.0, 42.7083
36.284063617, 96.390, 1799.0, 42.4146
36.310324183, 96.390, 1828.0, 42.7551
36.336584748, 96.390, 1842.0, 42.9185
36.362845313, 96.390, 1858.0, 43.1045
36.389105879, 96.390, 1789.0, 42.2966
36.415366444, 96.390, 1825.0, 42.7200
36.441627010, 96.390, 1830.0, 42.7785
36.467887575, 96.390, 1787.0, 42.2729
36.494148140, 96.390, 1809.0, 42.5323
36.520408706, 96.390, 1803.0, 42.4617
36.546669271, 96.390, 1773.0, 42.1070
36.572929836, 96.390, 1748.0, 41.8091
36.599190402, 96.390, 1838.0, 42.8719
36.625450967, 96.390, 1749.0, 41.8210
36.651711532, 96.390, 1808.0, 42.5206
36.677972098, 96.390, 1771.0, 42.0833
36.704232663, 96.390, 1785.0, 42.2493
36.730493228, 96.390, 1772.0, 42.0951
36.756753794, 96.390, 1782.0, 42.2137
36.783014359, 96.390, 1725.0, 41.5331
36.809274924, 96.390, 1731.0, 41.6053
36.835535490, 96.390, 1764.0, 42.0000
36.861796055, 96.390, 1760.0, 41.9524
36.888056621, 96.390, 1794.0, 42.3556
36.914317186, 96.390, 1723.0, 41.5090
36.940577751, 96.390, 1761.0, 41.9643
36.966838317, 96.390, 1705.0, 41.2916
36.993098882, 96.390, 1772.0, 42.0951
37.019359447, 96.390, 1676.0, 40.9390
37.045620013, 96.390, 1731.0, 41.6053
37.071880578, 96.390, 1670.0, 40.8656
37.098141143, 96.390, 1671.0, 40.8779
37.124401709, 96.390, 1689.0, 41.0974
37.150662274, 96.390, 1673.0, 40.9023
37.176922839, 96.390, 1708.0, 41.3280
37.203183405, 96.390, 1656.0, 40.6940
37.229443970, 96.390, 1747.0, 41.7971
37.255704535, 96.390, 1649.0, 40.6079
37.281965101, 96.390, 1681.0, 41.0000
37.308225666, 96.390, 1619.0, 40.2368
37.334486232, 96.390, 1679.0, 40.9756
37.360746797, 96.390, 1693.0, 41.1461
37.387007362, 96.390, 1646.0, 40.5709
37.413267928, 96.390, 1631.0, 40.3856
37.439528493, 96.390, 1673.0, 40.9023
37.465789058, 96.390, 1677.0, 40.9512
37.492049624, 96.390, 1659.0, 40.7308
37.518310189, 96.390, 1689.0, 41.0974
37.544570754, 96.390, 1627.0, 40.3361
37.570831320, 96.390, 1571.0, 39.6358
37.597091885, 96.390, 1676.0, 40.9390
37.623352450, 96.390, 1559.0, 39.4842
37.649613016, 96.390, 1682.0, 41.0122
37.675873581, 96.390, 1620.0, 40.2492
37.702134147, 96.390, 1625.0, 40.3113
37.728394712, 96.390, 1577.0, 39.7115
37.754655277, 96.390, 1569.0, 39.6106
37.780915843, 96.390, 1645.0, 40.5586
37.807176408, 96.390, 1573.0, 39.6611
37.833436973, 96.390, 1573.0, 39.6611
37.859697539, 96.390, 1620.0, 40.2492
37.885958104, 96.390, 1558.0, 39.4715
37.912218669, 96.390, 1602.0, 40.0250
37.938479235, 96.390, 1541.0, 39.2556
37.964739800, 96.390, 1557.0, 39.4588
37.991000365, 96.390, 1655.0, 40.6817
38.017260931, 96.390, 1600.0, 40.0000
38.043521496, 96.390, 1659.0, 40.7308
38.069782061, 96.390, 1544.0, 39.2938
38.096042627, 96.390, 1533.0, 39.1535
38.122303192, 96.390, 1584.0, 39.7995
38.148563758, 96.390, 1541.0, 39.2556
38.174824323, 96.390, 1593.0, 39.9124
38.201084888, 96.390, 1528.0, 39.0896
38.227345454, 96.390, 1534.0, 39.1663
38.253606019, 96.390, 1655.0, 40.6817
38.279866584, 96.390, 1547.0, 39.3319
38.306127150, 96.390, 1592.0, 39.8999
38.332387715, 96.390, 1576.0, 39.6989
38.358648280, 96.390, 1552.0, 39.3954
38.384908846, 96.390, 1521.0, 39.0000
38.411169411, 96.390, 1515.0, 38.9230
38.437429976, 96.390, 1570.0, 39.6232
38.463690542, 96.390, 1541.0, 39.2556
38.489951107, 96.390, 1567.0, 39.5854
38.516211673, 96.390, 1487.0, 38.5616
38.542472238, 96.390, 1514.0, 38.9102
38.568732803, 96.390, 1497.0, 38.6911
38.594993369, 96.390, 1507.0, 38.8201
38.621253934, 96.390, 1436.0, 37.8946
38.647514499, 96.390, 1489.0, 38.5876
38.673775065, 96.390, 1653.0, 40.6571
38.700035630, 96.390, 1541.0, 39.2556
38.726296195, 96.390, 1508.0, 38.8330
38.752556761, 96.390, 1535.0, 39.1791
38.778817326, 96.390, 1426.0, 37.7624
38.805077891, 96.390, 1504.0, 38.7814
38.831338457, 96.390, 1514.0, 38.9102
38.857599022, 96.390, 1565.0, 39.5601
38.883859587, 96.390, 1473.0, 38.3797
38.910120153, 96.390, 1507.0, 38.8201
38.936380718, 96.390, 1510.0, 38.8587
38.962641284, 96.390, 1387.0, 37.2424
38.988901849, 96.390, 1517.0, 38.9487
39.015162414, 96.390, 1456.0, 38.1576
39.041422980, 96.390, 1394.0, 37.3363
39.067683545, 96.390, 1458.0, 38.1838
39.093944110, 96.390, 1436.0, 37.8946
39.120204676, 96.390, 1458.0, 38.1838
39.146465241, 96.390, 1444.0, 38.0000
39.172725806, 96.390, 1519.0, 38.9744
39.198986372, 96.390, 1426.0, 37.7624
39.225246937, 96.390, 1455.0, 38.1445
39.251507502, 96.390, 1467.0, 38.3014
39.277768068, 96.390, 1423.0, 37.7227
39.304028633, 96.390, 1362.0, 36.9053
39.330289199, 96.390, 1411.0, 37.5633
39.356549764, 96.390, 1448.0, 38.0526
39.382810329, 96.390, 1450.0, 38.0789
39.409070895, 96.390, 1390.0, 37.2827
39.435331460, 96.390, 1385.0, 37.2156
39.461592025, 96.390, 1379.0, 37.1349
39.487852591, 96.390, 1514.0, 38.9102
39.514113156, 96.390, 1403.0, 37.4566
39.540373721, 96.390, 1439.0, 37.9342
39.566634287, 96.390, 1432.0, 37.8418
39.592894852, 96.390, 1431.0, 37.8286
39.619155417, 96.390, 1395.0, 37.3497
39.645415983, 96.390, 1442.0, 37.9737
39.671676548, 96.390, 1397.0, 37.3765
39.697937113, 96.390, 1420.0, 37.6829
39.724197679, 96.390, 1389.0, 37.2693
39.750458244, 96.390, 1428.0, 37.7889
39.776718810, 96.390, 1438.0, 37.9210
39.802979375, 96.390, 1369.0, 37.0000
39.829239940, 96.390, 1360.0, 36.8782
39.855500506, 96.390, 1454.0, 38.1314
39.881761071, 96.390, 1333.0, 36.5103
39.908021636, 96.390, 1369.0, 37.0000
39.934282202, 96.390, 1424.0, 37.7359
39.960542767, 96.390, 1416.0, 37.6298
39.986803332, 96.390, 1328.0, 36.4417
40.013063898, 96.390, 1393.0, 37.3229
40.039324463, 96.390, 1382.0, 37.1753
40.065585028, 96.390, 1332.0, 36.4966
40.091845594, 96.390, 1326.0, 36.4143
40.118106159, 96.390, 1374.0, 37.0675
40.144366725, 96.390, 1405.0, 37.4833
40.170627290, 96.390, 1384.0, 37.2022
40.196887855, 96.390, 1375.0, 37.0810
40.223148421, 96.390, 1367.0, 36.9730
40.249408986, 96.390, 1394.0, 37.3363
40.275669551, 96.390, 1407.0, 37.5100
40.301930117, 96.390, 1329.0, 36.4555
40.328190682, 96.390, 1377.0, 37.1080
40.354451247, 96.390, 1400.0, 37.4166
40.380711813, 96.390, 1368.0, 36.9865
40.406972378, 96.390, 1312.0, 36.2215
40.433232943, 96.390, 1310.0, 36.1939
40.459493509, 96.390, 1309.0, 36.1801
40.485754074, 96.390, 1423.0, 37.7227
40.512014639, 96.390, 1345.0, 36.6742
40.538275205, 96.390, 1417.0, 37.6431
40.564535770, 96.390, 1397.0, 37.3765
40.590796336, 96.390, 1306.0, 36.1386
40.617056901, 96.390, 1314.0, 36.2491
40.643317466, 96.390, 1334.0, 36.5240
40.669578032, 96.390, 1383.0, 37.1887
40.695838597, 96.390, 1306.0, 36.1386
40.722099162, 96.390, 1343.0, 36.6470
40.748359728, 96.390, 1356.0, 36.8239
40.774620293, 96.390, 1325.0, 36.4005
40.800880858, 96.390, 1348.0, 36.7151
40.827141424, 96.390, 1342.0, 36.6333
40.853401989, 96.390, 1307.0, 36.1525
40.879662554, 96.390, 1373.0, 37.0540
40.905923120, 96.390, 1295.0, 35.9861
40.932183685, 96.390, 1301.0, 36.0694
40.958444251, 96.390, 1355.0, 36.8103
40.984704816, 96.390, 1304.0, 36.1109
41.010965381, 96.390, 1350.0, 36.7423
41.037225947, 96.390, 1342.0, 36.6333
41.063486512, 96.390, 1355.0, 36.8103
41.089747077, 96.390, 1306.0, 36.1386
41.116007643, 96.390, 1295.0, 35.9861
41.142268208, 96.390, 1307.0, 36.1525
41.168528773, 96.390, 1352.0, 36.7696
41.194789339, 96.390, 1276.0, 35.7211
41.221049904, 96.390, 1358.0, 36.8511
41.247310469, 96.390, 1324.0, 36.3868
41.273571035, 96.390, 1367.0, 36.9730
41.299831600, 96.390, 1368.0, 36.9865
41.326092165, 96.390, 1315.0, 36.2629
41.352352731, 96.390, 1291.0, 35.9305
41.378613296, 96.390, 1384.0, 37.2022
41.404873862, 96.390, 1221.0, 34.9428
41.431134427, 96.390, 1321.0, 36.3456
41.457394992, 96.390, 1329.0, 36.4555
41.483655558, 96.390, 1310.0, 36.1939
41.509916123, 96.390, 1329.0, 36.4555
41.536176688, 96.390, 1286.0, 35.8608
41.562437254, 96.390, 1272.0, 35.6651
41.588697819, 96.390, 1269.0, 35.6230
41.614958384, 96.390, 1295.0, 35.9861
41.641218950, 96.390, 1332.0, 36.4966
41.667479515, 96.390, 1304.0, 36.1109
41.693740080, 96.390, 1243.0, 35.2562
41.720000646, 96.390, 1293.0, 35.9583
41.746261211, 96.390, 1281.0, 35.7911
41.772521776, 96.390, 1328.0, 36.4417
41.798782342, 96.390, 1279.0, 35.7631
41.825042907, 96.390, 1255.0, 35.4260
41.851303473, 96.390, 1320.0, 36.3318
41.877564038, 96.390, 1330.0, 36.4692
41.903824603, 96.390, 1321.0, 36.3456
41.930085169, 96.390, 1354.0, 36.7967
41.956345734, 96.390, 1282.0, 35.8050
41.982606299, 96.390, 1274.0, 35.6931
42.008866865, 96.390, 1322.0, 36.3593
42.035127430, 96.390, 1401.0, 37.4299
42.061387995, 96.390, 1345.0, 36.6742
42.087648561, 96.390, 1282.0, 35.8050
42.113909126, 96.390, 1286.0, 35.8608
42.140169691, 96.390, 1291.0, 35.9305
42.166430257, 96.390, 1319.0, 36.3180
42.192690822, 96.390, 1314.0, 36.2491
42.218951388, 96.390, 1369.0, 37.0000
42.245211953, 96.390, 1305.0, 36.1248
42.271472518, 96.390, 1287.0, 35.8748
42.297733084, 96.390, 1294.0, 35.9722
42.323993649, 96.390, 1362.0, 36.9053
42.350254214, 96.390, 1317.0, 36.2905
42.376514780, 96.390, 1292.0, 35.9444
42.402775345, 96.390, 1349.0, 36.7287
42.429035910, 96.390, 1293.0, 35.9583
42.455296476, 96.390, 1285.0, 35.8469
42.481557041, 96.390, 1258.0, 35.4683
42.507817606, 96.390, 1303.0, 36.0971
42.534078172, 96.390, 1335.0, 36.5377
42.560338737, 96.390, 1327.0, 36.4280
42.586599302, 96.390, 1284.0, 35.8329
42.612859868, 96.390, 1331.0, 36.4829
42.639120433, 96.390, 1311.0, 36.2077
42.665380999, 96.390, 1328.0, 36.4417
42.691641564, 96.390, 1256.0, 35.4401
42.717902129, 96.390, 1302.0, 36.0832
42.744162695, 96.390, 1293.0, 35.9583
42.770423260, 96.390, 1312.0, 36.2215
42.796683825, 96.390, 1303.0, 36.0971
42.822944391, 96.390, 1331.0, 36.4829
42.849204956, 96.390, 1344.0, 36.6606
42.875465521, 96.390, 1299.0, 36.0416
42.901726087, 96.390, 1297.0, 36.0139
42.927986652, 96.390, 1323.0, 36.3731
42.954247217, 96.390, 1272.0, 35.6651
42.980507783, 96.390, 1320.0, 36.3318
43.006768348, 96.390, 1328.0, 36.4417
43.033028914, 96.390, 1341.0, 36.6197
43.059289479, 96.390, 1298.0, 36.0278
43.085550044, 96.390, 1330.0, 36.4692
43.111810610, 96.390, 1301.0, 36.0694
43.138071175, 96.390, 1292.0, 35.9444
43.164331740, 96.390, 1270.0, 35.6371
43.190592306, 96.390, 1275.0, 35.7071
43.216852871, 96.390, 1220.0, 34.9285
43.243113436, 96.390, 1262.0, 35.5246
43.269374002, 96.390, 1281.0, 35.7911
43.295634567, 96.390, 1234.0, 35.1283
43.321895132, 96.390, 1294.0, 35.9722
43.348155698, 96.390, 1258.0, 35.4683
43.374416263, 96.390, 1300.0, 36.0555
43.400676828, 96.390, 1308.0, 36.1663
43.426937394, 96.390, 1219.0, 34.9142
43.453197959, 96.390, 1299.0, 36.0416
43.479458525, 96.390, 1350.0, 36.7423
43.505719090, 96.390, 1234.0, 35.1283
43.531979655, 96.390, 1303.0, 36.0971
43.558240221, 96.390, 1366.0, 36.9594
43.584500786, 96.390, 1269.0, 35.6230
43.610761351, 96.390, 1273.0, 35.6791
43.637021917, 96.390, 1363.0, 36.9188
43.663282482, 96.390, 1246.0, 35.2987
43.689543047, 96.390, 1297.0, 36.0139
43.715803613, 96.390, 1306.0, 36.1386
43.742064178, 96.390, 1280.0, 35.7771
43.768324743, 96.390, 1293.0, 35.9583
43.794585309, 96.390, 1256.0, 35.4401
43.820845874, 96.390, 1175.0, 34.2783
43.847106440, 96.390, 1224.0, 34.9857
43.873367005, 96.390, 1308.0, 36.1663
43.899627570, 96.390, 1251.0, 35.3695
43.925888136, 96.390, 1297.0, 36.0139
43.952148701, 96.390, 1288.0, 35.8887
43.978409266, 96.390, 1242.0, 35.2420
44.004669832, 96.390, 1244.0, 35.2704
44.030930397, 96.390, 1218.0, 34.8999
44.057190962, 96.390, 1288.0, 35.8887
44.083451528, 96.390, 1249.0, 35.3412
44.109712093, 96.390, 1294.0, 35.9722
44.135972658, 96.390, 1256.0, 35.4401
44.162233224, 96.390, 1325.0, 36.4005
44.188493789, 96.390, 1248.0, 35.3270
44.214754354, 96.390, 1217.0, 34.8855
44.241014920, 96.390, 1251.0, 35.3695
44.267275485, 96.390, 1345.0, 36.6742
44.293536051, 96.390, 1311.0, 36.2077
44.319796616, 96.390, 1283.0, 35.8190
44.346057181, 96.390, 1295.0, 35.9861
44.372317747, 96.390, 1345.0, 36.6742
44.398578312, 96.390, 1250.0, 35.3553
44.424838877, 96.390, 1257.0, 35.4542
44.451099443, 96.390, 1252.0, 35.3836
44.477360008, 96.390, 1254.0, 35.4119
44.503620573, 96.390, 1292.0, 35.9444
44.529881139, 96.390, 1286.0, 35.8608
44.556141704, 96.390, 1245.0, 35.2846
44.582402269, 96.390, 1253.0, 35.3977
44.608662835, 96.390, 1288.0, 35.8887
44.634923400, 96.390, 1270.0, 35.6371
44.661183966, 96.390, 1281.0, 35.7911
44.687444531, 96.390, 1266.0, 35.5809
44.713705096, 96.390, 1267.0, 35.5949
44.739965662, 96.390, 1277.0, 35.7351
44.766226227, 96.390, 1261.0, 35.5106
44.792486792, 96.390, 1263.0, 35.5387
44.818747358, 96.390, 1244.0, 35.2704
44.845007923, 96.390, 1236.0, 35.1568
44.871268488, 96.390, 1276.0, 35.7211
44.897529054, 96.390, 1267.0, 35.5949
44.923789619, 96.390, 1286.0, 35.8608
44.950050184, 96.390, 1291.0, 35.9305
44.976310750, 96.390, 1285.0, 35.8469
45.002571315, 96.390, 1337.0, 36.5650
45.028831880, 96.390, 1267.0, 35.5949
45.055092446, 96.390, 1290.0, 35.9166
45.081353011, 96.390, 1218.0, 34.8999
45.107613577, 96.390, 1257.0, 35.4542
45.133874142, 96.390, 1266.0, 35.5809
45.160134707, 96.390, 1252.0, 35.3836
45.186395273, 96.390, 1235.0, 35.1426
45.212655838, 96.390, 1218.0, 34.8999
45.238916403, 96.390, 1225.0, 35.0000
45.265176969, 96.390, 1221.0, 34.9428
45.291437534, 96.390, 1257.0, 35.4542
45.317698099, 96.390, 1296.0, 36.0000
45.343958665, 96.390, 1232.0, 35.0999
45.370219230, 96.390, 1256.0, 35.4401
45.396479795, 96.390, 1223.0, 34.9714
45.422740361, 96.390, 1255.0, 35.4260
45.449000926, 96.390, 1257.0, 35.4542
45.475261492, 96.390, 1198.0, 34.6121
45.501522057, 96.390, 1209.0, 34.7707
45.527782622, 96.390, 1251.0, 35.3695
45.554043188, 96.390, 1326.0, 36.4143
45.580303753, 96.390, 1200.0, 34.6410
45.606564318, 96.390, 1265.0, 35.5668
45.632824884, 96.390, 1252.0, 35.3836
45.659085449, 96.390, 1233.0, 35.1141
45.685346014, 96.390, 1217.0, 34.8855
45.711606580, 96.390, 1299.0, 36.0416
45.737867145, 96.390, 1252.0, 35.3836
45.764127710, 96.390, 1292.0, 35.9444
45.790388276, 96.390, 1292.0, 35.9444
45.816648841, 96.390, 1247.0, 35.3129
45.842909406, 96.390, 1223.0, 34.9714
45.869169972, 96.390, 1178.0, 34.3220
45.895430537, 96.390, 1209.0, 34.7707
45.921691103, 96.390, 1242.0, 35.2420
45.947951668, 96.390, 1275.0, 35.7071
45.974212233, 96.390, 1225.0, 35.0000
46.000472799, 96.390, 1217.0, 34.8855
46.026733364, 96.390, 1253.0, 35.3977
46.052993929, 96.390, 1266.0, 35.5809
46.079254495, 96.390, 1237.0, 35.1710
46.105515060, 96.390, 1318.0, 36.3043
46.131775625, 96.390, 1279.0, 35.7631
46.158036191, 96.390, 1242.0, 35.2420
46.184296756, 96.390, 1273.0, 35.6791
46.210557321, 96.390, 1280.0, 35.7771
46.236817887, 96.390, 1210.0, 34.7851
46.263078452, 96.390, 1237.0, 35.1710
46.289339017, 96.390, 1235.0, 35.1426
46.315599583, 96.390, 1279.0, 35.7631
46.341860148, 96.390, 1239.0, 35.1994
46.368120714, 96.390, 1203.0, 34.6843
46.394381279, 96.390, 1241.0, 35.2278
46.420641844, 96.390, 1203.0, 34.6843
46.446902410, 96.390, 1151.0, 33.9264
46.473162975, 96.390, 1249.0, 35.3412
46.499423540, 96.390, 1177.0, 34.3074
46.525684106, 96.390, 1245.0, 35.2846
46.551944671, 96.390, 1251.0, 35.3695
46.578205236, 96.390, 1189.0, 34.4819
46.604465802, 96.390, 1190.0, 34.4964
46.630726367, 96.390, 1293.0, 35.9583
46.656986932, 96.390, 1223.0, 34.9714
46.683247498, 96.390, 1283.0, 35.8190
46.709508063, 96.390, 1234.0, 35.1283
46.735768629, 96.390, 1145.0, 33.8378
46.762029194, 96.390, 1189.0, 34.4819
46.788289759, 96.390, 1243.0, 35.2562
46.814550325, 96.390, 1149.0, 33.8969
46.840810890, 96.390, 1240.0, 35.2136
46.867071455, 96.390, 1206.0, 34.7275
46.893332021, 96.390, 1222.0, 34.9571
46.919592586, 96.390, 1185.0, 34.4238
46.945853151, 96.390, 1174.0, 34.2637
46.972113717, 96.390, 1202.0, 34.6699
46.998374282, 96.390, 1185.0, 34.4238
47.024634847, 96.390, 1210.0, 34.7851
47.050895413, 96.390, 1247.0, 35.3129
47.077155978, 96.390, 1201.0, 34.6554
47.103416543, 96.390, 1172.0, 34.2345
47.129677109, 96.390, 1268.0, 35.6090
47.155937674, 96.390, 1224.0, 34.9857
47.182198240, 96.390, 1198.0, 34.6121
47.208458805, 96.390, 1172.0, 34.2345
47.234719370, 96.390, 1219.0, 34.9142
47.260979936, 96.390, 1208.0, 34.7563
47.287240501, 96.390, 1190.0, 34.4964
47.313501066, 96.390, 1217.0, 34.8855
47.339761632, 96.390, 1185.0, 34.4238
47.366022197, 96.390, 1210.0, 34.7851
47.392282762, 96.390, 1159.0, 34.0441
47.418543328, 96.390, 1139.0, 33.7491
47.444803893, 96.390, 1154.0, 33.9706
47.471064458, 96.390, 1138.0, 33.7343
47.497325024, 96.390, 1193.0, 34.5398
47.523585589, 96.390, 1160.0, 34.0588
47.549846155, 96.390, 1218.0, 34.8999
47.576106720, 96.390, 1113.0, 33.3617
47.602367285, 96.390, 1138.0, 33.7343
47.628627851, 96.390, 1220.0, 34.9285
47.654888416, 96.390, 1150.0, 33.9116
47.681148981, 96.390, 1138.0, 33.7343
47.707409547, 96.390, 1159.0, 34.0441
47.733670112, 96.390, 1123.0, 33.5112
47.759930677, 96.390, 1119.0, 33.4515
47.786191243, 96.390, 1186.0, 34.4384
47.812451808, 96.390, 1162.0, 34.0881
47.838712373, 96.390, 1138.0, 33.7343
47.864972939, 96.390, 1151.0, 33.9264
47.891233504, 96.390, 1157.0, 34.0147
47.917494069, 96.390, 1130.0, 33.6155
47.943754635, 96.390, 1177.0, 34.3074
47.970015200, 96.390, 1178.0, 34.3220
47.996275766, 96.390, 1167.0, 34.1614
48.022536331, 96.390, 1190.0, 34.4964
48.048796896, 96.390, 1156.0, 34.0000
48.075057462, 96.390, 1150.0, 33.9116
48.101318027, 96.390, 1171.0, 34.2199
48.127578592, 96.390, 1130.0, 33.6155
48.153839158, 96.390, 1163.0, 34.1028
48.180099723, 96.390, 1139.0, 33.7491
48.206360288, 96.390, 1125.0, 33.5410
48.232620854, 96.390, 1126.0, 33.5559
48.258881419, 96.390, 1073.0, 32.7567
48.285141984, 96.390, 1182.0, 34.3802
48.311402550, 96.390, 1107.0, 33.2716
48.337663115, 96.390, 1094.0, 33.0757
48.363923681, 96.390, 1166.0, 34.1467
48.390184246, 96.390, 1165.0, 34.1321
48.416444811, 96.390, 1161.0, 34.0735
48.442705377, 96.390, 1127.0, 33.5708
48.468965942, 96.390, 1180.0, 34.3511
48.495226507, 96.390, 1087.0, 32.9697
48.521487073, 96.390, 1166.0, 34.1467
48.547747638, 96.390, 1124.0, 33.5261
48.574008203, 96.390, 1116.0, 33.4066
48.600268769, 96.390, 1153.0, 33.9559
48.626529334, 96.390, 1128.0, 33.5857
48.652789899, 96.390, 1130.0, 33.6155
48.679050465, 96.390, 1049.0, 32.3883
48.705311030, 96.390, 1129.0, 33.6006
48.731571595, 96.390, 1139.0, 33.7491
48.757832161, 96.390, 1157.0, 34.0147
48.784092726, 96.390, 1146.0, 33.8526
48.810353292, 96.390, 1109.0, 33.3017
48.836613857, 96.390, 1082.0, 32.8938
48.862874422, 96.390, 1102.0, 33.1964
48.889134988, 96.390, 1062.0, 32.5883
48.915395553, 96.390, 1077.0, 32.8177
48.941656118, 96.390, 1075.0, 32.7872
48.967916684, 96.390, 1128.0, 33.5857
48.994177249, 96.390, 1118.0, 33.4365
49.020437814, 96.390, 1061.0, 32.5730
49.046698380, 96.390, 1157.0, 34.0147
49.072958945, 96.390, 1077.0, 32.8177
49.099219510, 96.390, 1108.0, 33.2866
49.125480076, 96.390, 1067.0, 32.6650
49.151740641, 96.390, 1134.0, 33.6749
49.178001207, 96.390, 1044.0, 32.3110
49.204261772, 96.390, 1052.0, 32.4345
49.230522337, 96.390, 1127.0, 33.5708
49.256782903, 96.390, 1070.0, 32.7109
49.283043468, 96.390, 1043.0, 32.2955
49.309304033, 96.390, 1091.0, 33.0303
49.335564599, 96.390, 1135.0, 33.6898
49.361825164, 96.390, 1093.0, 33.0606
49.388085729, 96.390, 1011.0, 31.7962
49.414346295, 96.390, 1092.0, 33.0454
49.440606860, 96.390, 1078.0, 32.8329
49.466867425, 96.390, 1152.0, 33.9411
49.493127991, 96.390, 1102.0, 33.1964
49.519388556, 96.390, 1139.0, 33.7491
49.545649121, 96.390, 1109.0, 33.3017
49.571909687, 96.390, 1065.0, 32.6343
49.598170252, 96.390, 1034.0, 32.1559
49.624430818, 96.390, 1102.0, 33.1964
49.650691383, 96.390, 1069.0, 32.6956
49.676951948, 96.390, 1031.0, 32.1092
49.703212514, 96.390, 1077.0, 32.8177
49.729473079, 96.390, 1082.0, 32.8938
49.755733644, 96.390, 1039.0, 32.2335
49.781994210, 96.390, 1170.0, 34.2053
49.808254775, 96.390, 1146.0, 33.8526
49.834515340, 96.390, 1080.0, 32.8634
49.860775906, 96.390, 1068.0, 32.6803
49.887036471, 96.390, 1109.0, 33.3017
49.913297036, 96.390, 1058.0, 32.5269
49.939557602, 96.390, 1035.0, 32.1714
49.965818167, 96.390, 1066.0, 32.6497
49.992078732, 96.390, 1052.0, 32.4345
50.018339298, 96.390, 1058.0, 32.5269
50.044599863, 96.390, 1080.0, 32.8634
50.070860429, 96.390, 1053.0, 32.4500
50.097120994, 96.390, 1056.0, 32.4962
50.123381559, 96.390, 1053.0, 32.4500
50.149642125, 96.390, 1011.0, 31.7962
50.175902690, 96.390, 1076.0, 32.8024
50.202163255, 96.390, 1072.0, 32.7414
50.228423821, 96.390, 1067.0, 32.6650
50.254684386, 96.390, 1082.0, 32.8938
50.280944951, 96.390, 1039.0, 32.2335
50.307205517, 96.390, 1055.0, 32.4808
50.333466082, 96.390, 1051.0, 32.4191
50.359726647, 96.390, 1075.0, 32.7872
50.385987213, 96.390, 1025.0, 32.0156
50.412247778, 96.390, 1032.0, 32.1248
50.438508344, 96.390, 983.0, 31.3528
50.464768909, 96.390, 999.0, 31.6070
50.491029474, 96.390, 1044.0, 32.3110
50.517290040, 96.390, 1116.0, 33.4066
50.543550605, 96.390, 1028.0, 32.0624
50.569811170, 96.390, 1057.0, 32.5115
50.596071736, 96.390, 1025.0, 32.0156
50.622332301, 96.390, 1070.0, 32.7109
50.648592866, 96.390, 1047.0, 32.3574
50.674853432, 96.390, 1046.0, 32.3419
50.701113997, 96.390, 1092.0, 33.0454
50.727374562, 96.390, 1059.0, 32.5423
50.753635128, 96.390, 994.0, 31.5278
50.779895693, 96.390, 1105.0, 33.2415
50.806156258, 96.390, 1058.0, 32.5269
50.832416824, 96.390, 1054.0, 32.4654
50.858677389, 96.390, 1010.0, 31.7805
50.884937955, 96.390, 1036.0, 32.1870
50.911198520, 96.390, 1047.0, 32.3574
50.937459085, 96.390, 1034.0, 32.1559
50.963719651, 96.390, 989.0, 31.4484
50.989980216, 96.390, 976.0, 31.2410
51.016240781, 96.390, 1025.0, 32.0156
51.042501347, 96.390, 1043.0, 32.2955
51.068761912, 96.390, 1074.0, 32.7719
51.095022477, 96.390, 1050.0, 32.4037
51.121283043, 96.390, 1029.0, 32.0780
51.147543608, 96.390, 1077.0, 32.8177
51.173804173, 96.390, 1016.0, 31.8748
51.200064739, 96.390, 1073.0, 32.7567
51.226325304, 96.390, 1004.0, 31.6860
51.252585870, 96.390, 1049.0, 32.3883
51.278846435, 96.390, 1063.0, 32.6037
51.305107000, 96.390, 1036.0, 32.1870
51.331367566, 96.390, 1009.0, 31.7648
51.357628131, 96.390, 977.0, 31.2570
51.383888696, 96.390, 980.0, 31.3050
51.410149262, 96.390, 945.0, 30.7409
51.436409827, 96.390, 973.0, 31.1929
51.462670392, 96.390, 987.0, 31.4166
51.488930958, 96.390, 1006.0, 31.7175
51.515191523, 96.390, 1021.0, 31.9531
51.541452088, 96.390, 974.0, 31.2090
51.567712654, 96.390, 1004.0, 31.6860
51.593973219, 96.390, 1050.0, 32.4037
51.620233784, 96.390, 989.0, 31.4484
51.646494350, 96.390, 991.0, 31.4802
51.672754915, 96.390, 1079.0, 32.8481
51.699015481, 96.390, 1039.0, 32.2335
51.725276046, 96.390, 998.0, 31.5911
51.751536611, 96.390, 965.0, 31.0644
51.777797177, 96.390, 982.0, 31.3369
51.804057742, 96.390, 1017.0, 31.8904
51.830318307, 96.390, 1021.0, 31.9531
51.856578873, 96.390, 988.0, 31.4325
51.882839438, 96.390, 1073.0, 32.7567
51.909100003, 96.390, 1039.0, 32.2335
51.935360569, 96.390, 1000.0, 31.6228
51.961621134, 96.390, 1009.0, 31.7648
51.987881699, 96.390, 968.0, 31.1127
52.014142265, 96.390, 1033.0, 32.1403
52.040402830, 96.390, 1019.0, 31.9218
52.066663396, 96.390, 986.0, 31.4006
52.092923961, 96.390, 901.0, 30.0167
52.119184526, 96.390, 969.0, 31.1288
52.145445092, 96.390, 1000.0, 31.6228
52.171705657, 96.390, 980.0, 31.3050
52.197966222, 96.390, 1013.0, 31.8277
52.224226788, 96.390, 935.0, 30.5778
52.250487353, 96.390, 985.0, 31.3847
52.276747918, 96.390, 1000.0, 31.6228
52.303008484, 96.390, 1033.0, 32.1403
52.329269049, 96.390, 1030.0, 32.0936
52.355529614, 96.390, 1017.0, 31.8904
52.381790180, 96.390, 980.0, 31.3050
52.408050745, 96.390, 979.0, 31.2890
52.434311310, 96.390, 1006.0, 31.7175
52.460571876, 96.390, 939.0, 30.6431
52.486832441, 96.390, 948.0, 30.7896
52.513093007, 96.390, 993.0, 31.5119
52.539353572, 96.390, 995.0, 31.5436
52.565614137, 96.390, 971.0, 31.1609
52.591874703, 96.390, 951.0, 30.8383
52.618135268, 96.390, 983.0, 31.3528
52.644395833, 96.390, 1020.0, 31.9374
52.670656399, 96.390, 984.0, 31.3688
52.696916964, 96.390, 958.0, 30.9516
52.723177529, 96.390, 1035.0, 32.1714
52.749438095, 96.390, 1005.0, 31.7017
52.775698660, 96.390, 988.0, 31.4325
52.801959225, 96.390, 987.0, 31.4166
52.828219791, 96.390, 992.0, 31.4960
52.854480356, 96.390, 1021.0, 31.9531
52.880740922, 96.390, 966.0, 31.0805
52.907001487, 96.390, 994.0, 31.5278
52.933262052, 96.390, 908.0, 30.1330
52.959522618, 96.390, 1014.0, 31.8434
52.985783183, 96.390, 1011.0, 31.7962
53.012043748, 96.390, 975.0, 31.2250
53.038304314, 96.390, 981.0, 31.3209
53.064564879, 96.390, 921.0, 30.3480
53.090825444, 96.390, 930.0, 30.4959
53.117086010, 96.390, 960.0, 30.9839
53.143346575, 96.390, 969.0, 31.1288
53.169607140, 96.390, 1011.0, 31.7962
53.195867706, 96.390, 943.0, 30.7083
53.222128271, 96.390, 976.0, 31.2410
53.248388836, 96.390, 951.0, 30.8383
53.274649402, 96.390, 986.0, 31.4006
53.300909967, 96.390, 963.0, 31.0322
53.327170533, 96.390, 982.0, 31.3369
53.353431098, 96.390, 1013.0, 31.8277
53.379691663, 96.390, 922.0, 30.3645
53.405952229, 96.390, 988.0, 31.4325
53.432212794, 96.390, 947.0, 30.7734
53.458473359, 96.390, 992.0, 31.4960
53.484733925, 96.390, 943.0, 30.7083
53.510994490, 96.390, 980.0, 31.3050
53.537255055, 96.390, 958.0, 30.9516
53.563515621, 96.390, 993.0, 31.5119
53.589776186, 96.390, 947.0, 30.7734
53.616036751, 96.390, 940.0, 30.6594
53.642297317, 96.390, 938.0, 30.6268
53.668557882, 96.390, 1005.0, 31.7017
53.694818448, 96.390, 932.0, 30.5287
53.721079013, 96.390, 955.0, 30.9031
53.747339578, 96.390, 978.0, 31.2730
53.773600144, 96.390, 975.0, 31.2250
53.799860709, 96.390, 966.0, 31.0805
53.826121274, 96.390, 915.0, 30.2490
53.852381840, 96.390, 986.0, 31.4006
53.878642405, 96.390, 938.0, 30.6268
53.904902970, 96.390, 901.0, 30.0167
53.931163536, 96.390, 976.0, 31.2410
53.957424101, 96.390, 954.0, 30.8869
53.983684666, 96.390, 923.0, 30.3809
54.009945232, 96.390, 930.0, 30.4959
54.036205797, 96.390, 974.0, 31.2090
54.062466362, 96.390, 926.0, 30.4302
54.088726928, 96.390, 939.0, 30.6431
54.114987493, 96.390, 964.0, 31.0483
54.141248059, 96.390, 902.0, 30.0333
54.167508624, 96.390, 933.0, 30.5450
54.193769189, 96.390, 938.0, 30.6268
54.220029755, 96.390, 886.0, 29.7658
54.246290320, 96.390, 958.0, 30.9516
54.272550885, 96.390, 928.0, 30.4631
54.298811451, 96.390, 966.0, 31.0805
54.325072016, 96.390, 970.0, 31.1448
54.351332581, 96.390, 981.0, 31.3209
54.377593147, 96.390, 973.0, 31.1929
54.403853712, 96.390, 941.0, 30.6757
54.430114277, 96.390, 966.0, 31.0805
54.456374843, 96.390, 943.0, 30.7083
54.482635408, 96.390, 968.0, 31.1127
54.508895973, 96.390, 886.0, 29.7658
54.535156539, 96.390, 954.0, 30.8869
54.561417104, 96.390, 945.0, 30.7409
54.587677670, 96.390, 903.0, 30.0500
54.613938235, 96.390, 933.0, 30.5450
54.640198800, 96.390, 988.0, 31.4325
54.666459366, 96.390, 928.0, 30.4631
54.692719931, 96.390, 971.0, 31.1609
54.718980496, 96.390, 951.0, 30.8383
54.745241062, 96.390, 963.0, 31.0322
54.771501627, 96.390, 951.0, 30.8383
54.797762192, 96.390, 945.0, 30.7409
54.824022758, 96.390, 987.0, 31.4166
54.850283323, 96.390, 938.0, 30.6268
54.876543888, 96.390, 936.0, 30.5941
54.902804454, 96.390, 966.0, 31.0805
54.929065019, 96.390, 856.0, 29.2575
54.955325585, 96.390, 927.0, 30.4467
54.981586150, 96.390, 947.0, 30.7734
55.007846715, 96.390, 911.0, 30.1828
55.034107281, 96.390, 953.0, 30.8707
55.060367846, 96.390, 943.0, 30.7083
55.086628411, 96.390, 912.0, 30.1993
55.112888977, 96.390, 882.0, 29.6985
55.139149542, 96.390, 927.0, 30.4467
55.165410107, 96.390, 894.0, 29.8998
55.191670673, 96.390, 929.0, 30.4795
55.217931238, 96.390, 931.0, 30.5123
55.244191803, 96.390, 970.0, 31.1448
55.270452369, 96.390, 902.0, 30.0333
55.296712934, 96.390, 936.0, 30.5941
55.322973499, 96.390, 943.0, 30.7083
55.349234065, 96.390, 918.0, 30.2985
55.375494630, 96.390, 882.0, 29.6985
55.401755196, 96.390, 976.0, 31.2410
55.428015761, 96.390, 985.0, 31.3847
55.454276326, 96.390, 945.0, 30.7409
55.480536892, 96.390, 897.0, 29.9500
55.506797457, 96.390, 953.0, 30.8707
55.533058022, 96.390, 939.0, 30.6431
55.559318588, 96.390, 936.0, 30.5941
55.585579153, 96.390, 940.0, 30.6594
55.611839718, 96.390, 938.0, 30.6268
55.638100284, 96.390, 948.0, 30.7896
55.664360849, 96.390, 894.0, 29.8998
55.690621414, 96.390, 866.0, 29.4279
55.716881980, 96.390, 944.0, 30.7246
55.743142545, 96.390, 911.0, 30.1828
55.769403111, 96.390, 903.0, 30.0500
55.795663676, 96.390, 929.0, 30.4795
55.821924241, 96.390, 901.0, 30.0167
55.848184807, 96.390, 923.0, 30.3809
55.874445372, 96.390, 896.0, 29.9333
55.900705937, 96.390, 927.0, 30.4467
55.926966503, 96.390, 872.0, 29.5296
55.953227068, 96.390, 902.0, 30.0333
55.979487633, 96.390, 835.0, 28.8964
56.005748199, 96.390, 940.0, 30.6594
56.032008764, 96.390, 968.0, 31.1127
56.058269329, 96.390, 978.0, 31.2730
56.084529895, 96.390, 941.0, 30.6757
56.110790460, 96.390, 928.0, 30.4631
56.137051025, 96.390, 894.0, 29.8998
56.163311591, 96.390, 953.0, 30.8707
56.189572156, 96.390, 967.0, 31.0966
56.215832722, 96.390, 972.0, 31.1769
56.242093287, 96.390, 912.0, 30.1993
56.268353852, 96.390, 987.0, 31.4166
56.294614418, 96.390, 910.0, 30.1662
56.320874983, 96.390, 978.0, 31.2730
56.347135548, 96.390, 890.0, 29.8329
56.373396114, 96.390, 956.0, 30.9192
56.399656679, 96.390, 917.0, 30.2820
56.425917244, 96.390, 934.0, 30.5614
56.452177810, 96.390, 905.0, 30.0832
56.478438375, 96.390, 907.0, 30.1164
56.504698940, 96.390, 953.0, 30.8707
56.530959506, 96.390, 904.0, 30.0666
56.557220071, 96.390, 914.0, 30.2324
56.583480637, 96.390, 909.0, 30.1496
56.609741202, 96.390, 967.0, 31.0966
56.636001767, 96.390, 929.0, 30.4795
56.662262333, 96.390, 892.0, 29.8664
56.688522898, 96.390, 910.0, 30.1662
56.714783463, 96.390, 926.0, 30.4302
56.741044029, 96.390, 938.0, 30.6268
56.767304594, 96.390, 931.0, 30.5123
56.793565159, 96.390, 932.0, 30.5287
56.819825725, 96.390, 994.0, 31.5278
56.846086290, 96.390, 853.0, 29.2062
56.872346855, 96.390, 924.0, 30.3974
56.898607421, 96.390, 947.0, 30.7734
56.924867986, 96.390, 919.0, 30.3150
56.951128551, 96.390, 932.0, 30.5287
56.977389117, 96.390, 981.0, 31.3209
57.003649682, 96.390, 891.0, 29.8496
57.029910248, 96.390, 960.0, 30.9839
57.056170813, 96.390, 976.0, 31.2410
57.082431378, 96.390, 898.0, 29.9666
57.108691944, 96.390, 902.0, 30.0333
57.134952509, 96.390, 936.0, 30.5941
57.161213074, 96.390, 879.0, 29.6479
57.187473640, 96.390, 906.0, 30.0998
57.213734205, 96.390, 918.0, 30.2985
57.239994770, 96.390, 912.0, 30.1993
57.266255336, 96.390, 905.0, 30.0832
57.292515901, 96.390, 886.0, 29.7658
57.318776466, 96.390, 952.0, 30.8545
57.345037032, 96.390, 934.0, 30.5614
57.371297597, 96.390, 943.0, 30.7083
57.397558163, 96.390, 922.0, 30.3645
57.423818728, 96.390, 912.0, 30.1993
57.450079293, 96.390, 895.0, 29.9166
57.476339859, 96.390, 883.0, 29.7153
57.502600424, 96.390, 913.0, 30.2159
57.528860989, 96.390, 933.0, 30.5450
57.555121555, 96.390, 912.0, 30.1993
57.581382120, 96.390, 943.0, 30.7083
57.607642685, 96.390, 944.0, 30.7246
57.633903251, 96.390, 942.0, 30.6920
57.660163816, 96.390, 919.0, 30.3150
57.686424381, 96.390, 880.0, 29.6648
57.712684947, 96.390, 886.0, 29.7658
57.738945512, 96.390, 979.0, 31.2890
57.765206077, 96.390, 903.0, 30.0500
57.791466643, 96.390, 914.0, 30.2324
57.817727208, 96.390, 922.0, 30.3645
57.843987774, 96.390, 884.0, 29.7321
57.870248339, 96.390, 949.0, 30.8058
57.896508904, 96.390, 931.0, 30.5123
57.922769470, 96.390, 879.0, 29.6479
57.949030035, 96.390, 900.0, 30.0000
57.975290600, 96.390, 926.0, 30.4302
58.001551166, 96.390, 951.0, 30.8383
58.027811731, 96.390, 881.0, 29.6816
58.054072296, 96.390, 946.0, 30.7571
58.080332862, 96.390, 965.0, 31.0644
58.106593427, 96.390, 893.0, 29.8831
58.132853992, 96.390, 899.0, 29.9833
58.159114558, 96.390, 972.0, 31.1769
58.185375123, 96.390, 889.0, 29.8161
58.211635689, 96.390, 933.0, 30.5450
58.237896254, 96.390, 933.0, 30.5450
58.264156819, 96.390, 936.0, 30.5941
58.290417385, 96.390, 966.0, 31.0805
58.316677950, 96.390, 908.0, 30.1330
58.342938515, 96.390, 886.0, 29.7658
58.369199081, 96.390, 865.0, 29.4109
58.395459646, 96.390, 982.0, 31.3369
58.421720211, 96.390, 952.0, 30.8545
58.447980777, 96.390, 899.0, 29.9833
58.474241342, 96.390, 933.0, 30.5450
58.500501907, 96.390, 887.0, 29.7825
58.526762473, 96.390, 944.0, 30.7246
58.553023038, 96.390, 902.0, 30.0333
58.579283603, 96.390, 921.0, 30.3480
58.605544169, 96.390, 901.0, 30.0167
58.631804734, 96.390, 958.0, 30.9516
58.658065300, 96.390, 878.0, 29.6311
58.684325865, 96.390, 934.0, 30.5614
58.710586430, 96.390, 927.0, 30.4467
58.736846996, 96.390, 907.0, 30.1164
58.763107561, 96.390, 907.0, 30.1164
58.789368126, 96.390, 912.0, 30.1993
58.815628692, 96.390, 877.0, 29.6142
58.841889257, 96.390, 901.0, 30.0167
58.868149822, 96.390, 889.0, 29.8161
58.894410388, 96.390, 942.0, 30.6920
58.920670953, 96.390, 974.0, 31.2090
58.946931518, 96.390, 928.0, 30.4631
58.973192084, 96.390, 860.0, 29.3258
58.999452649, 96.390, 953.0, 30.8707
59.025713214, 96.390, 929.0, 30.4795
59.051973780, 96.390, 918.0, 30.2985
59.078234345, 96.390, 896.0, 29.9333
59.104494911, 96.390, 931.0, 30.5123
59.130755476, 96.390, 993.0, 31.5119
59.157016041, 96.390, 977.0, 31.2570
59.183276607, 96.390, 942.0, 30.6920
59.209537172, 96.390, 926.0, 30.4302
59.235797737, 96.390, 927.0, 30.4467
59.262058303, 96.390, 865.0, 29.4109
59.288318868, 96.390, 931.0, 30.5123
59.314579433, 96.390, 906.0, 30.0998
59.340839999, 96.390, 921.0, 30.3480
59.367100564, 96.390, 933.0, 30.5450
59.393361129, 96.390, 929.0, 30.4795
59.419621695, 96.390, 956.0, 30.9192
59.445882260, 96.390, 943.0, 30.7083
59.472142826, 96.390, 888.0, 29.7993
59.498403391, 96.390, 897.0, 29.9500
59.524663956, 96.390, 959.0, 30.9677
59.550924522, 96.390, 980.0, 31.3050
59.577185087, 96.390, 911.0, 30.1828
59.603445652, 96.390, 982.0, 31.3369
59.629706218, 96.390, 926.0, 30.4302
59.655966783, 96.390, 966.0, 31.0805
59.682227348, 96.390, 921.0, 30.3480
59.708487914, 96.390, 976.0, 31.2410
59.734748479, 96.390, 908.0, 30.1330
59.761009044, 96.390, 918.0, 30.2985
59.787269610, 96.390, 896.0, 29.9333
59.813530175, 96.390, 930.0, 30.4959
59.839790740, 96.390, 930.0, 30.4959
59.866051306, 96.390, 963.0, 31.0322
59.892311871, 96.390, 927.0, 30.4467
59.918572437, 96.390, 970.0, 31.1448
59.944833002, 96.390, 927.0, 30.4467
59.971093567, 96.390, 974.0, 31.2090
59.997354133, 96.390, 945.0, 30.7409
60.023614698, 96.390, 963.0, 31.0322
60.049875263, 96.390, 969.0, 31.1288
60.076135829, 96.390, 919.0, 30.3150
60.102396394, 96.390, 960.0, 30.9839
60.128656959, 96.390, 958.0, 30.9516
60.154917525, 96.390, 961.0, 31.0000
60.181178090, 96.390, 1024.0, 32.0000
60.207438655, 96.390, 964.0, 31.0483
60.233699221, 96.390, 1013.0, 31.8277
60.259959786, 96.390, 1016.0, 31.8748
60.286220352, 96.390, 940.0, 30.6594
60.312480917, 96.390, 952.0, 30.8545
60.338741482, 96.390, 945.0, 30.7409
60.365002048, 96.390, 947.0, 30.7734
60.391262613, 96.390, 957.0, 30.9354
60.417523178, 96.390, 984.0, 31.3688
60.443783744, 96.390, 985.0, 31.3847
60.470044309, 96.390, 978.0, 31.2730
60.496304874, 96.390, 1001.0, 31.6386
60.522565440, 96.390, 1017.0, 31.8904
60.548826005, 96.390, 991.0, 31.4802
60.575086570, 96.390, 974.0, 31.2090
60.601347136, 96.390, 972.0, 31.1769
60.627607701, 96.390, 1001.0, 31.6386
60.653868266, 96.390, 1003.0, 31.6702
60.680128832, 96.390, 992.0, 31.4960
60.706389397, 96.390, 996.0, 31.5595
60.732649963, 96.390, 993.0, 31.5119
60.758910528, 96.390, 996.0, 31.5595
60.785171093, 96.390, 1029.0, 32.0780
60.811431659, 96.390, 1039.0, 32.2335
60.837692224, 96.390, 1043.0, 32.2955
60.863952789, 96.390, 1058.0, 32.5269
60.890213355, 96.390, 1049.0, 32.3883
60.916473920, 96.390, 1002.0, 31.6544
60.942734485, 96.390, 1069.0, 32.6956
60.968995051, 96.390, 1072.0, 32.7414
60.995255616, 96.390, 1051.0, 32.4191
61.021516181, 96.390, 1032.0, 32.1248
61.047776747, 96.390, 1010.0, 31.7805
61.074037312, 96.390, 1064.0, 32.6190
61.100297878, 96.390, 1117.0, 33.4215
61.126558443, 96.390, 1114.0, 33.3766
61.152819008, 96.390, 1068.0, 32.6803
61.179079574, 96.390, 1091.0, 33.0303
61.205340139, 96.390, 1102.0, 33.1964
61.231600704, 96.390, 1091.0, 33.0303
61.257861270, 96.390, 1136.0, 33.7046
61.284121835, 96.390, 1085.0, 32.9393
61.310382400, 96.390, 1033.0, 32.1403
61.336642966, 96.390, 1071.0, 32.7261
61.362903531, 96.390, 1088.0, 32.9848
61.389164096, 96.390, 1095.0, 33.0908
61.415424662, 96.390, 1070.0, 32.7109
61.441685227, 96.390, 1092.0, 33.0454
61.467945792, 96.390, 1116.0, 33.4066
61.494206358, 96.390, 1145.0, 33.8378
61.520466923, 96.390, 1050.0, 32.4037
61.546727489, 96.390, 1082.0, 32.8938
61.572988054, 96.390, 1134.0, 33.6749
61.599248619, 96.390, 1098.0, 33.1361
61.625509185, 96.390, 1052.0, 32.4345
61.651769750, 96.390, 1130.0, 33.6155
61.678030315, 96.390, 1149.0, 33.8969
61.704290881, 96.390, 1084.0, 32.9242
61.730551446, 96.390, 1131.0, 33.6303
61.756812011, 96.390, 1124.0, 33.5261
61.783072577, 96.390, 1056.0, 32.4962
61.809333142, 96.390, 1115.0, 33.3916
61.835593707, 96.390, 1116.0, 33.4066
61.861854273, 96.390, 1099.0, 33.1512
61.888114838, 96.390, 1054.0, 32.4654
61.914375404, 96.390, 1051.0, 32.4191
61.940635969, 96.390, 1044.0, 32.3110
61.966896534, 96.390, 1146.0, 33.8526
61.993157100, 96.390, 1100.0, 33.1662
62.019417665, 96.390, 1021.0, 31.9531
62.045678230, 96.390, 1092.0, 33.0454
62.071938796, 96.390, 1052.0, 32.4345
62.098199361, 96.390, 1121.0, 33.4813
62.124459926, 96.390, 1082.0, 32.8938
62.150720492, 96.390, 1092.0, 33.0454
62.176981057, 96.390, 1070.0, 32.7109
62.203241622, 96.390, 1042.0, 32.2800
62.229502188, 96.390, 1070.0, 32.7109
62.255762753, 96.390, 1038.0, 32.2180
62.282023318, 96.390, 1056.0, 32.4962
62.308283884, 96.390, 1017.0, 31.8904
62.334544449, 96.390, 1067.0, 32.6650
62.360805015, 96.390, 1049.0, 32.3883
62.387065580, 96.390, 1066.0, 32.6497
62.413326145, 96.390, 1070.0, 32.7109
62.439586711, 96.390, 1024.0, 32.0000
62.465847276, 96.390, 1005.0, 31.7017
62.492107841, 96.390, 1105.0, 33.2415
62.518368407, 96.390, 1101.0, 33.1813
62.544628972, 96.390, 1059.0, 32.5423
62.570889537, 96.390, 1062.0, 32.5883
62.597150103, 96.390, 1051.0, 32.4191
62.623410668, 96.390, 1047.0, 32.3574
62.649671233, 96.390, 1025.0, 32.0156
62.675931799, 96.390, 996.0, 31.5595
62.702192364, 96.390, 996.0, 31.5595
62.728452930, 96.390, 970.0, 31.1448
62.754713495, 96.390, 982.0, 31.3369
62.780974060, 96.390, 999.0, 31.6070
62.807234626, 96.390, 1060.0, 32.5576
62.833495191, 96.390, 1022.0, 31.9687
62.859755756, 96.390, 948.0, 30.7896
62.886016322, 96.390, 935.0, 30.5778
62.912276887, 96.390, 996.0, 31.5595
62.938537452, 96.390, 1052.0, 32.4345
62.964798018, 96.390, 983.0, 31.3528
62.991058583, 96.390, 993.0, 31.5119
63.017319148, 96.390, 938.0, 30.6268
63.043579714, 96.390, 1036.0, 32.1870
63.069840279, 96.390, 1013.0, 31.8277
63.096100844, 96.390, 974.0, 31.2090
63.122361410, 96.390, 988.0, 31.4325
63.148621975, 96.390, 952.0, 30.8545
63.174882541, 96.390, 947.0, 30.7734
63.201143106, 96.390, 969.0, 31.1288
63.227403671, 96.390, 928.0, 30.4631
63.253664237, 96.390, 974.0, 31.2090
63.279924802, 96.390, 1023.0, 31.9844
63.306185367, 96.390, 949.0, 30.8058
63.332445933, 96.390, 977.0, 31.2570
63.358706498, 96.390, 942.0, 30.6920
63.384967063, 96.390, 937.0, 30.6105
63.411227629, 96.390, 910.0, 30.1662
63.437488194, 96.390, 955.0, 30.9031
63.463748759, 96.390, 973.0, 31.1929
63.490009325, 96.390, 930.0, 30.4959
63.516269890, 96.390, 899.0, 29.9833
63.542530455, 96.390, 950.0, 30.8221
63.568791021, 96.390, 924.0, 30.3974
63.595051586, 96.390, 938.0, 30.6268
63.621312152, 96.390, 935.0, 30.5778
63.647572717, 96.390, 989.0, 31.4484
63.673833282, 96.390, 932.0, 30.5287
63.700093848, 96.390, 950.0, 30.8221
63.726354413, 96.390, 944.0, 30.7246
63.752614978, 96.390, 872.0, 29.5296
63.778875544, 96.390, 950.0, 30.8221
63.805136109, 96.390, 970.0, 31.1448
63.831396674, 96.390, 951.0, 30.8383
63.857657240, 96.390, 928.0, 30.4631
63.883917805, 96.390, 849.0, 29.1376
63.910178370, 96.390, 923.0, 30.3809
63.936438936, 96.390, 902.0, 30.0333
63.962699501, 96.390, 926.0, 30.4302
63.988960067, 96.390, 900.0, 30.0000
64.015220632, 96.390, 913.0, 30.2159
64.041481197, 96.390, 984.0, 31.3688
64.067741763, 96.390, 912.0, 30.1993
64.094002328, 96.390, 919.0, 30.3150
64.120262893, 96.390, 917.0, 30.2820
64.146523459, 96.390, 919.0, 30.3150
64.172784024, 96.390, 872.0, 29.5296
64.199044589, 96.390, 881.0, 29.6816
64.225305155, 96.390, 919.0, 30.3150
64.251565720, 96.390, 910.0, 30.1662
64.277826285, 96.390, 905.0, 30.0832
64.304086851, 96.390, 922.0, 30.3645
64.330347416, 96.390, 899.0, 29.9833
64.356607981, 96.390, 891.0, 29.8496
64.382868547, 96.390, 943.0, 30.7083
64.409129112, 96.390, 912.0, 30.1993
64.435389678, 96.390, 846.0, 29.0861
64.461650243, 96.390, 899.0, 29.9833
64.487910808, 96.390, 925.0, 30.4138
64.514171374, 96.390, 880.0, 29.6648
64.540431939, 96.390, 944.0, 30.7246
64.566692504, 96.390, 873.0, 29.5466
64.592953070, 96.390, 893.0, 29.8831
64.619213635, 96.390, 820.0, 28.6356
64.645474200, 96.390, 893.0, 29.8831
64.671734766, 96.390, 888.0, 29.7993
64.697995331, 96.390, 876.0, 29.5973
64.724255896, 96.390, 872.0, 29.5296
64.750516462, 96.390, 863.0, 29.3769
64.776777027, 96.390, 889.0, 29.8161
64.803037593, 96.390, 900.0, 30.0000
64.829298158, 96.390, 879.0, 29.6479
64.855558723, 96.390, 888.0, 29.7993
64.881819289, 96.390, 897.0, 29.9500
64.908079854, 96.390, 824.0, 28.7054
64.934340419, 96.390, 858.0, 29.2916
64.960600985, 96.390, 837.0, 28.9310
64.986861550, 96.390, 829.0, 28.7924
