[Measurement conditions]
Sample identification,XRD_Centroid25Oct21_Act23Jan22_B3_0325M_NaOH_LS0134_1
Comment - 1,"Configuration=Stage for Flat Samples/Holders, Owner=User-1, Creation date=7/1/2020 9:53:24 AM"
Comment - 2,"Goniometer=Theta/Theta; Minimum step size 2Theta:0.0001; Minimum step size Omega:0.0001"
Comment - 3,"Sample stage=Stage for flat samples/holders"
Comment - 4,"Diffractometer system=EMPYREAN"
Comment - 5,"Measurement program=C:\Users\ibo5034\OneDrive - The Pennsylvania State University\NEUP\Zerobackground scan.xrdmp, Identifier={98A3B11C-88F9-4AA6-982C-73314A311EF5}"
Anode material,Cu
K-Alpha1 wavelength,1.5405980
K-Alpha2 wavelength,1.5444260
Ratio K-Alpha2/K-Alpha1,0.500
Divergence slit,Fixed,0.25
Monochromator used,NO
Generator voltage, 45
Tube current, 40
File date and time,26/Jan/2022 11:25
Unit cell,
h k l, 0 0 0
Scan axis,Gonio
Scan range,4.994599997,64.999991833
Scan step size,0.0262606
No. of points, 2285
Scan type,CONTINUOUS
Time per step,96.390
[Scan points]
Angle, TimePerStep, Intensity, ESD
5.007730280, 96.390, 5961.0, 77.2075
5.033990845, 96.390, 5929.0, 77.0000
5.060251411, 96.390, 5816.0, 76.2627
5.086511976, 96.390, 5829.0, 76.3479
5.112772541, 96.390, 5742.0, 75.7760
5.139033107, 96.390, 5742.0, 75.7760
5.165293672, 96.390, 5842.0, 76.4330
5.191554237, 96.390, 5711.0, 75.5712
5.217814803, 96.390, 5764.0, 75.9210
5.244075368, 96.390, 5703.0, 75.5182
5.270335934, 96.390, 5589.0, 74.7596
5.296596499, 96.390, 5588.0, 74.7529
5.322857064, 96.390, 5783.0, 76.0460
5.349117630, 96.390, 5558.0, 74.5520
5.375378195, 96.390, 5489.0, 74.0878
5.401638760, 96.390, 5591.0, 74.7730
5.427899326, 96.390, 5589.0, 74.7596
5.454159891, 96.390, 5488.0, 74.0810
5.480420456, 96.390, 5488.0, 74.0810
5.506681022, 96.390, 5482.0, 74.0405
5.532941587, 96.390, 5517.0, 74.2765
5.559202152, 96.390, 5401.0, 73.4915
5.585462718, 96.390, 5530.0, 74.3640
5.611723283, 96.390, 5412.0, 73.5663
5.637983849, 96.390, 5452.0, 73.8377
5.664244414, 96.390, 5388.0, 73.4030
5.690504979, 96.390, 5223.0, 72.2703
5.716765545, 96.390, 5364.0, 73.2393
5.743026110, 96.390, 5297.0, 72.7805
5.769286675, 96.390, 5408.0, 73.5391
5.795547241, 96.390, 5431.0, 73.6953
5.821807806, 96.390, 5437.0, 73.7360
5.848068371, 96.390, 5235.0, 72.3533
5.874328937, 96.390, 5304.0, 72.8286
5.900589502, 96.390, 5351.0, 73.1505
5.926850067, 96.390, 5321.0, 72.9452
5.953110633, 96.390, 5423.0, 73.6410
5.979371198, 96.390, 5301.0, 72.8080
6.005631763, 96.390, 5305.0, 72.8354
6.031892329, 96.390, 5379.0, 73.3417
6.058152894, 96.390, 5349.0, 73.1369
6.084413460, 96.390, 5036.0, 70.9648
6.110674025, 96.390, 5170.0, 71.9027
6.136934590, 96.390, 5213.0, 72.2011
6.163195156, 96.390, 5192.0, 72.0555
6.189455721, 96.390, 5188.0, 72.0278
6.215716286, 96.390, 5213.0, 72.2011
6.241976852, 96.390, 5264.0, 72.5534
6.268237417, 96.390, 5301.0, 72.8080
6.294497982, 96.390, 5201.0, 72.1180
6.320758548, 96.390, 5140.0, 71.6938
6.347019113, 96.390, 4981.0, 70.5762
6.373279678, 96.390, 5143.0, 71.7147
6.399540244, 96.390, 4942.0, 70.2994
6.425800809, 96.390, 5201.0, 72.1180
6.452061375, 96.390, 5048.0, 71.0493
6.478321940, 96.390, 5149.0, 71.7565
6.504582505, 96.390, 4950.0, 70.3562
6.530843071, 96.390, 4928.0, 70.1997
6.557103636, 96.390, 4989.0, 70.6329
6.583364201, 96.390, 4987.0, 70.6187
6.609624767, 96.390, 5012.0, 70.7955
6.635885332, 96.390, 4963.0, 70.4486
6.662145897, 96.390, 5119.0, 71.5472
6.688406463, 96.390, 4984.0, 70.5975
6.714667028, 96.390, 5026.0, 70.8943
6.740927593, 96.390, 4925.0, 70.1783
6.767188159, 96.390, 4945.0, 70.3207
6.793448724, 96.390, 4877.0, 69.8355
6.819709289, 96.390, 4914.0, 70.0999
6.845969855, 96.390, 4957.0, 70.4060
6.872230420, 96.390, 5001.0, 70.7177
6.898490986, 96.390, 4838.0, 69.5557
6.924751551, 96.390, 4807.0, 69.3325
6.951012116, 96.390, 4777.0, 69.1158
6.977272682, 96.390, 4898.0, 69.9857
7.003533247, 96.390, 4680.0, 68.4105
7.029793812, 96.390, 4658.0, 68.2495
7.056054378, 96.390, 4709.0, 68.6222
7.082314943, 96.390, 4851.0, 69.6491
7.108575508, 96.390, 4718.0, 68.6877
7.134836074, 96.390, 4638.0, 68.1029
7.161096639, 96.390, 4747.0, 68.8985
7.187357204, 96.390, 4796.0, 69.2532
7.213617770, 96.390, 4794.0, 69.2387
7.239878335, 96.390, 4789.0, 69.2026
7.266138900, 96.390, 4805.0, 69.3181
7.292399466, 96.390, 4754.0, 68.9493
7.318660031, 96.390, 4643.0, 68.1396
7.344920597, 96.390, 4692.0, 68.4982
7.371181162, 96.390, 4552.0, 67.4685
7.397441727, 96.390, 4708.0, 68.6149
7.423702293, 96.390, 4535.0, 67.3424
7.449962858, 96.390, 4563.0, 67.5500
7.476223423, 96.390, 4596.0, 67.7938
7.502483989, 96.390, 4499.0, 67.0746
7.528744554, 96.390, 4602.0, 67.8380
7.555005119, 96.390, 4606.0, 67.8675
7.581265685, 96.390, 4558.0, 67.5130
7.607526250, 96.390, 4490.0, 67.0075
7.633786815, 96.390, 4515.0, 67.1937
7.660047381, 96.390, 4441.0, 66.6408
7.686307946, 96.390, 4448.0, 66.6933
7.712568512, 96.390, 4516.0, 67.2012
7.738829077, 96.390, 4490.0, 67.0075
7.765089642, 96.390, 4487.0, 66.9851
7.791350208, 96.390, 4468.0, 66.8431
7.817610773, 96.390, 4295.0, 65.5362
7.843871338, 96.390, 4310.0, 65.6506
7.870131904, 96.390, 4419.0, 66.4756
7.896392469, 96.390, 4351.0, 65.9621
7.922653034, 96.390, 4411.0, 66.4154
7.948913600, 96.390, 4334.0, 65.8331
7.975174165, 96.390, 4374.0, 66.1362
8.001434730, 96.390, 4339.0, 65.8711
8.027695296, 96.390, 4362.0, 66.0454
8.053955861, 96.390, 4402.0, 66.3476
8.080216426, 96.390, 4287.0, 65.4752
8.106476992, 96.390, 4367.0, 66.0833
8.132737557, 96.390, 4366.0, 66.0757
8.158998123, 96.390, 4354.0, 65.9848
8.185258688, 96.390, 4329.0, 65.7951
8.211519253, 96.390, 4373.0, 66.1287
8.237779819, 96.390, 4203.0, 64.8305
8.264040384, 96.390, 4270.0, 65.3452
8.290300949, 96.390, 4205.0, 64.8460
8.316561515, 96.390, 4327.0, 65.7799
8.342822080, 96.390, 4180.0, 64.6529
8.369082645, 96.390, 4189.0, 64.7225
8.395343211, 96.390, 4339.0, 65.8711
8.421603776, 96.390, 4216.0, 64.9307
8.447864341, 96.390, 4093.0, 63.9766
8.474124907, 96.390, 4129.0, 64.2573
8.500385472, 96.390, 4144.0, 64.3739
8.526646038, 96.390, 4196.0, 64.7765
8.552906603, 96.390, 4059.0, 63.7103
8.579167168, 96.390, 4198.0, 64.7920
8.605427734, 96.390, 4158.0, 64.4826
8.631688299, 96.390, 4121.0, 64.1950
8.657948864, 96.390, 4059.0, 63.7103
8.684209430, 96.390, 4115.0, 64.1483
8.710469995, 96.390, 4020.0, 63.4035
8.736730560, 96.390, 3983.0, 63.1110
8.762991126, 96.390, 3934.0, 62.7216
8.789251691, 96.390, 4059.0, 63.7103
8.815512256, 96.390, 4013.0, 63.3482
8.841772822, 96.390, 4011.0, 63.3325
8.868033387, 96.390, 4066.0, 63.7652
8.894293952, 96.390, 4043.0, 63.5846
8.920554518, 96.390, 4045.0, 63.6003
8.946815083, 96.390, 3915.0, 62.5700
8.973075649, 96.390, 3822.0, 61.8223
8.999336214, 96.390, 3883.0, 62.3137
9.025596779, 96.390, 3927.0, 62.6658
9.051857345, 96.390, 3922.0, 62.6259
9.078117910, 96.390, 3986.0, 63.1348
9.104378475, 96.390, 3917.0, 62.5859
9.130639041, 96.390, 3943.0, 62.7933
9.156899606, 96.390, 3893.0, 62.3939
9.183160171, 96.390, 3856.0, 62.0967
9.209420737, 96.390, 3801.0, 61.6523
9.235681302, 96.390, 3873.0, 62.2334
9.261941867, 96.390, 3901.0, 62.4580
9.288202433, 96.390, 3925.0, 62.6498
9.314462998, 96.390, 3802.0, 61.6604
9.340723564, 96.390, 3773.0, 61.4248
9.366984129, 96.390, 3780.0, 61.4817
9.393244694, 96.390, 3832.0, 61.9032
9.419505260, 96.390, 3792.0, 61.5792
9.445765825, 96.390, 3724.0, 61.0246
9.472026390, 96.390, 3758.0, 61.3025
9.498286956, 96.390, 3674.0, 60.6135
9.524547521, 96.390, 3746.0, 61.2046
9.550808086, 96.390, 3674.0, 60.6135
9.577068652, 96.390, 3711.0, 60.9180
9.603329217, 96.390, 3672.0, 60.5970
9.629589782, 96.390, 3681.0, 60.6712
9.655850348, 96.390, 3671.0, 60.5888
9.682110913, 96.390, 3710.0, 60.9098
9.708371478, 96.390, 3838.0, 61.9516
9.734632044, 96.390, 3696.0, 60.7947
9.760892609, 96.390, 3708.0, 60.8933
9.787153175, 96.390, 3581.0, 59.8415
9.813413740, 96.390, 3690.0, 60.7454
9.839674305, 96.390, 3580.0, 59.8331
9.865934871, 96.390, 3661.0, 60.5062
9.892195436, 96.390, 3516.0, 59.2959
9.918456001, 96.390, 3570.0, 59.7495
9.944716567, 96.390, 3561.0, 59.6741
9.970977132, 96.390, 3624.0, 60.1997
9.997237697, 96.390, 3526.0, 59.3801
10.023498263, 96.390, 3564.0, 59.6992
10.049758828, 96.390, 3551.0, 59.5903
10.076019393, 96.390, 3560.0, 59.6657
10.102279959, 96.390, 3572.0, 59.7662
10.128540524, 96.390, 3536.0, 59.4643
10.154801090, 96.390, 3524.0, 59.3633
10.181061655, 96.390, 3475.0, 58.9491
10.207322220, 96.390, 3521.0, 59.3380
10.233582786, 96.390, 3488.0, 59.0593
10.259843351, 96.390, 3389.0, 58.2151
10.286103916, 96.390, 3548.0, 59.5651
10.312364482, 96.390, 3472.0, 58.9237
10.338625047, 96.390, 3395.0, 58.2666
10.364885612, 96.390, 3473.0, 58.9322
10.391146178, 96.390, 3396.0, 58.2752
10.417406743, 96.390, 3451.0, 58.7452
10.443667308, 96.390, 3364.0, 58.0000
10.469927874, 96.390, 3405.0, 58.3524
10.496188439, 96.390, 3461.0, 58.8303
10.522449004, 96.390, 3434.0, 58.6003
10.548709570, 96.390, 3315.0, 57.5760
10.574970135, 96.390, 3295.0, 57.4021
10.601230701, 96.390, 3268.0, 57.1664
10.627491266, 96.390, 3340.0, 57.7927
10.653751831, 96.390, 3301.0, 57.4543
10.680012397, 96.390, 3416.0, 58.4466
10.706272962, 96.390, 3332.0, 57.7235
10.732533527, 96.390, 3309.0, 57.5239
10.758794093, 96.390, 3415.0, 58.4380
10.785054658, 96.390, 3256.0, 57.0614
10.811315223, 96.390, 3292.0, 57.3760
10.837575789, 96.390, 3270.0, 57.1839
10.863836354, 96.390, 3252.0, 57.0263
10.890096919, 96.390, 3369.0, 58.0431
10.916357485, 96.390, 3209.0, 56.6480
10.942618050, 96.390, 3288.0, 57.3411
10.968878616, 96.390, 3326.0, 57.6715
10.995139181, 96.390, 3280.0, 57.2713
11.021399746, 96.390, 3241.0, 56.9298
11.047660312, 96.390, 3277.0, 57.2451
11.073920877, 96.390, 3174.0, 56.3383
11.100181442, 96.390, 3173.0, 56.3294
11.126442008, 96.390, 3199.0, 56.5597
11.152702573, 96.390, 3336.0, 57.7581
11.178963138, 96.390, 3205.0, 56.6127
11.205223704, 96.390, 3111.0, 55.7763
11.231484269, 96.390, 3212.0, 56.6745
11.257744834, 96.390, 3173.0, 56.3294
11.284005400, 96.390, 3192.0, 56.4978
11.310265965, 96.390, 3086.0, 55.5518
11.336526530, 96.390, 3213.0, 56.6833
11.362787096, 96.390, 3061.0, 55.3263
11.389047661, 96.390, 3141.0, 56.0446
11.415308227, 96.390, 3101.0, 55.6866
11.441568792, 96.390, 3066.0, 55.3715
11.467829357, 96.390, 3075.0, 55.4527
11.494089923, 96.390, 3066.0, 55.3715
11.520350488, 96.390, 3074.0, 55.4437
11.546611053, 96.390, 3121.0, 55.8659
11.572871619, 96.390, 3072.0, 55.4256
11.599132184, 96.390, 3060.0, 55.3173
11.625392749, 96.390, 3077.0, 55.4707
11.651653315, 96.390, 3128.0, 55.9285
11.677913880, 96.390, 3039.0, 55.1271
11.704174445, 96.390, 2905.0, 53.8981
11.730435011, 96.390, 2909.0, 53.9351
11.756695576, 96.390, 3069.0, 55.3986
11.782956141, 96.390, 3086.0, 55.5518
11.809216707, 96.390, 2955.0, 54.3599
11.835477272, 96.390, 2994.0, 54.7175
11.861737838, 96.390, 3007.0, 54.8361
11.887998403, 96.390, 3032.0, 55.0636
11.914258968, 96.390, 2909.0, 53.9351
11.940519534, 96.390, 3102.0, 55.6956
11.966780099, 96.390, 2837.0, 53.2635
11.993040664, 96.390, 2902.0, 53.8702
12.019301230, 96.390, 2901.0, 53.8609
12.045561795, 96.390, 2872.0, 53.5910
12.071822360, 96.390, 2935.0, 54.1756
12.098082926, 96.390, 2919.0, 54.0278
12.124343491, 96.390, 3003.0, 54.7996
12.150604056, 96.390, 2914.0, 53.9815
12.176864622, 96.390, 2898.0, 53.8331
12.203125187, 96.390, 2962.0, 54.4243
12.229385753, 96.390, 2906.0, 53.9073
12.255646318, 96.390, 2978.0, 54.5711
12.281906883, 96.390, 2865.0, 53.5257
12.308167449, 96.390, 2862.0, 53.4977
12.334428014, 96.390, 2936.0, 54.1849
12.360688579, 96.390, 2895.0, 53.8052
12.386949145, 96.390, 2791.0, 52.8299
12.413209710, 96.390, 2776.0, 52.6878
12.439470275, 96.390, 2903.0, 53.8795
12.465730841, 96.390, 2799.0, 52.9056
12.491991406, 96.390, 2811.0, 53.0189
12.518251971, 96.390, 2845.0, 53.3385
12.544512537, 96.390, 2857.0, 53.4509
12.570773102, 96.390, 2735.0, 52.2972
12.597033667, 96.390, 2839.0, 53.2823
12.623294233, 96.390, 2787.0, 52.7920
12.649554798, 96.390, 2726.0, 52.2111
12.675815364, 96.390, 2853.0, 53.4135
12.702075929, 96.390, 2780.0, 52.7257
12.728336494, 96.390, 2816.0, 53.0660
12.754597060, 96.390, 2777.0, 52.6972
12.780857625, 96.390, 2635.0, 51.3323
12.807118190, 96.390, 2769.0, 52.6213
12.833378756, 96.390, 2700.0, 51.9615
12.859639321, 96.390, 2757.0, 52.5071
12.885899886, 96.390, 2825.0, 53.1507
12.912160452, 96.390, 2729.0, 52.2398
12.938421017, 96.390, 2731.0, 52.2590
12.964681582, 96.390, 2692.0, 51.8845
12.990942148, 96.390, 2763.0, 52.5642
13.017202713, 96.390, 2714.0, 52.0961
13.043463279, 96.390, 2737.0, 52.3163
13.069723844, 96.390, 2701.0, 51.9711
13.095984409, 96.390, 2654.0, 51.5170
13.122244975, 96.390, 2578.0, 50.7740
13.148505540, 96.390, 2686.0, 51.8266
13.174766105, 96.390, 2637.0, 51.3517
13.201026671, 96.390, 2679.0, 51.7591
13.227287236, 96.390, 2679.0, 51.7591
13.253547801, 96.390, 2685.0, 51.8170
13.279808367, 96.390, 2634.0, 51.3225
13.306068932, 96.390, 2621.0, 51.1957
13.332329497, 96.390, 2747.0, 52.4118
13.358590063, 96.390, 2665.0, 51.6236
13.384850628, 96.390, 2561.0, 50.6063
13.411111193, 96.390, 2705.0, 52.0096
13.437371759, 96.390, 2550.0, 50.4975
13.463632324, 96.390, 2588.0, 50.8724
13.489892890, 96.390, 2605.0, 51.0392
13.516153455, 96.390, 2617.0, 51.1566
13.542414020, 96.390, 2594.0, 50.9313
13.568674586, 96.390, 2597.0, 50.9608
13.594935151, 96.390, 2629.0, 51.2738
13.621195716, 96.390, 2549.0, 50.4876
13.647456282, 96.390, 2602.0, 51.0098
13.673716847, 96.390, 2529.0, 50.2892
13.699977412, 96.390, 2595.0, 50.9411
13.726237978, 96.390, 2530.0, 50.2991
13.752498543, 96.390, 2524.0, 50.2394
13.778759108, 96.390, 2627.0, 51.2543
13.805019674, 96.390, 2546.0, 50.4579
13.831280239, 96.390, 2606.0, 51.0490
13.857540805, 96.390, 2537.0, 50.3686
13.883801370, 96.390, 2483.0, 49.8297
13.910061935, 96.390, 2553.0, 50.5272
13.936322501, 96.390, 2577.0, 50.7642
13.962583066, 96.390, 2486.0, 49.8598
13.988843631, 96.390, 2541.0, 50.4083
14.015104197, 96.390, 2655.0, 51.5267
14.041364762, 96.390, 2527.0, 50.2693
14.067625327, 96.390, 2598.0, 50.9706
14.093885893, 96.390, 2603.0, 51.0196
14.120146458, 96.390, 2545.0, 50.4480
14.146407023, 96.390, 2461.0, 49.6085
14.172667589, 96.390, 2558.0, 50.5767
14.198928154, 96.390, 2474.0, 49.7393
14.225188719, 96.390, 2528.0, 50.2792
14.251449285, 96.390, 2557.0, 50.5668
14.277709850, 96.390, 2606.0, 51.0490
14.303970416, 96.390, 2449.0, 49.4874
14.330230981, 96.390, 2438.0, 49.3761
14.356491546, 96.390, 2488.0, 49.8799
14.382752112, 96.390, 2545.0, 50.4480
14.409012677, 96.390, 2561.0, 50.6063
14.435273242, 96.390, 2464.0, 49.6387
14.461533808, 96.390, 2504.0, 50.0400
14.487794373, 96.390, 2436.0, 49.3559
14.514054938, 96.390, 2408.0, 49.0714
14.540315504, 96.390, 2403.0, 49.0204
14.566576069, 96.390, 2395.0, 48.9387
14.592836634, 96.390, 2473.0, 49.7293
14.619097200, 96.390, 2454.0, 49.5379
14.645357765, 96.390, 2455.0, 49.5480
14.671618331, 96.390, 2509.0, 50.0899
14.697878896, 96.390, 2542.0, 50.4183
14.724139461, 96.390, 2468.0, 49.6790
14.750400027, 96.390, 2403.0, 49.0204
14.776660592, 96.390, 2505.0, 50.0500
14.802921157, 96.390, 2514.0, 50.1398
14.829181723, 96.390, 2456.0, 49.5580
14.855442288, 96.390, 2491.0, 49.9099
14.881702853, 96.390, 2467.0, 49.6689
14.907963419, 96.390, 2398.0, 48.9694
14.934223984, 96.390, 2457.0, 49.5681
14.960484549, 96.390, 2393.0, 48.9183
14.986745115, 96.390, 2494.0, 49.9400
15.013005680, 96.390, 2466.0, 49.6588
15.039266245, 96.390, 2455.0, 49.5480
15.065526811, 96.390, 2400.0, 48.9898
15.091787376, 96.390, 2400.0, 48.9898
15.118047942, 96.390, 2453.0, 49.5278
15.144308507, 96.390, 2446.0, 49.4571
15.170569072, 96.390, 2463.0, 49.6286
15.196829638, 96.390, 2328.0, 48.2494
15.223090203, 96.390, 2396.0, 48.9490
15.249350768, 96.390, 2458.0, 49.5782
15.275611334, 96.390, 2407.0, 49.0612
15.301871899, 96.390, 2407.0, 49.0612
15.328132464, 96.390, 2389.0, 48.8774
15.354393030, 96.390, 2403.0, 49.0204
15.380653595, 96.390, 2442.0, 49.4166
15.406914160, 96.390, 2423.0, 49.2240
15.433174726, 96.390, 2415.0, 49.1426
15.459435291, 96.390, 2418.0, 49.1732
15.485695857, 96.390, 2352.0, 48.4974
15.511956422, 96.390, 2274.0, 47.6865
15.538216987, 96.390, 2348.0, 48.4562
15.564477553, 96.390, 2412.0, 49.1121
15.590738118, 96.390, 2288.0, 47.8330
15.616998683, 96.390, 2347.0, 48.4458
15.643259249, 96.390, 2405.0, 49.0408
15.669519814, 96.390, 2389.0, 48.8774
15.695780379, 96.390, 2332.0, 48.2908
15.722040945, 96.390, 2360.0, 48.5798
15.748301510, 96.390, 2334.0, 48.3115
15.774562075, 96.390, 2313.0, 48.0937
15.800822641, 96.390, 2375.0, 48.7340
15.827083206, 96.390, 2428.0, 49.2747
15.853343771, 96.390, 2310.0, 48.0625
15.879604337, 96.390, 2375.0, 48.7340
15.905864902, 96.390, 2333.0, 48.3011
15.932125468, 96.390, 2359.0, 48.5695
15.958386033, 96.390, 2524.0, 50.2394
15.984646598, 96.390, 2390.0, 48.8876
16.010907164, 96.390, 2353.0, 48.5077
16.037167729, 96.390, 2379.0, 48.7750
16.063428294, 96.390, 2417.0, 49.1630
16.089688860, 96.390, 2479.0, 49.7896
16.115949425, 96.390, 2475.0, 49.7494
16.142209990, 96.390, 2357.0, 48.5489
16.168470556, 96.390, 2355.0, 48.5283
16.194731121, 96.390, 2390.0, 48.8876
16.220991686, 96.390, 2293.0, 47.8853
16.247252252, 96.390, 2373.0, 48.7134
16.273512817, 96.390, 2401.0, 49.0000
16.299773382, 96.390, 2402.0, 49.0102
16.326033948, 96.390, 2383.0, 48.8160
16.352294513, 96.390, 2482.0, 49.8197
16.378555079, 96.390, 2392.0, 48.9081
16.404815644, 96.390, 2333.0, 48.3011
16.431076209, 96.390, 2512.0, 50.1199
16.457336775, 96.390, 2460.0, 49.5984
16.483597340, 96.390, 2384.0, 48.8262
16.509857905, 96.390, 2322.0, 48.1871
16.536118471, 96.390, 2368.0, 48.6621
16.562379036, 96.390, 2487.0, 49.8698
16.588639601, 96.390, 2434.0, 49.3356
16.614900167, 96.390, 2359.0, 48.5695
16.641160732, 96.390, 2377.0, 48.7545
16.667421297, 96.390, 2353.0, 48.5077
16.693681863, 96.390, 2359.0, 48.5695
16.719942428, 96.390, 2337.0, 48.3425
16.746202994, 96.390, 2456.0, 49.5580
16.772463559, 96.390, 2379.0, 48.7750
16.798724124, 96.390, 2358.0, 48.5592
16.824984690, 96.390, 2400.0, 48.9898
16.851245255, 96.390, 2297.0, 47.9270
16.877505820, 96.390, 2405.0, 49.0408
16.903766386, 96.390, 2463.0, 49.6286
16.930026951, 96.390, 2430.0, 49.2950
16.956287516, 96.390, 2423.0, 49.2240
16.982548082, 96.390, 2369.0, 48.6724
17.008808647, 96.390, 2412.0, 49.1121
17.035069212, 96.390, 2408.0, 49.0714
17.061329778, 96.390, 2325.0, 48.2183
17.087590343, 96.390, 2415.0, 49.1426
17.113850908, 96.390, 2444.0, 49.4368
17.140111474, 96.390, 2447.0, 49.4672
17.166372039, 96.390, 2413.0, 49.1223
17.192632605, 96.390, 2487.0, 49.8698
17.218893170, 96.390, 2383.0, 48.8160
17.245153735, 96.390, 2447.0, 49.4672
17.271414301, 96.390, 2454.0, 49.5379
17.297674866, 96.390, 2423.0, 49.2240
17.323935431, 96.390, 2404.0, 49.0306
17.350195997, 96.390, 2455.0, 49.5480
17.376456562, 96.390, 2393.0, 48.9183
17.402717127, 96.390, 2374.0, 48.7237
17.428977693, 96.390, 2527.0, 50.2693
17.455238258, 96.390, 2449.0, 49.4874
17.481498823, 96.390, 2452.0, 49.5177
17.507759389, 96.390, 2449.0, 49.4874
17.534019954, 96.390, 2384.0, 48.8262
17.560280520, 96.390, 2459.0, 49.5883
17.586541085, 96.390, 2406.0, 49.0510
17.612801650, 96.390, 2549.0, 50.4876
17.639062216, 96.390, 2520.0, 50.1996
17.665322781, 96.390, 2450.0, 49.4975
17.691583346, 96.390, 2463.0, 49.6286
17.717843912, 96.390, 2453.0, 49.5278
17.744104477, 96.390, 2468.0, 49.6790
17.770365042, 96.390, 2543.0, 50.4282
17.796625608, 96.390, 2401.0, 49.0000
17.822886173, 96.390, 2513.0, 50.1298
17.849146738, 96.390, 2525.0, 50.2494
17.875407304, 96.390, 2507.0, 50.0700
17.901667869, 96.390, 2523.0, 50.2295
17.927928434, 96.390, 2492.0, 49.9199
17.954189000, 96.390, 2511.0, 50.1099
17.980449565, 96.390, 2396.0, 48.9490
18.006710131, 96.390, 2525.0, 50.2494
18.032970696, 96.390, 2490.0, 49.8999
18.059231261, 96.390, 2543.0, 50.4282
18.085491827, 96.390, 2466.0, 49.6588
18.111752392, 96.390, 2650.0, 51.4782
18.138012957, 96.390, 2490.0, 49.8999
18.164273523, 96.390, 2568.0, 50.6754
18.190534088, 96.390, 2472.0, 49.7192
18.216794653, 96.390, 2566.0, 50.6557
18.243055219, 96.390, 2573.0, 50.7247
18.269315784, 96.390, 2527.0, 50.2693
18.295576349, 96.390, 2521.0, 50.2096
18.321836915, 96.390, 2537.0, 50.3686
18.348097480, 96.390, 2385.0, 48.8365
18.374358046, 96.390, 2540.0, 50.3984
18.400618611, 96.390, 2566.0, 50.6557
18.426879176, 96.390, 2554.0, 50.5371
18.453139742, 96.390, 2592.0, 50.9117
18.479400307, 96.390, 2421.0, 49.2037
18.505660872, 96.390, 2536.0, 50.3587
18.531921438, 96.390, 2502.0, 50.0200
18.558182003, 96.390, 2576.0, 50.7543
18.584442568, 96.390, 2486.0, 49.8598
18.610703134, 96.390, 2556.0, 50.5569
18.636963699, 96.390, 2604.0, 51.0294
18.663224264, 96.390, 2615.0, 51.1371
18.689484830, 96.390, 2553.0, 50.5272
18.715745395, 96.390, 2516.0, 50.1597
18.742005960, 96.390, 2530.0, 50.2991
18.768266526, 96.390, 2565.0, 50.6458
18.794527091, 96.390, 2667.0, 51.6430
18.820787657, 96.390, 2591.0, 50.9019
18.847048222, 96.390, 2622.0, 51.2055
18.873308787, 96.390, 2550.0, 50.4975
18.899569353, 96.390, 2689.0, 51.8556
18.925829918, 96.390, 2672.0, 51.6914
18.952090483, 96.390, 2594.0, 50.9313
18.978351049, 96.390, 2628.0, 51.2640
19.004611614, 96.390, 2661.0, 51.5849
19.030872179, 96.390, 2657.0, 51.5461
19.057132745, 96.390, 2651.0, 51.4879
19.083393310, 96.390, 2716.0, 52.1153
19.109653875, 96.390, 2666.0, 51.6333
19.135914441, 96.390, 2620.0, 51.1859
19.162175006, 96.390, 2640.0, 51.3809
19.188435572, 96.390, 2570.0, 50.6952
19.214696137, 96.390, 2613.0, 51.1175
19.240956702, 96.390, 2636.0, 51.3420
19.267217268, 96.390, 2649.0, 51.4684
19.293477833, 96.390, 2663.0, 51.6043
19.319738398, 96.390, 2700.0, 51.9615
19.345998964, 96.390, 2602.0, 51.0098
19.372259529, 96.390, 2679.0, 51.7591
19.398520094, 96.390, 2733.0, 52.2781
19.424780660, 96.390, 2605.0, 51.0392
19.451041225, 96.390, 2655.0, 51.5267
19.477301790, 96.390, 2625.0, 51.2348
19.503562356, 96.390, 2686.0, 51.8266
19.529822921, 96.390, 2704.0, 52.0000
19.556083486, 96.390, 2764.0, 52.5738
19.582344052, 96.390, 2715.0, 52.1057
19.608604617, 96.390, 2764.0, 52.5738
19.634865183, 96.390, 2766.0, 52.5928
19.661125748, 96.390, 2759.0, 52.5262
19.687386313, 96.390, 2739.0, 52.3355
19.713646879, 96.390, 2753.0, 52.4690
19.739907444, 96.390, 2716.0, 52.1153
19.766168009, 96.390, 2857.0, 53.4509
19.792428575, 96.390, 2769.0, 52.6213
19.818689140, 96.390, 2729.0, 52.2398
19.844949705, 96.390, 2762.0, 52.5547
19.871210271, 96.390, 2676.0, 51.7301
19.897470836, 96.390, 2659.0, 51.5655
19.923731401, 96.390, 2709.0, 52.0481
19.949991967, 96.390, 2840.0, 53.2917
19.976252532, 96.390, 2772.0, 52.6498
20.002513097, 96.390, 2747.0, 52.4118
20.028773663, 96.390, 2747.0, 52.4118
20.055034228, 96.390, 2753.0, 52.4690
20.081294794, 96.390, 2715.0, 52.1057
20.107555359, 96.390, 2786.0, 52.7826
20.133815924, 96.390, 2818.0, 53.0848
20.160076490, 96.390, 2821.0, 53.1131
20.186337055, 96.390, 2896.0, 53.8145
20.212597620, 96.390, 2854.0, 53.4228
20.238858186, 96.390, 2802.0, 52.9339
20.265118751, 96.390, 2823.0, 53.1319
20.291379316, 96.390, 2723.0, 52.1824
20.317639882, 96.390, 2734.0, 52.2877
20.343900447, 96.390, 2814.0, 53.0471
20.370161012, 96.390, 2767.0, 52.6023
20.396421578, 96.390, 2836.0, 53.2541
20.422682143, 96.390, 2857.0, 53.4509
20.448942709, 96.390, 2894.0, 53.7959
20.475203274, 96.390, 2870.0, 53.5724
20.501463839, 96.390, 2988.0, 54.6626
20.527724405, 96.390, 2856.0, 53.4416
20.553984970, 96.390, 2892.0, 53.7773
20.580245535, 96.390, 2825.0, 53.1507
20.606506101, 96.390, 2861.0, 53.4883
20.632766666, 96.390, 2857.0, 53.4509
20.659027231, 96.390, 2826.0, 53.1601
20.685287797, 96.390, 2865.0, 53.5257
20.711548362, 96.390, 2833.0, 53.2259
20.737808927, 96.390, 2873.0, 53.6004
20.764069493, 96.390, 2882.0, 53.6843
20.790330058, 96.390, 2958.0, 54.3875
20.816590623, 96.390, 2849.0, 53.3760
20.842851189, 96.390, 2859.0, 53.4696
20.869111754, 96.390, 2907.0, 53.9166
20.895372320, 96.390, 2922.0, 54.0555
20.921632885, 96.390, 2917.0, 54.0093
20.947893450, 96.390, 2877.0, 53.6377
20.974154016, 96.390, 2902.0, 53.8702
21.000414581, 96.390, 2911.0, 53.9537
21.026675146, 96.390, 2829.0, 53.1883
21.052935712, 96.390, 2854.0, 53.4228
21.079196277, 96.390, 2904.0, 53.8888
21.105456842, 96.390, 2949.0, 54.3047
21.131717408, 96.390, 2879.0, 53.6563
21.157977973, 96.390, 2923.0, 54.0648
21.184238538, 96.390, 2947.0, 54.2863
21.210499104, 96.390, 2883.0, 53.6936
21.236759669, 96.390, 2842.0, 53.3104
21.263020235, 96.390, 2873.0, 53.6004
21.289280800, 96.390, 3000.0, 54.7723
21.315541365, 96.390, 2942.0, 54.2402
21.341801931, 96.390, 2964.0, 54.4426
21.368062496, 96.390, 2956.0, 54.3691
21.394323061, 96.390, 2899.0, 53.8424
21.420583627, 96.390, 3020.0, 54.9545
21.446844192, 96.390, 2967.0, 54.4702
21.473104757, 96.390, 2976.0, 54.5527
21.499365323, 96.390, 2934.0, 54.1664
21.525625888, 96.390, 2880.0, 53.6656
21.551886453, 96.390, 2832.0, 53.2165
21.578147019, 96.390, 2984.0, 54.6260
21.604407584, 96.390, 2896.0, 53.8145
21.630668149, 96.390, 2940.0, 54.2218
21.656928715, 96.390, 2950.0, 54.3139
21.683189280, 96.390, 2867.0, 53.5444
21.709449846, 96.390, 2889.0, 53.7494
21.735710411, 96.390, 2978.0, 54.5711
21.761970976, 96.390, 3061.0, 55.3263
21.788231542, 96.390, 2906.0, 53.9073
21.814492107, 96.390, 2960.0, 54.4059
21.840752672, 96.390, 2937.0, 54.1941
21.867013238, 96.390, 2950.0, 54.3139
21.893273803, 96.390, 2945.0, 54.2679
21.919534368, 96.390, 2981.0, 54.5985
21.945794934, 96.390, 2969.0, 54.4885
21.972055499, 96.390, 2919.0, 54.0278
21.998316064, 96.390, 2941.0, 54.2310
22.024576630, 96.390, 2837.0, 53.2635
22.050837195, 96.390, 2924.0, 54.0740
22.077097761, 96.390, 2902.0, 53.8702
22.103358326, 96.390, 3036.0, 55.0999
22.129618891, 96.390, 2928.0, 54.1110
22.155879457, 96.390, 2918.0, 54.0185
22.182140022, 96.390, 2922.0, 54.0555
22.208400587, 96.390, 2934.0, 54.1664
22.234661153, 96.390, 2862.0, 53.4977
22.260921718, 96.390, 2916.0, 54.0000
22.287182283, 96.390, 2923.0, 54.0648
22.313442849, 96.390, 2890.0, 53.7587
22.339703414, 96.390, 2870.0, 53.5724
22.365963979, 96.390, 2853.0, 53.4135
22.392224545, 96.390, 2893.0, 53.7866
22.418485110, 96.390, 3037.0, 55.1090
22.444745675, 96.390, 2944.0, 54.2586
22.471006241, 96.390, 2934.0, 54.1664
22.497266806, 96.390, 2987.0, 54.6535
22.523527372, 96.390, 2865.0, 53.5257
22.549787937, 96.390, 2977.0, 54.5619
22.576048502, 96.390, 2879.0, 53.6563
22.602309068, 96.390, 3113.0, 55.7943
22.628569633, 96.390, 2873.0, 53.6004
22.654830198, 96.390, 2876.0, 53.6284
22.681090764, 96.390, 2940.0, 54.2218
22.707351329, 96.390, 2954.0, 54.3507
22.733611894, 96.390, 2879.0, 53.6563
22.759872460, 96.390, 2861.0, 53.4883
22.786133025, 96.390, 2922.0, 54.0555
22.812393590, 96.390, 2992.0, 54.6992
22.838654156, 96.390, 2944.0, 54.2586
22.864914721, 96.390, 2920.0, 54.0370
22.891175287, 96.390, 2980.0, 54.5894
22.917435852, 96.390, 2876.0, 53.6284
22.943696417, 96.390, 2970.0, 54.4977
22.969956983, 96.390, 2980.0, 54.5894
22.996217548, 96.390, 2944.0, 54.2586
23.022478113, 96.390, 2890.0, 53.7587
23.048738679, 96.390, 2897.0, 53.8238
23.074999244, 96.390, 2864.0, 53.5164
23.101259809, 96.390, 2946.0, 54.2771
23.127520375, 96.390, 2845.0, 53.3385
23.153780940, 96.390, 2845.0, 53.3385
23.180041505, 96.390, 2898.0, 53.8331
23.206302071, 96.390, 2862.0, 53.4977
23.232562636, 96.390, 2913.0, 53.9722
23.258823201, 96.390, 2843.0, 53.3198
23.285083767, 96.390, 2784.0, 52.7636
23.311344332, 96.390, 2900.0, 53.8516
23.337604898, 96.390, 2847.0, 53.3573
23.363865463, 96.390, 2836.0, 53.2541
23.390126028, 96.390, 2860.0, 53.4790
23.416386594, 96.390, 2839.0, 53.2823
23.442647159, 96.390, 2933.0, 54.1572
23.468907724, 96.390, 2839.0, 53.2823
23.495168290, 96.390, 2889.0, 53.7494
23.521428855, 96.390, 2860.0, 53.4790
23.547689420, 96.390, 2865.0, 53.5257
23.573949986, 96.390, 2793.0, 52.8488
23.600210551, 96.390, 2739.0, 52.3355
23.626471116, 96.390, 2839.0, 53.2823
23.652731682, 96.390, 2738.0, 52.3259
23.678992247, 96.390, 2773.0, 52.6593
23.705252813, 96.390, 2836.0, 53.2541
23.731513378, 96.390, 2762.0, 52.5547
23.757773943, 96.390, 2808.0, 52.9906
23.784034509, 96.390, 2822.0, 53.1225
23.810295074, 96.390, 2720.0, 52.1536
23.836555639, 96.390, 2727.0, 52.2207
23.862816205, 96.390, 2718.0, 52.1344
23.889076770, 96.390, 2653.0, 51.5073
23.915337335, 96.390, 2837.0, 53.2635
23.941597901, 96.390, 2702.0, 51.9808
23.967858466, 96.390, 2700.0, 51.9615
23.994119031, 96.390, 2756.0, 52.4976
24.020379597, 96.390, 2815.0, 53.0566
24.046640162, 96.390, 2792.0, 52.8394
24.072900727, 96.390, 2812.0, 53.0283
24.099161293, 96.390, 2752.0, 52.4595
24.125421858, 96.390, 2680.0, 51.7687
24.151682424, 96.390, 2700.0, 51.9615
24.177942989, 96.390, 2690.0, 51.8652
24.204203554, 96.390, 2701.0, 51.9711
24.230464120, 96.390, 2801.0, 52.9245
24.256724685, 96.390, 2666.0, 51.6333
24.282985250, 96.390, 2719.0, 52.1440
24.309245816, 96.390, 2659.0, 51.5655
24.335506381, 96.390, 2700.0, 51.9615
24.361766946, 96.390, 2699.0, 51.9519
24.388027512, 96.390, 2690.0, 51.8652
24.414288077, 96.390, 2655.0, 51.5267
24.440548642, 96.390, 2679.0, 51.7591
24.466809208, 96.390, 2666.0, 51.6333
24.493069773, 96.390, 2681.0, 51.7784
24.519330338, 96.390, 2678.0, 51.7494
24.545590904, 96.390, 2710.0, 52.0577
24.571851469, 96.390, 2643.0, 51.4101
24.598112035, 96.390, 2666.0, 51.6333
24.624372600, 96.390, 2595.0, 50.9411
24.650633165, 96.390, 2631.0, 51.2933
24.676893731, 96.390, 2641.0, 51.3907
24.703154296, 96.390, 2661.0, 51.5849
24.729414861, 96.390, 2539.0, 50.3885
24.755675427, 96.390, 2609.0, 51.0784
24.781935992, 96.390, 2603.0, 51.0196
24.808196557, 96.390, 2564.0, 50.6360
24.834457123, 96.390, 2606.0, 51.0490
24.860717688, 96.390, 2520.0, 50.1996
24.886978253, 96.390, 2603.0, 51.0196
24.913238819, 96.390, 2688.0, 51.8459
24.939499384, 96.390, 2621.0, 51.1957
24.965759950, 96.390, 2504.0, 50.0400
24.992020515, 96.390, 2640.0, 51.3809
25.018281080, 96.390, 2626.0, 51.2445
25.044541646, 96.390, 2539.0, 50.3885
25.070802211, 96.390, 2612.0, 51.1077
25.097062776, 96.390, 2605.0, 51.0392
25.123323342, 96.390, 2534.0, 50.3389
25.149583907, 96.390, 2637.0, 51.3517
25.175844472, 96.390, 2575.0, 50.7445
25.202105038, 96.390, 2549.0, 50.4876
25.228365603, 96.390, 2563.0, 50.6261
25.254626168, 96.390, 2600.0, 50.9902
25.280886734, 96.390, 2503.0, 50.0300
25.307147299, 96.390, 2447.0, 49.4672
25.333407864, 96.390, 2469.0, 49.6890
25.359668430, 96.390, 2581.0, 50.8035
25.385928995, 96.390, 2573.0, 50.7247
25.412189561, 96.390, 2517.0, 50.1697
25.438450126, 96.390, 2549.0, 50.4876
25.464710691, 96.390, 2472.0, 49.7192
25.490971257, 96.390, 2434.0, 49.3356
25.517231822, 96.390, 2507.0, 50.0700
25.543492387, 96.390, 2456.0, 49.5580
25.569752953, 96.390, 2490.0, 49.8999
25.596013518, 96.390, 2428.0, 49.2747
25.622274083, 96.390, 2496.0, 49.9600
25.648534649, 96.390, 2549.0, 50.4876
25.674795214, 96.390, 2526.0, 50.2593
25.701055779, 96.390, 2408.0, 49.0714
25.727316345, 96.390, 2443.0, 49.4267
25.753576910, 96.390, 2482.0, 49.8197
25.779837476, 96.390, 2526.0, 50.2593
25.806098041, 96.390, 2504.0, 50.0400
25.832358606, 96.390, 2522.0, 50.2195
25.858619172, 96.390, 2393.0, 48.9183
25.884879737, 96.390, 2431.0, 49.3052
25.911140302, 96.390, 2468.0, 49.6790
25.937400868, 96.390, 2510.0, 50.0999
25.963661433, 96.390, 2441.0, 49.4065
25.989921998, 96.390, 2410.0, 49.0918
26.016182564, 96.390, 2451.0, 49.5076
26.042443129, 96.390, 2403.0, 49.0204
26.068703694, 96.390, 2483.0, 49.8297
26.094964260, 96.390, 2402.0, 49.0102
26.121224825, 96.390, 2404.0, 49.0306
26.147485390, 96.390, 2387.0, 48.8569
26.173745956, 96.390, 2421.0, 49.2037
26.200006521, 96.390, 2448.0, 49.4773
26.226267087, 96.390, 2487.0, 49.8698
26.252527652, 96.390, 2429.0, 49.2849
26.278788217, 96.390, 2345.0, 48.4252
26.305048783, 96.390, 2447.0, 49.4672
26.331309348, 96.390, 2447.0, 49.4672
26.357569913, 96.390, 2414.0, 49.1325
26.383830479, 96.390, 2447.0, 49.4672
26.410091044, 96.390, 2521.0, 50.2096
26.436351609, 96.390, 2409.0, 49.0816
26.462612175, 96.390, 2375.0, 48.7340
26.488872740, 96.390, 2436.0, 49.3559
26.515133305, 96.390, 2421.0, 49.2037
26.541393871, 96.390, 2402.0, 49.0102
26.567654436, 96.390, 2438.0, 49.3761
26.593915002, 96.390, 2381.0, 48.7955
26.620175567, 96.390, 2375.0, 48.7340
26.646436132, 96.390, 2363.0, 48.6107
26.672696698, 96.390, 2296.0, 47.9166
26.698957263, 96.390, 2326.0, 48.2286
26.725217828, 96.390, 2437.0, 49.3660
26.751478394, 96.390, 2359.0, 48.5695
26.777738959, 96.390, 2335.0, 48.3218
26.803999524, 96.390, 2394.0, 48.9285
26.830260090, 96.390, 2387.0, 48.8569
26.856520655, 96.390, 2404.0, 49.0306
26.882781220, 96.390, 2333.0, 48.3011
26.909041786, 96.390, 2375.0, 48.7340
26.935302351, 96.390, 2396.0, 48.9490
26.961562916, 96.390, 2361.0, 48.5901
26.987823482, 96.390, 2352.0, 48.4974
27.014084047, 96.390, 2401.0, 49.0000
27.040344613, 96.390, 2407.0, 49.0612
27.066605178, 96.390, 2297.0, 47.9270
27.092865743, 96.390, 2384.0, 48.8262
27.119126309, 96.390, 2440.0, 49.3964
27.145386874, 96.390, 2465.0, 49.6488
27.171647439, 96.390, 2354.0, 48.5180
27.197908005, 96.390, 2316.0, 48.1248
27.224168570, 96.390, 2315.0, 48.1144
27.250429135, 96.390, 2357.0, 48.5489
27.276689701, 96.390, 2257.0, 47.5079
27.302950266, 96.390, 2275.0, 47.6970
27.329210831, 96.390, 2335.0, 48.3218
27.355471397, 96.390, 2278.0, 47.7284
27.381731962, 96.390, 2250.0, 47.4342
27.407992528, 96.390, 2317.0, 48.1352
27.434253093, 96.390, 2348.0, 48.4562
27.460513658, 96.390, 2270.0, 47.6445
27.486774224, 96.390, 2366.0, 48.6415
27.513034789, 96.390, 2361.0, 48.5901
27.539295354, 96.390, 2284.0, 47.7912
27.565555920, 96.390, 2297.0, 47.9270
27.591816485, 96.390, 2298.0, 47.9375
27.618077050, 96.390, 2320.0, 48.1664
27.644337616, 96.390, 2313.0, 48.0937
27.670598181, 96.390, 2384.0, 48.8262
27.696858746, 96.390, 2335.0, 48.3218
27.723119312, 96.390, 2396.0, 48.9490
27.749379877, 96.390, 2332.0, 48.2908
27.775640442, 96.390, 2286.0, 47.8121
27.801901008, 96.390, 2311.0, 48.0729
27.828161573, 96.390, 2327.0, 48.2390
27.854422139, 96.390, 2388.0, 48.8672
27.880682704, 96.390, 2308.0, 48.0416
27.906943269, 96.390, 2288.0, 47.8330
27.933203835, 96.390, 2275.0, 47.6970
27.959464400, 96.390, 2298.0, 47.9375
27.985724965, 96.390, 2287.0, 47.8226
28.011985531, 96.390, 2287.0, 47.8226
28.038246096, 96.390, 2304.0, 48.0000
28.064506661, 96.390, 2305.0, 48.0104
28.090767227, 96.390, 2271.0, 47.6550
28.117027792, 96.390, 2239.0, 47.3181
28.143288357, 96.390, 2354.0, 48.5180
28.169548923, 96.390, 2345.0, 48.4252
28.195809488, 96.390, 2241.0, 47.3392
28.222070054, 96.390, 2293.0, 47.8853
28.248330619, 96.390, 2278.0, 47.7284
28.274591184, 96.390, 2324.0, 48.2079
28.300851750, 96.390, 2211.0, 47.0213
28.327112315, 96.390, 2309.0, 48.0521
28.353372880, 96.390, 2294.0, 47.8957
28.379633446, 96.390, 2291.0, 47.8644
28.405894011, 96.390, 2177.0, 46.6583
28.432154576, 96.390, 2288.0, 47.8330
28.458415142, 96.390, 2185.0, 46.7440
28.484675707, 96.390, 2265.0, 47.5920
28.510936272, 96.390, 2235.0, 47.2758
28.537196838, 96.390, 2245.0, 47.3814
28.563457403, 96.390, 2341.0, 48.3839
28.589717968, 96.390, 2277.0, 47.7179
28.615978534, 96.390, 2259.0, 47.5289
28.642239099, 96.390, 2336.0, 48.3322
28.668499665, 96.390, 2281.0, 47.7598
28.694760230, 96.390, 2297.0, 47.9270
28.721020795, 96.390, 2179.0, 46.6798
28.747281361, 96.390, 2209.0, 47.0000
28.773541926, 96.390, 2246.0, 47.3920
28.799802491, 96.390, 2238.0, 47.3075
28.826063057, 96.390, 2229.0, 47.2123
28.852323622, 96.390, 2306.0, 48.0208
28.878584187, 96.390, 2283.0, 47.7807
28.904844753, 96.390, 2313.0, 48.0937
28.931105318, 96.390, 2264.0, 47.5815
28.957365883, 96.390, 2247.0, 47.4025
28.983626449, 96.390, 2284.0, 47.7912
29.009887014, 96.390, 2248.0, 47.4131
29.036147579, 96.390, 2226.0, 47.1805
29.062408145, 96.390, 2247.0, 47.4025
29.088668710, 96.390, 2245.0, 47.3814
29.114929276, 96.390, 2263.0, 47.5710
29.141189841, 96.390, 2269.0, 47.6340
29.167450406, 96.390, 2281.0, 47.7598
29.193710972, 96.390, 2137.0, 46.2277
29.219971537, 96.390, 2271.0, 47.6550
29.246232102, 96.390, 2299.0, 47.9479
29.272492668, 96.390, 2188.0, 46.7761
29.298753233, 96.390, 2190.0, 46.7974
29.325013798, 96.390, 2187.0, 46.7654
29.351274364, 96.390, 2283.0, 47.7807
29.377534929, 96.390, 2175.0, 46.6369
29.403795494, 96.390, 2306.0, 48.0208
29.430056060, 96.390, 2245.0, 47.3814
29.456316625, 96.390, 2244.0, 47.3709
29.482577191, 96.390, 2342.0, 48.3942
29.508837756, 96.390, 2251.0, 47.4447
29.535098321, 96.390, 2226.0, 47.1805
29.561358887, 96.390, 2220.0, 47.1169
29.587619452, 96.390, 2274.0, 47.6865
29.613880017, 96.390, 2230.0, 47.2229
29.640140583, 96.390, 2299.0, 47.9479
29.666401148, 96.390, 2216.0, 47.0744
29.692661713, 96.390, 2296.0, 47.9166
29.718922279, 96.390, 2284.0, 47.7912
29.745182844, 96.390, 2161.0, 46.4866
29.771443409, 96.390, 2149.0, 46.3573
29.797703975, 96.390, 2185.0, 46.7440
29.823964540, 96.390, 2295.0, 47.9062
29.850225105, 96.390, 2201.0, 46.9148
29.876485671, 96.390, 2265.0, 47.5920
29.902746236, 96.390, 2307.0, 48.0312
29.929006802, 96.390, 2242.0, 47.3498
29.955267367, 96.390, 2285.0, 47.8017
29.981527932, 96.390, 2234.0, 47.2652
30.007788498, 96.390, 2244.0, 47.3709
30.034049063, 96.390, 2259.0, 47.5289
30.060309628, 96.390, 2171.0, 46.5940
30.086570194, 96.390, 2190.0, 46.7974
30.112830759, 96.390, 2251.0, 47.4447
30.139091324, 96.390, 2189.0, 46.7868
30.165351890, 96.390, 2184.0, 46.7333
30.191612455, 96.390, 2197.0, 46.8722
30.217873020, 96.390, 2184.0, 46.7333
30.244133586, 96.390, 2206.0, 46.9681
30.270394151, 96.390, 2230.0, 47.2229
30.296654717, 96.390, 2231.0, 47.2335
30.322915282, 96.390, 2311.0, 48.0729
30.349175847, 96.390, 2209.0, 47.0000
30.375436413, 96.390, 2160.0, 46.4758
30.401696978, 96.390, 2279.0, 47.7389
30.427957543, 96.390, 2266.0, 47.6025
30.454218109, 96.390, 2185.0, 46.7440
30.480478674, 96.390, 2219.0, 47.1063
30.506739239, 96.390, 2254.0, 47.4763
30.532999805, 96.390, 2264.0, 47.5815
30.559260370, 96.390, 2160.0, 46.4758
30.585520935, 96.390, 2201.0, 46.9148
30.611781501, 96.390, 2246.0, 47.3920
30.638042066, 96.390, 2206.0, 46.9681
30.664302631, 96.390, 2290.0, 47.8539
30.690563197, 96.390, 2124.0, 46.0869
30.716823762, 96.390, 2187.0, 46.7654
30.743084328, 96.390, 2110.0, 45.9347
30.769344893, 96.390, 2187.0, 46.7654
30.795605458, 96.390, 2131.0, 46.1628
30.821866024, 96.390, 2155.0, 46.4220
30.848126589, 96.390, 2260.0, 47.5395
30.874387154, 96.390, 2076.0, 45.5631
30.900647720, 96.390, 2238.0, 47.3075
30.926908285, 96.390, 2170.0, 46.5833
30.953168850, 96.390, 2174.0, 46.6262
30.979429416, 96.390, 2278.0, 47.7284
31.005689981, 96.390, 2219.0, 47.1063
31.031950546, 96.390, 2183.0, 46.7226
31.058211112, 96.390, 2200.0, 46.9042
31.084471677, 96.390, 2096.0, 45.7821
31.110732243, 96.390, 2213.0, 47.0425
31.136992808, 96.390, 2111.0, 45.9456
31.163253373, 96.390, 2188.0, 46.7761
31.189513939, 96.390, 2159.0, 46.4650
31.215774504, 96.390, 2161.0, 46.4866
31.242035069, 96.390, 2214.0, 47.0532
31.268295635, 96.390, 2219.0, 47.1063
31.294556200, 96.390, 2192.0, 46.8188
31.320816765, 96.390, 2169.0, 46.5725
31.347077331, 96.390, 2162.0, 46.4973
31.373337896, 96.390, 2152.0, 46.3897
31.399598461, 96.390, 2208.0, 46.9894
31.425859027, 96.390, 2223.0, 47.1487
31.452119592, 96.390, 2224.0, 47.1593
31.478380157, 96.390, 2158.0, 46.4543
31.504640723, 96.390, 2223.0, 47.1487
31.530901288, 96.390, 2213.0, 47.0425
31.557161854, 96.390, 2126.0, 46.1086
31.583422419, 96.390, 2202.0, 46.9255
31.609682984, 96.390, 2201.0, 46.9148
31.635943550, 96.390, 2109.0, 45.9239
31.662204115, 96.390, 2230.0, 47.2229
31.688464680, 96.390, 2244.0, 47.3709
31.714725246, 96.390, 2209.0, 47.0000
31.740985811, 96.390, 2172.0, 46.6047
31.767246376, 96.390, 2155.0, 46.4220
31.793506942, 96.390, 2080.0, 45.6070
31.819767507, 96.390, 2121.0, 46.0543
31.846028072, 96.390, 2125.0, 46.0977
31.872288638, 96.390, 2056.0, 45.3431
31.898549203, 96.390, 2217.0, 47.0850
31.924809769, 96.390, 2226.0, 47.1805
31.951070334, 96.390, 2172.0, 46.6047
31.977330899, 96.390, 2213.0, 47.0425
32.003591465, 96.390, 2151.0, 46.3789
32.029852030, 96.390, 2076.0, 45.5631
32.056112595, 96.390, 2032.0, 45.0777
32.082373161, 96.390, 2175.0, 46.6369
32.108633726, 96.390, 2226.0, 47.1805
32.134894291, 96.390, 2139.0, 46.2493
32.161154857, 96.390, 2212.0, 47.0319
32.187415422, 96.390, 2129.0, 46.1411
32.213675987, 96.390, 2157.0, 46.4435
32.239936553, 96.390, 2169.0, 46.5725
32.266197118, 96.390, 2183.0, 46.7226
32.292457683, 96.390, 2153.0, 46.4004
32.318718249, 96.390, 2102.0, 45.8476
32.344978814, 96.390, 2135.0, 46.2061
32.371239380, 96.390, 2140.0, 46.2601
32.397499945, 96.390, 2113.0, 45.9674
32.423760510, 96.390, 2043.0, 45.1996
32.450021076, 96.390, 2101.0, 45.8367
32.476281641, 96.390, 2117.0, 46.0109
32.502542206, 96.390, 2124.0, 46.0869
32.528802772, 96.390, 2103.0, 45.8585
32.555063337, 96.390, 2135.0, 46.2061
32.581323902, 96.390, 1996.0, 44.6766
32.607584468, 96.390, 2114.0, 45.9783
32.633845033, 96.390, 2103.0, 45.8585
32.660105598, 96.390, 2061.0, 45.3982
32.686366164, 96.390, 2107.0, 45.9021
32.712626729, 96.390, 2127.0, 46.1194
32.738887295, 96.390, 2160.0, 46.4758
32.765147860, 96.390, 2072.0, 45.5192
32.791408425, 96.390, 2043.0, 45.1996
32.817668991, 96.390, 2087.0, 45.6837
32.843929556, 96.390, 2121.0, 46.0543
32.870190121, 96.390, 1999.0, 44.7102
32.896450687, 96.390, 2023.0, 44.9778
32.922711252, 96.390, 2057.0, 45.3542
32.948971817, 96.390, 2230.0, 47.2229
32.975232383, 96.390, 2072.0, 45.5192
33.001492948, 96.390, 2056.0, 45.3431
33.027753513, 96.390, 2089.0, 45.7056
33.054014079, 96.390, 2017.0, 44.9110
33.080274644, 96.390, 2099.0, 45.8148
33.106535209, 96.390, 2029.0, 45.0444
33.132795775, 96.390, 2030.0, 45.0555
33.159056340, 96.390, 2125.0, 46.0977
33.185316906, 96.390, 2080.0, 45.6070
33.211577471, 96.390, 1968.0, 44.3621
33.237838036, 96.390, 2016.0, 44.8999
33.264098602, 96.390, 2084.0, 45.6508
33.290359167, 96.390, 2130.0, 46.1519
33.316619732, 96.390, 2141.0, 46.2709
33.342880298, 96.390, 2091.0, 45.7275
33.369140863, 96.390, 2041.0, 45.1774
33.395401428, 96.390, 2197.0, 46.8722
33.421661994, 96.390, 2019.0, 44.9333
33.447922559, 96.390, 2057.0, 45.3542
33.474183124, 96.390, 2040.0, 45.1664
33.500443690, 96.390, 2037.0, 45.1331
33.526704255, 96.390, 2045.0, 45.2217
33.552964820, 96.390, 1976.0, 44.4522
33.579225386, 96.390, 2086.0, 45.6727
33.605485951, 96.390, 1981.0, 44.5084
33.631746517, 96.390, 2030.0, 45.0555
33.658007082, 96.390, 2105.0, 45.8803
33.684267647, 96.390, 1997.0, 44.6878
33.710528213, 96.390, 2005.0, 44.7772
33.736788778, 96.390, 1985.0, 44.5533
33.763049343, 96.390, 1935.0, 43.9886
33.789309909, 96.390, 1993.0, 44.6430
33.815570474, 96.390, 2102.0, 45.8476
33.841831039, 96.390, 2035.0, 45.1110
33.868091605, 96.390, 2000.0, 44.7214
33.894352170, 96.390, 1953.0, 44.1928
33.920612735, 96.390, 2028.0, 45.0333
33.946873301, 96.390, 2092.0, 45.7384
33.973133866, 96.390, 2048.0, 45.2548
33.999394432, 96.390, 2049.0, 45.2659
34.025654997, 96.390, 2016.0, 44.8999
34.051915562, 96.390, 1985.0, 44.5533
34.078176128, 96.390, 2012.0, 44.8553
34.104436693, 96.390, 2003.0, 44.7549
34.130697258, 96.390, 2029.0, 45.0444
34.156957824, 96.390, 2029.0, 45.0444
34.183218389, 96.390, 2014.0, 44.8776
34.209478954, 96.390, 1926.0, 43.8862
34.235739520, 96.390, 1994.0, 44.6542
34.262000085, 96.390, 1992.0, 44.6318
34.288260650, 96.390, 2020.0, 44.9444
34.314521216, 96.390, 2035.0, 45.1110
34.340781781, 96.390, 2049.0, 45.2659
34.367042346, 96.390, 1993.0, 44.6430
34.393302912, 96.390, 2065.0, 45.4423
34.419563477, 96.390, 2006.0, 44.7884
34.445824043, 96.390, 2016.0, 44.8999
34.472084608, 96.390, 2139.0, 46.2493
34.498345173, 96.390, 2001.0, 44.7325
34.524605739, 96.390, 2036.0, 45.1221
34.550866304, 96.390, 2035.0, 45.1110
34.577126869, 96.390, 2021.0, 44.9555
34.603387435, 96.390, 2054.0, 45.3211
34.629648000, 96.390, 1971.0, 44.3959
34.655908565, 96.390, 2000.0, 44.7214
34.682169131, 96.390, 1984.0, 44.5421
34.708429696, 96.390, 2091.0, 45.7275
34.734690261, 96.390, 2064.0, 45.4313
34.760950827, 96.390, 1987.0, 44.5758
34.787211392, 96.390, 2040.0, 45.1664
34.813471958, 96.390, 2053.0, 45.3100
34.839732523, 96.390, 2040.0, 45.1664
34.865993088, 96.390, 2034.0, 45.0999
34.892253654, 96.390, 1943.0, 44.0795
34.918514219, 96.390, 2016.0, 44.8999
34.944774784, 96.390, 2041.0, 45.1774
34.971035350, 96.390, 1998.0, 44.6990
34.997295915, 96.390, 2022.0, 44.9667
35.023556480, 96.390, 2001.0, 44.7325
35.049817046, 96.390, 2039.0, 45.1553
35.076077611, 96.390, 2078.0, 45.5851
35.102338176, 96.390, 1979.0, 44.4860
35.128598742, 96.390, 1990.0, 44.6094
35.154859307, 96.390, 1953.0, 44.1928
35.181119872, 96.390, 2031.0, 45.0666
35.207380438, 96.390, 1999.0, 44.7102
35.233641003, 96.390, 1985.0, 44.5533
35.259901569, 96.390, 2048.0, 45.2548
35.286162134, 96.390, 2069.0, 45.4863
35.312422699, 96.390, 1942.0, 44.0681
35.338683265, 96.390, 1926.0, 43.8862
35.364943830, 96.390, 1884.0, 43.4051
35.391204395, 96.390, 1948.0, 44.1362
35.417464961, 96.390, 1878.0, 43.3359
35.443725526, 96.390, 1936.0, 44.0000
35.469986091, 96.390, 1943.0, 44.0795
35.496246657, 96.390, 1966.0, 44.3396
35.522507222, 96.390, 2033.0, 45.0888
35.548767787, 96.390, 1819.0, 42.6497
35.575028353, 96.390, 1898.0, 43.5660
35.601288918, 96.390, 1919.0, 43.8064
35.627549484, 96.390, 1927.0, 43.8976
35.653810049, 96.390, 1885.0, 43.4166
35.680070614, 96.390, 1927.0, 43.8976
35.706331180, 96.390, 1938.0, 44.0227
35.732591745, 96.390, 1889.0, 43.4626
35.758852310, 96.390, 1887.0, 43.4396
35.785112876, 96.390, 1977.0, 44.4635
35.811373441, 96.390, 1914.0, 43.7493
35.837634006, 96.390, 1884.0, 43.4051
35.863894572, 96.390, 1909.0, 43.6921
35.890155137, 96.390, 1920.0, 43.8178
35.916415702, 96.390, 1915.0, 43.7607
35.942676268, 96.390, 1903.0, 43.6234
35.968936833, 96.390, 1854.0, 43.0581
35.995197398, 96.390, 1968.0, 44.3621
36.021457964, 96.390, 1870.0, 43.2435
36.047718529, 96.390, 1895.0, 43.5316
36.073979095, 96.390, 1807.0, 42.5088
36.100239660, 96.390, 1852.0, 43.0349
36.126500225, 96.390, 1797.0, 42.3910
36.152760791, 96.390, 1869.0, 43.2319
36.179021356, 96.390, 1963.0, 44.3058
36.205281921, 96.390, 1835.0, 42.8369
36.231542487, 96.390, 1908.0, 43.6807
36.257803052, 96.390, 1830.0, 42.7785
36.284063617, 96.390, 1814.0, 42.5911
36.310324183, 96.390, 1863.0, 43.1625
36.336584748, 96.390, 1845.0, 42.9535
36.362845313, 96.390, 1870.0, 43.2435
36.389105879, 96.390, 1877.0, 43.3244
36.415366444, 96.390, 1737.0, 41.6773
36.441627010, 96.390, 1825.0, 42.7200
36.467887575, 96.390, 1781.0, 42.2019
36.494148140, 96.390, 1867.0, 43.2088
36.520408706, 96.390, 1776.0, 42.1426
36.546669271, 96.390, 1824.0, 42.7083
36.572929836, 96.390, 1766.0, 42.0238
36.599190402, 96.390, 1863.0, 43.1625
36.625450967, 96.390, 1822.0, 42.6849
36.651711532, 96.390, 1778.0, 42.1663
36.677972098, 96.390, 1791.0, 42.3202
36.704232663, 96.390, 1839.0, 42.8836
36.730493228, 96.390, 1724.0, 41.5211
36.756753794, 96.390, 1780.0, 42.1900
36.783014359, 96.390, 1773.0, 42.1070
36.809274924, 96.390, 1704.0, 41.2795
36.835535490, 96.390, 1775.0, 42.1307
36.861796055, 96.390, 1665.0, 40.8044
36.888056621, 96.390, 1768.0, 42.0476
36.914317186, 96.390, 1819.0, 42.6497
36.940577751, 96.390, 1765.0, 42.0119
36.966838317, 96.390, 1799.0, 42.4146
36.993098882, 96.390, 1835.0, 42.8369
37.019359447, 96.390, 1709.0, 41.3401
37.045620013, 96.390, 1709.0, 41.3401
37.071880578, 96.390, 1752.0, 41.8569
37.098141143, 96.390, 1770.0, 42.0714
37.124401709, 96.390, 1783.0, 42.2256
37.150662274, 96.390, 1681.0, 41.0000
37.176922839, 96.390, 1729.0, 41.5812
37.203183405, 96.390, 1770.0, 42.0714
37.229443970, 96.390, 1661.0, 40.7554
37.255704535, 96.390, 1751.0, 41.8450
37.281965101, 96.390, 1656.0, 40.6940
37.308225666, 96.390, 1719.0, 41.4608
37.334486232, 96.390, 1753.0, 41.8688
37.360746797, 96.390, 1706.0, 41.3038
37.387007362, 96.390, 1631.0, 40.3856
37.413267928, 96.390, 1715.0, 41.4126
37.439528493, 96.390, 1702.0, 41.2553
37.465789058, 96.390, 1680.0, 40.9878
37.492049624, 96.390, 1672.0, 40.8901
37.518310189, 96.390, 1708.0, 41.3280
37.544570754, 96.390, 1657.0, 40.7063
37.570831320, 96.390, 1609.0, 40.1123
37.597091885, 96.390, 1655.0, 40.6817
37.623352450, 96.390, 1673.0, 40.9023
37.649613016, 96.390, 1634.0, 40.4228
37.675873581, 96.390, 1626.0, 40.3237
37.702134147, 96.390, 1656.0, 40.6940
37.728394712, 96.390, 1682.0, 41.0122
37.754655277, 96.390, 1630.0, 40.3733
37.780915843, 96.390, 1526.0, 39.0640
37.807176408, 96.390, 1669.0, 40.8534
37.833436973, 96.390, 1643.0, 40.5339
37.859697539, 96.390, 1641.0, 40.5093
37.885958104, 96.390, 1597.0, 39.9625
37.912218669, 96.390, 1661.0, 40.7554
37.938479235, 96.390, 1559.0, 39.4842
37.964739800, 96.390, 1632.0, 40.3980
37.991000365, 96.390, 1626.0, 40.3237
38.017260931, 96.390, 1606.0, 40.0749
38.043521496, 96.390, 1680.0, 40.9878
38.069782061, 96.390, 1590.0, 39.8748
38.096042627, 96.390, 1602.0, 40.0250
38.122303192, 96.390, 1625.0, 40.3113
38.148563758, 96.390, 1533.0, 39.1535
38.174824323, 96.390, 1603.0, 40.0375
38.201084888, 96.390, 1571.0, 39.6358
38.227345454, 96.390, 1562.0, 39.5221
38.253606019, 96.390, 1643.0, 40.5339
38.279866584, 96.390, 1572.0, 39.6485
38.306127150, 96.390, 1580.0, 39.7492
38.332387715, 96.390, 1498.0, 38.7040
38.358648280, 96.390, 1651.0, 40.6325
38.384908846, 96.390, 1532.0, 39.1408
38.411169411, 96.390, 1545.0, 39.3065
38.437429976, 96.390, 1615.0, 40.1871
38.463690542, 96.390, 1610.0, 40.1248
38.489951107, 96.390, 1596.0, 39.9500
38.516211673, 96.390, 1594.0, 39.9249
38.542472238, 96.390, 1525.0, 39.0512
38.568732803, 96.390, 1558.0, 39.4715
38.594993369, 96.390, 1611.0, 40.1373
38.621253934, 96.390, 1483.0, 38.5097
38.647514499, 96.390, 1516.0, 38.9358
38.673775065, 96.390, 1509.0, 38.8458
38.700035630, 96.390, 1544.0, 39.2938
38.726296195, 96.390, 1425.0, 37.7492
38.752556761, 96.390, 1624.0, 40.2989
38.778817326, 96.390, 1524.0, 39.0384
38.805077891, 96.390, 1560.0, 39.4968
38.831338457, 96.390, 1517.0, 38.9487
38.857599022, 96.390, 1516.0, 38.9358
38.883859587, 96.390, 1523.0, 39.0256
38.910120153, 96.390, 1462.0, 38.2361
38.936380718, 96.390, 1497.0, 38.6911
38.962641284, 96.390, 1517.0, 38.9487
38.988901849, 96.390, 1548.0, 39.3446
39.015162414, 96.390, 1539.0, 39.2301
39.041422980, 96.390, 1568.0, 39.5980
39.067683545, 96.390, 1545.0, 39.3065
39.093944110, 96.390, 1433.0, 37.8550
39.120204676, 96.390, 1452.0, 38.1051
39.146465241, 96.390, 1590.0, 39.8748
39.172725806, 96.390, 1423.0, 37.7227
39.198986372, 96.390, 1533.0, 39.1535
39.225246937, 96.390, 1540.0, 39.2428
39.251507502, 96.390, 1586.0, 39.8246
39.277768068, 96.390, 1482.0, 38.4968
39.304028633, 96.390, 1465.0, 38.2753
39.330289199, 96.390, 1461.0, 38.2230
39.356549764, 96.390, 1564.0, 39.5474
39.382810329, 96.390, 1469.0, 38.3275
39.409070895, 96.390, 1531.0, 39.1280
39.435331460, 96.390, 1455.0, 38.1445
39.461592025, 96.390, 1470.0, 38.3406
39.487852591, 96.390, 1468.0, 38.3145
39.514113156, 96.390, 1501.0, 38.7427
39.540373721, 96.390, 1407.0, 37.5100
39.566634287, 96.390, 1503.0, 38.7685
39.592894852, 96.390, 1456.0, 38.1576
39.619155417, 96.390, 1480.0, 38.4708
39.645415983, 96.390, 1474.0, 38.3927
39.671676548, 96.390, 1457.0, 38.1707
39.697937113, 96.390, 1495.0, 38.6652
39.724197679, 96.390, 1502.0, 38.7556
39.750458244, 96.390, 1423.0, 37.7227
39.776718810, 96.390, 1439.0, 37.9342
39.802979375, 96.390, 1402.0, 37.4433
39.829239940, 96.390, 1374.0, 37.0675
39.855500506, 96.390, 1492.0, 38.6264
39.881761071, 96.390, 1407.0, 37.5100
39.908021636, 96.390, 1555.0, 39.4335
39.934282202, 96.390, 1409.0, 37.5366
39.960542767, 96.390, 1377.0, 37.1080
39.986803332, 96.390, 1431.0, 37.8286
40.013063898, 96.390, 1476.0, 38.4187
40.039324463, 96.390, 1423.0, 37.7227
40.065585028, 96.390, 1382.0, 37.1753
40.091845594, 96.390, 1435.0, 37.8814
40.118106159, 96.390, 1435.0, 37.8814
40.144366725, 96.390, 1333.0, 36.5103
40.170627290, 96.390, 1435.0, 37.8814
40.196887855, 96.390, 1477.0, 38.4318
40.223148421, 96.390, 1490.0, 38.6005
40.249408986, 96.390, 1460.0, 38.2099
40.275669551, 96.390, 1424.0, 37.7359
40.301930117, 96.390, 1441.0, 37.9605
40.328190682, 96.390, 1441.0, 37.9605
40.354451247, 96.390, 1391.0, 37.2961
40.380711813, 96.390, 1416.0, 37.6298
40.406972378, 96.390, 1387.0, 37.2424
40.433232943, 96.390, 1427.0, 37.7757
40.459493509, 96.390, 1372.0, 37.0405
40.485754074, 96.390, 1380.0, 37.1484
40.512014639, 96.390, 1432.0, 37.8418
40.538275205, 96.390, 1424.0, 37.7359
40.564535770, 96.390, 1403.0, 37.4566
40.590796336, 96.390, 1383.0, 37.1887
40.617056901, 96.390, 1438.0, 37.9210
40.643317466, 96.390, 1395.0, 37.3497
40.669578032, 96.390, 1417.0, 37.6431
40.695838597, 96.390, 1461.0, 38.2230
40.722099162, 96.390, 1419.0, 37.6696
40.748359728, 96.390, 1421.0, 37.6962
40.774620293, 96.390, 1441.0, 37.9605
40.800880858, 96.390, 1414.0, 37.6032
40.827141424, 96.390, 1390.0, 37.2827
40.853401989, 96.390, 1420.0, 37.6829
40.879662554, 96.390, 1416.0, 37.6298
40.905923120, 96.390, 1374.0, 37.0675
40.932183685, 96.390, 1464.0, 38.2623
40.958444251, 96.390, 1395.0, 37.3497
40.984704816, 96.390, 1348.0, 36.7151
41.010965381, 96.390, 1424.0, 37.7359
41.037225947, 96.390, 1341.0, 36.6197
41.063486512, 96.390, 1360.0, 36.8782
41.089747077, 96.390, 1384.0, 37.2022
41.116007643, 96.390, 1349.0, 36.7287
41.142268208, 96.390, 1418.0, 37.6563
41.168528773, 96.390, 1379.0, 37.1349
41.194789339, 96.390, 1318.0, 36.3043
41.221049904, 96.390, 1405.0, 37.4833
41.247310469, 96.390, 1330.0, 36.4692
41.273571035, 96.390, 1417.0, 37.6431
41.299831600, 96.390, 1433.0, 37.8550
41.326092165, 96.390, 1418.0, 37.6563
41.352352731, 96.390, 1370.0, 37.0135
41.378613296, 96.390, 1395.0, 37.3497
41.404873862, 96.390, 1397.0, 37.3765
41.431134427, 96.390, 1369.0, 37.0000
41.457394992, 96.390, 1365.0, 36.9459
41.483655558, 96.390, 1299.0, 36.0416
41.509916123, 96.390, 1361.0, 36.8917
41.536176688, 96.390, 1305.0, 36.1248
41.562437254, 96.390, 1338.0, 36.5787
41.588697819, 96.390, 1330.0, 36.4692
41.614958384, 96.390, 1426.0, 37.7624
41.641218950, 96.390, 1353.0, 36.7831
41.667479515, 96.390, 1398.0, 37.3898
41.693740080, 96.390, 1348.0, 36.7151
41.720000646, 96.390, 1341.0, 36.6197
41.746261211, 96.390, 1360.0, 36.8782
41.772521776, 96.390, 1295.0, 35.9861
41.798782342, 96.390, 1380.0, 37.1484
41.825042907, 96.390, 1343.0, 36.6470
41.851303473, 96.390, 1330.0, 36.4692
41.877564038, 96.390, 1284.0, 35.8329
41.903824603, 96.390, 1353.0, 36.7831
41.930085169, 96.390, 1359.0, 36.8646
41.956345734, 96.390, 1314.0, 36.2491
41.982606299, 96.390, 1310.0, 36.1939
42.008866865, 96.390, 1369.0, 37.0000
42.035127430, 96.390, 1361.0, 36.8917
42.061387995, 96.390, 1377.0, 37.1080
42.087648561, 96.390, 1301.0, 36.0694
42.113909126, 96.390, 1306.0, 36.1386
42.140169691, 96.390, 1301.0, 36.0694
42.166430257, 96.390, 1335.0, 36.5377
42.192690822, 96.390, 1366.0, 36.9594
42.218951388, 96.390, 1336.0, 36.5513
42.245211953, 96.390, 1289.0, 35.9026
42.271472518, 96.390, 1376.0, 37.0945
42.297733084, 96.390, 1369.0, 37.0000
42.323993649, 96.390, 1341.0, 36.6197
42.350254214, 96.390, 1377.0, 37.1080
42.376514780, 96.390, 1349.0, 36.7287
42.402775345, 96.390, 1357.0, 36.8375
42.429035910, 96.390, 1395.0, 37.3497
42.455296476, 96.390, 1312.0, 36.2215
42.481557041, 96.390, 1280.0, 35.7771
42.507817606, 96.390, 1360.0, 36.8782
42.534078172, 96.390, 1364.0, 36.9324
42.560338737, 96.390, 1317.0, 36.2905
42.586599302, 96.390, 1322.0, 36.3593
42.612859868, 96.390, 1330.0, 36.4692
42.639120433, 96.390, 1304.0, 36.1109
42.665380999, 96.390, 1324.0, 36.3868
42.691641564, 96.390, 1323.0, 36.3731
42.717902129, 96.390, 1375.0, 37.0810
42.744162695, 96.390, 1372.0, 37.0405
42.770423260, 96.390, 1349.0, 36.7287
42.796683825, 96.390, 1311.0, 36.2077
42.822944391, 96.390, 1321.0, 36.3456
42.849204956, 96.390, 1291.0, 35.9305
42.875465521, 96.390, 1323.0, 36.3731
42.901726087, 96.390, 1300.0, 36.0555
42.927986652, 96.390, 1310.0, 36.1939
42.954247217, 96.390, 1317.0, 36.2905
42.980507783, 96.390, 1332.0, 36.4966
43.006768348, 96.390, 1326.0, 36.4143
43.033028914, 96.390, 1249.0, 35.3412
43.059289479, 96.390, 1339.0, 36.5923
43.085550044, 96.390, 1277.0, 35.7351
43.111810610, 96.390, 1344.0, 36.6606
43.138071175, 96.390, 1280.0, 35.7771
43.164331740, 96.390, 1273.0, 35.6791
43.190592306, 96.390, 1285.0, 35.8469
43.216852871, 96.390, 1305.0, 36.1248
43.243113436, 96.390, 1322.0, 36.3593
43.269374002, 96.390, 1284.0, 35.8329
43.295634567, 96.390, 1331.0, 36.4829
43.321895132, 96.390, 1392.0, 37.3095
43.348155698, 96.390, 1374.0, 37.0675
43.374416263, 96.390, 1293.0, 35.9583
43.400676828, 96.390, 1341.0, 36.6197
43.426937394, 96.390, 1357.0, 36.8375
43.453197959, 96.390, 1278.0, 35.7491
43.479458525, 96.390, 1331.0, 36.4829
43.505719090, 96.390, 1287.0, 35.8748
43.531979655, 96.390, 1326.0, 36.4143
43.558240221, 96.390, 1326.0, 36.4143
43.584500786, 96.390, 1371.0, 37.0270
43.610761351, 96.390, 1274.0, 35.6931
43.637021917, 96.390, 1282.0, 35.8050
43.663282482, 96.390, 1324.0, 36.3868
43.689543047, 96.390, 1332.0, 36.4966
43.715803613, 96.390, 1281.0, 35.7911
43.742064178, 96.390, 1247.0, 35.3129
43.768324743, 96.390, 1278.0, 35.7491
43.794585309, 96.390, 1361.0, 36.8917
43.820845874, 96.390, 1249.0, 35.3412
43.847106440, 96.390, 1347.0, 36.7015
43.873367005, 96.390, 1157.0, 34.0147
43.899627570, 96.390, 1272.0, 35.6651
43.925888136, 96.390, 1333.0, 36.5103
43.952148701, 96.390, 1378.0, 37.1214
43.978409266, 96.390, 1376.0, 37.0945
44.004669832, 96.390, 1284.0, 35.8329
44.030930397, 96.390, 1325.0, 36.4005
44.057190962, 96.390, 1298.0, 36.0278
44.083451528, 96.390, 1293.0, 35.9583
44.109712093, 96.390, 1285.0, 35.8469
44.135972658, 96.390, 1301.0, 36.0694
44.162233224, 96.390, 1271.0, 35.6511
44.188493789, 96.390, 1289.0, 35.9026
44.214754354, 96.390, 1315.0, 36.2629
44.241014920, 96.390, 1299.0, 36.0416
44.267275485, 96.390, 1282.0, 35.8050
44.293536051, 96.390, 1359.0, 36.8646
44.319796616, 96.390, 1272.0, 35.6651
44.346057181, 96.390, 1350.0, 36.7423
44.372317747, 96.390, 1321.0, 36.3456
44.398578312, 96.390, 1286.0, 35.8608
44.424838877, 96.390, 1270.0, 35.6371
44.451099443, 96.390, 1299.0, 36.0416
44.477360008, 96.390, 1247.0, 35.3129
44.503620573, 96.390, 1312.0, 36.2215
44.529881139, 96.390, 1326.0, 36.4143
44.556141704, 96.390, 1323.0, 36.3731
44.582402269, 96.390, 1325.0, 36.4005
44.608662835, 96.390, 1340.0, 36.6060
44.634923400, 96.390, 1235.0, 35.1426
44.661183966, 96.390, 1235.0, 35.1426
44.687444531, 96.390, 1256.0, 35.4401
44.713705096, 96.390, 1274.0, 35.6931
44.739965662, 96.390, 1314.0, 36.2491
44.766226227, 96.390, 1332.0, 36.4966
44.792486792, 96.390, 1303.0, 36.0971
44.818747358, 96.390, 1300.0, 36.0555
44.845007923, 96.390, 1286.0, 35.8608
44.871268488, 96.390, 1316.0, 36.2767
44.897529054, 96.390, 1310.0, 36.1939
44.923789619, 96.390, 1259.0, 35.4824
44.950050184, 96.390, 1306.0, 36.1386
44.976310750, 96.390, 1266.0, 35.5809
45.002571315, 96.390, 1305.0, 36.1248
45.028831880, 96.390, 1260.0, 35.4965
45.055092446, 96.390, 1221.0, 34.9428
45.081353011, 96.390, 1294.0, 35.9722
45.107613577, 96.390, 1305.0, 36.1248
45.133874142, 96.390, 1303.0, 36.0971
45.160134707, 96.390, 1229.0, 35.0571
45.186395273, 96.390, 1281.0, 35.7911
45.212655838, 96.390, 1278.0, 35.7491
45.238916403, 96.390, 1306.0, 36.1386
45.265176969, 96.390, 1291.0, 35.9305
45.291437534, 96.390, 1282.0, 35.8050
45.317698099, 96.390, 1260.0, 35.4965
45.343958665, 96.390, 1316.0, 36.2767
45.370219230, 96.390, 1307.0, 36.1525
45.396479795, 96.390, 1250.0, 35.3553
45.422740361, 96.390, 1272.0, 35.6651
45.449000926, 96.390, 1287.0, 35.8748
45.475261492, 96.390, 1235.0, 35.1426
45.501522057, 96.390, 1260.0, 35.4965
45.527782622, 96.390, 1302.0, 36.0832
45.554043188, 96.390, 1259.0, 35.4824
45.580303753, 96.390, 1282.0, 35.8050
45.606564318, 96.390, 1283.0, 35.8190
45.632824884, 96.390, 1256.0, 35.4401
45.659085449, 96.390, 1230.0, 35.0714
45.685346014, 96.390, 1185.0, 34.4238
45.711606580, 96.390, 1234.0, 35.1283
45.737867145, 96.390, 1257.0, 35.4542
45.764127710, 96.390, 1262.0, 35.5246
45.790388276, 96.390, 1281.0, 35.7911
45.816648841, 96.390, 1239.0, 35.1994
45.842909406, 96.390, 1255.0, 35.4260
45.869169972, 96.390, 1313.0, 36.2353
45.895430537, 96.390, 1280.0, 35.7771
45.921691103, 96.390, 1200.0, 34.6410
45.947951668, 96.390, 1234.0, 35.1283
45.974212233, 96.390, 1260.0, 35.4965
46.000472799, 96.390, 1276.0, 35.7211
46.026733364, 96.390, 1241.0, 35.2278
46.052993929, 96.390, 1224.0, 34.9857
46.079254495, 96.390, 1256.0, 35.4401
46.105515060, 96.390, 1195.0, 34.5688
46.131775625, 96.390, 1223.0, 34.9714
46.158036191, 96.390, 1243.0, 35.2562
46.184296756, 96.390, 1281.0, 35.7911
46.210557321, 96.390, 1251.0, 35.3695
46.236817887, 96.390, 1259.0, 35.4824
46.263078452, 96.390, 1220.0, 34.9285
46.289339017, 96.390, 1262.0, 35.5246
46.315599583, 96.390, 1173.0, 34.2491
46.341860148, 96.390, 1209.0, 34.7707
46.368120714, 96.390, 1262.0, 35.5246
46.394381279, 96.390, 1203.0, 34.6843
46.420641844, 96.390, 1247.0, 35.3129
46.446902410, 96.390, 1253.0, 35.3977
46.473162975, 96.390, 1211.0, 34.7994
46.499423540, 96.390, 1309.0, 36.1801
46.525684106, 96.390, 1243.0, 35.2562
46.551944671, 96.390, 1193.0, 34.5398
46.578205236, 96.390, 1233.0, 35.1141
46.604465802, 96.390, 1224.0, 34.9857
46.630726367, 96.390, 1209.0, 34.7707
46.656986932, 96.390, 1241.0, 35.2278
46.683247498, 96.390, 1210.0, 34.7851
46.709508063, 96.390, 1255.0, 35.4260
46.735768629, 96.390, 1270.0, 35.6371
46.762029194, 96.390, 1199.0, 34.6266
46.788289759, 96.390, 1167.0, 34.1614
46.814550325, 96.390, 1286.0, 35.8608
46.840810890, 96.390, 1215.0, 34.8569
46.867071455, 96.390, 1319.0, 36.3180
46.893332021, 96.390, 1225.0, 35.0000
46.919592586, 96.390, 1213.0, 34.8281
46.945853151, 96.390, 1234.0, 35.1283
46.972113717, 96.390, 1223.0, 34.9714
46.998374282, 96.390, 1247.0, 35.3129
47.024634847, 96.390, 1222.0, 34.9571
47.050895413, 96.390, 1180.0, 34.3511
47.077155978, 96.390, 1205.0, 34.7131
47.103416543, 96.390, 1229.0, 35.0571
47.129677109, 96.390, 1248.0, 35.3270
47.155937674, 96.390, 1219.0, 34.9142
47.182198240, 96.390, 1189.0, 34.4819
47.208458805, 96.390, 1165.0, 34.1321
47.234719370, 96.390, 1258.0, 35.4683
47.260979936, 96.390, 1200.0, 34.6410
47.287240501, 96.390, 1268.0, 35.6090
47.313501066, 96.390, 1210.0, 34.7851
47.339761632, 96.390, 1213.0, 34.8281
47.366022197, 96.390, 1175.0, 34.2783
47.392282762, 96.390, 1210.0, 34.7851
47.418543328, 96.390, 1180.0, 34.3511
47.444803893, 96.390, 1154.0, 33.9706
47.471064458, 96.390, 1124.0, 33.5261
47.497325024, 96.390, 1184.0, 34.4093
47.523585589, 96.390, 1175.0, 34.2783
47.549846155, 96.390, 1253.0, 35.3977
47.576106720, 96.390, 1219.0, 34.9142
47.602367285, 96.390, 1142.0, 33.7935
47.628627851, 96.390, 1188.0, 34.4674
47.654888416, 96.390, 1190.0, 34.4964
47.681148981, 96.390, 1184.0, 34.4093
47.707409547, 96.390, 1165.0, 34.1321
47.733670112, 96.390, 1215.0, 34.8569
47.759930677, 96.390, 1126.0, 33.5559
47.786191243, 96.390, 1167.0, 34.1614
47.812451808, 96.390, 1178.0, 34.3220
47.838712373, 96.390, 1158.0, 34.0294
47.864972939, 96.390, 1210.0, 34.7851
47.891233504, 96.390, 1138.0, 33.7343
47.917494069, 96.390, 1139.0, 33.7491
47.943754635, 96.390, 1098.0, 33.1361
47.970015200, 96.390, 1199.0, 34.6266
47.996275766, 96.390, 1119.0, 33.4515
48.022536331, 96.390, 1189.0, 34.4819
48.048796896, 96.390, 1183.0, 34.3948
48.075057462, 96.390, 1174.0, 34.2637
48.101318027, 96.390, 1184.0, 34.4093
48.127578592, 96.390, 1173.0, 34.2491
48.153839158, 96.390, 1125.0, 33.5410
48.180099723, 96.390, 1184.0, 34.4093
48.206360288, 96.390, 1166.0, 34.1467
48.232620854, 96.390, 1144.0, 33.8231
48.258881419, 96.390, 1149.0, 33.8969
48.285141984, 96.390, 1134.0, 33.6749
48.311402550, 96.390, 1145.0, 33.8378
48.337663115, 96.390, 1156.0, 34.0000
48.363923681, 96.390, 1115.0, 33.3916
48.390184246, 96.390, 1206.0, 34.7275
48.416444811, 96.390, 1102.0, 33.1964
48.442705377, 96.390, 1204.0, 34.6987
48.468965942, 96.390, 1093.0, 33.0606
48.495226507, 96.390, 1253.0, 35.3977
48.521487073, 96.390, 1159.0, 34.0441
48.547747638, 96.390, 1114.0, 33.3766
48.574008203, 96.390, 1138.0, 33.7343
48.600268769, 96.390, 1069.0, 32.6956
48.626529334, 96.390, 1103.0, 33.2114
48.652789899, 96.390, 1165.0, 34.1321
48.679050465, 96.390, 1171.0, 34.2199
48.705311030, 96.390, 1132.0, 33.6452
48.731571595, 96.390, 1141.0, 33.7787
48.757832161, 96.390, 1119.0, 33.4515
48.784092726, 96.390, 1138.0, 33.7343
48.810353292, 96.390, 1162.0, 34.0881
48.836613857, 96.390, 1125.0, 33.5410
48.862874422, 96.390, 1175.0, 34.2783
48.889134988, 96.390, 1102.0, 33.1964
48.915395553, 96.390, 1149.0, 33.8969
48.941656118, 96.390, 1146.0, 33.8526
48.967916684, 96.390, 1122.0, 33.4963
48.994177249, 96.390, 1132.0, 33.6452
49.020437814, 96.390, 1094.0, 33.0757
49.046698380, 96.390, 1119.0, 33.4515
49.072958945, 96.390, 1112.0, 33.3467
49.099219510, 96.390, 1136.0, 33.7046
49.125480076, 96.390, 1170.0, 34.2053
49.151740641, 96.390, 1198.0, 34.6121
49.178001207, 96.390, 1097.0, 33.1210
49.204261772, 96.390, 1123.0, 33.5112
49.230522337, 96.390, 1168.0, 34.1760
49.256782903, 96.390, 1051.0, 32.4191
49.283043468, 96.390, 1140.0, 33.7639
49.309304033, 96.390, 1126.0, 33.5559
49.335564599, 96.390, 1133.0, 33.6601
49.361825164, 96.390, 1107.0, 33.2716
49.388085729, 96.390, 1057.0, 32.5115
49.414346295, 96.390, 1107.0, 33.2716
49.440606860, 96.390, 1118.0, 33.4365
49.466867425, 96.390, 1065.0, 32.6343
49.493127991, 96.390, 1091.0, 33.0303
49.519388556, 96.390, 1083.0, 32.9090
49.545649121, 96.390, 1081.0, 32.8786
49.571909687, 96.390, 1117.0, 33.4215
49.598170252, 96.390, 1102.0, 33.1964
49.624430818, 96.390, 1085.0, 32.9393
49.650691383, 96.390, 1146.0, 33.8526
49.676951948, 96.390, 1124.0, 33.5261
49.703212514, 96.390, 1134.0, 33.6749
49.729473079, 96.390, 1098.0, 33.1361
49.755733644, 96.390, 1040.0, 32.2490
49.781994210, 96.390, 1034.0, 32.1559
49.808254775, 96.390, 1129.0, 33.6006
49.834515340, 96.390, 1101.0, 33.1813
49.860775906, 96.390, 1009.0, 31.7648
49.887036471, 96.390, 1136.0, 33.7046
49.913297036, 96.390, 1088.0, 32.9848
49.939557602, 96.390, 1123.0, 33.5112
49.965818167, 96.390, 1066.0, 32.6497
49.992078732, 96.390, 1039.0, 32.2335
50.018339298, 96.390, 1083.0, 32.9090
50.044599863, 96.390, 1063.0, 32.6037
50.070860429, 96.390, 1108.0, 33.2866
50.097120994, 96.390, 1112.0, 33.3467
50.123381559, 96.390, 1062.0, 32.5883
50.149642125, 96.390, 1105.0, 33.2415
50.175902690, 96.390, 1069.0, 32.6956
50.202163255, 96.390, 1124.0, 33.5261
50.228423821, 96.390, 1014.0, 31.8434
50.254684386, 96.390, 1085.0, 32.9393
50.280944951, 96.390, 1057.0, 32.5115
50.307205517, 96.390, 1077.0, 32.8177
50.333466082, 96.390, 1047.0, 32.3574
50.359726647, 96.390, 1056.0, 32.4962
50.385987213, 96.390, 1032.0, 32.1248
50.412247778, 96.390, 1098.0, 33.1361
50.438508344, 96.390, 1039.0, 32.2335
50.464768909, 96.390, 1125.0, 33.5410
50.491029474, 96.390, 1019.0, 31.9218
50.517290040, 96.390, 1085.0, 32.9393
50.543550605, 96.390, 1020.0, 31.9374
50.569811170, 96.390, 1049.0, 32.3883
50.596071736, 96.390, 1016.0, 31.8748
50.622332301, 96.390, 1034.0, 32.1559
50.648592866, 96.390, 1021.0, 31.9531
50.674853432, 96.390, 1081.0, 32.8786
50.701113997, 96.390, 1039.0, 32.2335
50.727374562, 96.390, 1061.0, 32.5730
50.753635128, 96.390, 1053.0, 32.4500
50.779895693, 96.390, 999.0, 31.6070
50.806156258, 96.390, 1033.0, 32.1403
50.832416824, 96.390, 1052.0, 32.4345
50.858677389, 96.390, 1031.0, 32.1092
50.884937955, 96.390, 1037.0, 32.2025
50.911198520, 96.390, 1073.0, 32.7567
50.937459085, 96.390, 1023.0, 31.9844
50.963719651, 96.390, 1042.0, 32.2800
50.989980216, 96.390, 1066.0, 32.6497
51.016240781, 96.390, 1066.0, 32.6497
51.042501347, 96.390, 1038.0, 32.2180
51.068761912, 96.390, 1022.0, 31.9687
51.095022477, 96.390, 1004.0, 31.6860
51.121283043, 96.390, 1026.0, 32.0312
51.147543608, 96.390, 980.0, 31.3050
51.173804173, 96.390, 1051.0, 32.4191
51.200064739, 96.390, 1051.0, 32.4191
51.226325304, 96.390, 1036.0, 32.1870
51.252585870, 96.390, 1040.0, 32.2490
51.278846435, 96.390, 986.0, 31.4006
51.305107000, 96.390, 1009.0, 31.7648
51.331367566, 96.390, 1051.0, 32.4191
51.357628131, 96.390, 1054.0, 32.4654
51.383888696, 96.390, 1014.0, 31.8434
51.410149262, 96.390, 1046.0, 32.3419
51.436409827, 96.390, 1051.0, 32.4191
51.462670392, 96.390, 1007.0, 31.7333
51.488930958, 96.390, 1025.0, 32.0156
51.515191523, 96.390, 957.0, 30.9354
51.541452088, 96.390, 948.0, 30.7896
51.567712654, 96.390, 1012.0, 31.8119
51.593973219, 96.390, 1028.0, 32.0624
51.620233784, 96.390, 1027.0, 32.0468
51.646494350, 96.390, 1000.0, 31.6228
51.672754915, 96.390, 1012.0, 31.8119
51.699015481, 96.390, 1022.0, 31.9687
51.725276046, 96.390, 998.0, 31.5911
51.751536611, 96.390, 1005.0, 31.7017
51.777797177, 96.390, 1100.0, 33.1662
51.804057742, 96.390, 999.0, 31.6070
51.830318307, 96.390, 1008.0, 31.7490
51.856578873, 96.390, 1002.0, 31.6544
51.882839438, 96.390, 1019.0, 31.9218
51.909100003, 96.390, 976.0, 31.2410
51.935360569, 96.390, 1011.0, 31.7962
51.961621134, 96.390, 1026.0, 32.0312
51.987881699, 96.390, 960.0, 30.9839
52.014142265, 96.390, 1049.0, 32.3883
52.040402830, 96.390, 1031.0, 32.1092
52.066663396, 96.390, 950.0, 30.8221
52.092923961, 96.390, 1026.0, 32.0312
52.119184526, 96.390, 1007.0, 31.7333
52.145445092, 96.390, 980.0, 31.3050
52.171705657, 96.390, 995.0, 31.5436
52.197966222, 96.390, 999.0, 31.6070
52.224226788, 96.390, 998.0, 31.5911
52.250487353, 96.390, 982.0, 31.3369
52.276747918, 96.390, 986.0, 31.4006
52.303008484, 96.390, 1005.0, 31.7017
52.329269049, 96.390, 995.0, 31.5436
52.355529614, 96.390, 968.0, 31.1127
52.381790180, 96.390, 1003.0, 31.6702
52.408050745, 96.390, 987.0, 31.4166
52.434311310, 96.390, 938.0, 30.6268
52.460571876, 96.390, 999.0, 31.6070
52.486832441, 96.390, 1002.0, 31.6544
52.513093007, 96.390, 985.0, 31.3847
52.539353572, 96.390, 1002.0, 31.6544
52.565614137, 96.390, 962.0, 31.0161
52.591874703, 96.390, 992.0, 31.4960
52.618135268, 96.390, 974.0, 31.2090
52.644395833, 96.390, 987.0, 31.4166
52.670656399, 96.390, 996.0, 31.5595
52.696916964, 96.390, 984.0, 31.3688
52.723177529, 96.390, 994.0, 31.5278
52.749438095, 96.390, 1003.0, 31.6702
52.775698660, 96.390, 952.0, 30.8545
52.801959225, 96.390, 959.0, 30.9677
52.828219791, 96.390, 974.0, 31.2090
52.854480356, 96.390, 965.0, 31.0644
52.880740922, 96.390, 949.0, 30.8058
52.907001487, 96.390, 977.0, 31.2570
52.933262052, 96.390, 1037.0, 32.2025
52.959522618, 96.390, 988.0, 31.4325
52.985783183, 96.390, 987.0, 31.4166
53.012043748, 96.390, 1010.0, 31.7805
53.038304314, 96.390, 1043.0, 32.2955
53.064564879, 96.390, 1099.0, 33.1512
53.090825444, 96.390, 1032.0, 32.1248
53.117086010, 96.390, 1006.0, 31.7175
53.143346575, 96.390, 1052.0, 32.4345
53.169607140, 96.390, 979.0, 31.2890
53.195867706, 96.390, 1003.0, 31.6702
53.222128271, 96.390, 975.0, 31.2250
53.248388836, 96.390, 949.0, 30.8058
53.274649402, 96.390, 942.0, 30.6920
53.300909967, 96.390, 981.0, 31.3209
53.327170533, 96.390, 1009.0, 31.7648
53.353431098, 96.390, 949.0, 30.8058
53.379691663, 96.390, 979.0, 31.2890
53.405952229, 96.390, 1017.0, 31.8904
53.432212794, 96.390, 947.0, 30.7734
53.458473359, 96.390, 999.0, 31.6070
53.484733925, 96.390, 962.0, 31.0161
53.510994490, 96.390, 955.0, 30.9031
53.537255055, 96.390, 931.0, 30.5123
53.563515621, 96.390, 979.0, 31.2890
53.589776186, 96.390, 1059.0, 32.5423
53.616036751, 96.390, 999.0, 31.6070
53.642297317, 96.390, 1002.0, 31.6544
53.668557882, 96.390, 950.0, 30.8221
53.694818448, 96.390, 948.0, 30.7896
53.721079013, 96.390, 964.0, 31.0483
53.747339578, 96.390, 988.0, 31.4325
53.773600144, 96.390, 942.0, 30.6920
53.799860709, 96.390, 976.0, 31.2410
53.826121274, 96.390, 1014.0, 31.8434
53.852381840, 96.390, 969.0, 31.1288
53.878642405, 96.390, 1041.0, 32.2645
53.904902970, 96.390, 1005.0, 31.7017
53.931163536, 96.390, 975.0, 31.2250
53.957424101, 96.390, 991.0, 31.4802
53.983684666, 96.390, 923.0, 30.3809
54.009945232, 96.390, 1010.0, 31.7805
54.036205797, 96.390, 1012.0, 31.8119
54.062466362, 96.390, 920.0, 30.3315
54.088726928, 96.390, 931.0, 30.5123
54.114987493, 96.390, 998.0, 31.5911
54.141248059, 96.390, 990.0, 31.4643
54.167508624, 96.390, 1005.0, 31.7017
54.193769189, 96.390, 950.0, 30.8221
54.220029755, 96.390, 927.0, 30.4467
54.246290320, 96.390, 984.0, 31.3688
54.272550885, 96.390, 925.0, 30.4138
54.298811451, 96.390, 916.0, 30.2655
54.325072016, 96.390, 939.0, 30.6431
54.351332581, 96.390, 963.0, 31.0322
54.377593147, 96.390, 981.0, 31.3209
54.403853712, 96.390, 979.0, 31.2890
54.430114277, 96.390, 972.0, 31.1769
54.456374843, 96.390, 921.0, 30.3480
54.482635408, 96.390, 1048.0, 32.3728
54.508895973, 96.390, 1013.0, 31.8277
54.535156539, 96.390, 933.0, 30.5450
54.561417104, 96.390, 989.0, 31.4484
54.587677670, 96.390, 985.0, 31.3847
54.613938235, 96.390, 1030.0, 32.0936
54.640198800, 96.390, 996.0, 31.5595
54.666459366, 96.390, 988.0, 31.4325
54.692719931, 96.390, 962.0, 31.0161
54.718980496, 96.390, 945.0, 30.7409
54.745241062, 96.390, 954.0, 30.8869
54.771501627, 96.390, 959.0, 30.9677
54.797762192, 96.390, 948.0, 30.7896
54.824022758, 96.390, 972.0, 31.1769
54.850283323, 96.390, 993.0, 31.5119
54.876543888, 96.390, 1006.0, 31.7175
54.902804454, 96.390, 1001.0, 31.6386
54.929065019, 96.390, 964.0, 31.0483
54.955325585, 96.390, 990.0, 31.4643
54.981586150, 96.390, 950.0, 30.8221
55.007846715, 96.390, 934.0, 30.5614
55.034107281, 96.390, 896.0, 29.9333
55.060367846, 96.390, 905.0, 30.0832
55.086628411, 96.390, 891.0, 29.8496
55.112888977, 96.390, 956.0, 30.9192
55.139149542, 96.390, 965.0, 31.0644
55.165410107, 96.390, 973.0, 31.1929
55.191670673, 96.390, 918.0, 30.2985
55.217931238, 96.390, 919.0, 30.3150
55.244191803, 96.390, 939.0, 30.6431
55.270452369, 96.390, 1017.0, 31.8904
55.296712934, 96.390, 941.0, 30.6757
55.322973499, 96.390, 978.0, 31.2730
55.349234065, 96.390, 897.0, 29.9500
55.375494630, 96.390, 969.0, 31.1288
55.401755196, 96.390, 959.0, 30.9677
55.428015761, 96.390, 972.0, 31.1769
55.454276326, 96.390, 997.0, 31.5753
55.480536892, 96.390, 953.0, 30.8707
55.506797457, 96.390, 950.0, 30.8221
55.533058022, 96.390, 909.0, 30.1496
55.559318588, 96.390, 974.0, 31.2090
55.585579153, 96.390, 981.0, 31.3209
55.611839718, 96.390, 905.0, 30.0832
55.638100284, 96.390, 970.0, 31.1448
55.664360849, 96.390, 926.0, 30.4302
55.690621414, 96.390, 1009.0, 31.7648
55.716881980, 96.390, 925.0, 30.4138
55.743142545, 96.390, 929.0, 30.4795
55.769403111, 96.390, 930.0, 30.4959
55.795663676, 96.390, 921.0, 30.3480
55.821924241, 96.390, 945.0, 30.7409
55.848184807, 96.390, 909.0, 30.1496
55.874445372, 96.390, 927.0, 30.4467
55.900705937, 96.390, 956.0, 30.9192
55.926966503, 96.390, 981.0, 31.3209
55.953227068, 96.390, 955.0, 30.9031
55.979487633, 96.390, 962.0, 31.0161
56.005748199, 96.390, 969.0, 31.1288
56.032008764, 96.390, 958.0, 30.9516
56.058269329, 96.390, 961.0, 31.0000
56.084529895, 96.390, 999.0, 31.6070
56.110790460, 96.390, 972.0, 31.1769
56.137051025, 96.390, 935.0, 30.5778
56.163311591, 96.390, 1026.0, 32.0312
56.189572156, 96.390, 966.0, 31.0805
56.215832722, 96.390, 914.0, 30.2324
56.242093287, 96.390, 1002.0, 31.6544
56.268353852, 96.390, 943.0, 30.7083
56.294614418, 96.390, 956.0, 30.9192
56.320874983, 96.390, 950.0, 30.8221
56.347135548, 96.390, 964.0, 31.0483
56.373396114, 96.390, 963.0, 31.0322
56.399656679, 96.390, 907.0, 30.1164
56.425917244, 96.390, 928.0, 30.4631
56.452177810, 96.390, 950.0, 30.8221
56.478438375, 96.390, 947.0, 30.7734
56.504698940, 96.390, 956.0, 30.9192
56.530959506, 96.390, 928.0, 30.4631
56.557220071, 96.390, 958.0, 30.9516
56.583480637, 96.390, 923.0, 30.3809
56.609741202, 96.390, 941.0, 30.6757
56.636001767, 96.390, 938.0, 30.6268
56.662262333, 96.390, 954.0, 30.8869
56.688522898, 96.390, 926.0, 30.4302
56.714783463, 96.390, 943.0, 30.7083
56.741044029, 96.390, 923.0, 30.3809
56.767304594, 96.390, 910.0, 30.1662
56.793565159, 96.390, 944.0, 30.7246
56.819825725, 96.390, 932.0, 30.5287
56.846086290, 96.390, 951.0, 30.8383
56.872346855, 96.390, 1021.0, 31.9531
56.898607421, 96.390, 929.0, 30.4795
56.924867986, 96.390, 925.0, 30.4138
56.951128551, 96.390, 944.0, 30.7246
56.977389117, 96.390, 956.0, 30.9192
57.003649682, 96.390, 935.0, 30.5778
57.029910248, 96.390, 909.0, 30.1496
57.056170813, 96.390, 986.0, 31.4006
57.082431378, 96.390, 953.0, 30.8707
57.108691944, 96.390, 1000.0, 31.6228
57.134952509, 96.390, 880.0, 29.6648
57.161213074, 96.390, 962.0, 31.0161
57.187473640, 96.390, 947.0, 30.7734
57.213734205, 96.390, 946.0, 30.7571
57.239994770, 96.390, 910.0, 30.1662
57.266255336, 96.390, 958.0, 30.9516
57.292515901, 96.390, 929.0, 30.4795
57.318776466, 96.390, 977.0, 31.2570
57.345037032, 96.390, 928.0, 30.4631
57.371297597, 96.390, 941.0, 30.6757
57.397558163, 96.390, 935.0, 30.5778
57.423818728, 96.390, 933.0, 30.5450
57.450079293, 96.390, 891.0, 29.8496
57.476339859, 96.390, 1012.0, 31.8119
57.502600424, 96.390, 931.0, 30.5123
57.528860989, 96.390, 930.0, 30.4959
57.555121555, 96.390, 935.0, 30.5778
57.581382120, 96.390, 926.0, 30.4302
57.607642685, 96.390, 909.0, 30.1496
57.633903251, 96.390, 941.0, 30.6757
57.660163816, 96.390, 921.0, 30.3480
57.686424381, 96.390, 903.0, 30.0500
57.712684947, 96.390, 938.0, 30.6268
57.738945512, 96.390, 950.0, 30.8221
57.765206077, 96.390, 912.0, 30.1993
57.791466643, 96.390, 927.0, 30.4467
57.817727208, 96.390, 951.0, 30.8383
57.843987774, 96.390, 890.0, 29.8329
57.870248339, 96.390, 931.0, 30.5123
57.896508904, 96.390, 959.0, 30.9677
57.922769470, 96.390, 941.0, 30.6757
57.949030035, 96.390, 919.0, 30.3150
57.975290600, 96.390, 918.0, 30.2985
58.001551166, 96.390, 963.0, 31.0322
58.027811731, 96.390, 954.0, 30.8869
58.054072296, 96.390, 931.0, 30.5123
58.080332862, 96.390, 966.0, 31.0805
58.106593427, 96.390, 849.0, 29.1376
58.132853992, 96.390, 891.0, 29.8496
58.159114558, 96.390, 926.0, 30.4302
58.185375123, 96.390, 937.0, 30.6105
58.211635689, 96.390, 945.0, 30.7409
58.237896254, 96.390, 916.0, 30.2655
58.264156819, 96.390, 912.0, 30.1993
58.290417385, 96.390, 936.0, 30.5941
58.316677950, 96.390, 947.0, 30.7734
58.342938515, 96.390, 928.0, 30.4631
58.369199081, 96.390, 912.0, 30.1993
58.395459646, 96.390, 945.0, 30.7409
58.421720211, 96.390, 951.0, 30.8383
58.447980777, 96.390, 964.0, 31.0483
58.474241342, 96.390, 924.0, 30.3974
58.500501907, 96.390, 965.0, 31.0644
58.526762473, 96.390, 895.0, 29.9166
58.553023038, 96.390, 915.0, 30.2490
58.579283603, 96.390, 976.0, 31.2410
58.605544169, 96.390, 931.0, 30.5123
58.631804734, 96.390, 943.0, 30.7083
58.658065300, 96.390, 937.0, 30.6105
58.684325865, 96.390, 916.0, 30.2655
58.710586430, 96.390, 946.0, 30.7571
58.736846996, 96.390, 948.0, 30.7896
58.763107561, 96.390, 921.0, 30.3480
58.789368126, 96.390, 910.0, 30.1662
58.815628692, 96.390, 926.0, 30.4302
58.841889257, 96.390, 881.0, 29.6816
58.868149822, 96.390, 941.0, 30.6757
58.894410388, 96.390, 917.0, 30.2820
58.920670953, 96.390, 920.0, 30.3315
58.946931518, 96.390, 958.0, 30.9516
58.973192084, 96.390, 926.0, 30.4302
58.999452649, 96.390, 965.0, 31.0644
59.025713214, 96.390, 956.0, 30.9192
59.051973780, 96.390, 930.0, 30.4959
59.078234345, 96.390, 929.0, 30.4795
59.104494911, 96.390, 977.0, 31.2570
59.130755476, 96.390, 981.0, 31.3209
59.157016041, 96.390, 972.0, 31.1769
59.183276607, 96.390, 941.0, 30.6757
59.209537172, 96.390, 884.0, 29.7321
59.235797737, 96.390, 921.0, 30.3480
59.262058303, 96.390, 995.0, 31.5436
59.288318868, 96.390, 949.0, 30.8058
59.314579433, 96.390, 977.0, 31.2570
59.340839999, 96.390, 932.0, 30.5287
59.367100564, 96.390, 897.0, 29.9500
59.393361129, 96.390, 952.0, 30.8545
59.419621695, 96.390, 981.0, 31.3209
59.445882260, 96.390, 965.0, 31.0644
59.472142826, 96.390, 1001.0, 31.6386
59.498403391, 96.390, 920.0, 30.3315
59.524663956, 96.390, 968.0, 31.1127
59.550924522, 96.390, 966.0, 31.0805
59.577185087, 96.390, 867.0, 29.4449
59.603445652, 96.390, 908.0, 30.1330
59.629706218, 96.390, 908.0, 30.1330
59.655966783, 96.390, 951.0, 30.8383
59.682227348, 96.390, 958.0, 30.9516
59.708487914, 96.390, 958.0, 30.9516
59.734748479, 96.390, 961.0, 31.0000
59.761009044, 96.390, 924.0, 30.3974
59.787269610, 96.390, 947.0, 30.7734
59.813530175, 96.390, 938.0, 30.6268
59.839790740, 96.390, 932.0, 30.5287
59.866051306, 96.390, 937.0, 30.6105
59.892311871, 96.390, 916.0, 30.2655
59.918572437, 96.390, 924.0, 30.3974
59.944833002, 96.390, 948.0, 30.7896
59.971093567, 96.390, 935.0, 30.5778
59.997354133, 96.390, 931.0, 30.5123
60.023614698, 96.390, 982.0, 31.3369
60.049875263, 96.390, 981.0, 31.3209
60.076135829, 96.390, 884.0, 29.7321
60.102396394, 96.390, 1008.0, 31.7490
60.128656959, 96.390, 967.0, 31.0966
60.154917525, 96.390, 921.0, 30.3480
60.181178090, 96.390, 942.0, 30.6920
60.207438655, 96.390, 935.0, 30.5778
60.233699221, 96.390, 953.0, 30.8707
60.259959786, 96.390, 1008.0, 31.7490
60.286220352, 96.390, 939.0, 30.6431
60.312480917, 96.390, 918.0, 30.2985
60.338741482, 96.390, 967.0, 31.0966
60.365002048, 96.390, 971.0, 31.1609
60.391262613, 96.390, 964.0, 31.0483
60.417523178, 96.390, 977.0, 31.2570
60.443783744, 96.390, 959.0, 30.9677
60.470044309, 96.390, 931.0, 30.5123
60.496304874, 96.390, 972.0, 31.1769
60.522565440, 96.390, 918.0, 30.2985
60.548826005, 96.390, 1015.0, 31.8591
60.575086570, 96.390, 959.0, 30.9677
60.601347136, 96.390, 985.0, 31.3847
60.627607701, 96.390, 1036.0, 32.1870
60.653868266, 96.390, 958.0, 30.9516
60.680128832, 96.390, 927.0, 30.4467
60.706389397, 96.390, 947.0, 30.7734
60.732649963, 96.390, 965.0, 31.0644
60.758910528, 96.390, 904.0, 30.0666
60.785171093, 96.390, 1003.0, 31.6702
60.811431659, 96.390, 997.0, 31.5753
60.837692224, 96.390, 997.0, 31.5753
60.863952789, 96.390, 974.0, 31.2090
60.890213355, 96.390, 1021.0, 31.9531
60.916473920, 96.390, 1060.0, 32.5576
60.942734485, 96.390, 985.0, 31.3847
60.968995051, 96.390, 1011.0, 31.7962
60.995255616, 96.390, 1040.0, 32.2490
61.021516181, 96.390, 1014.0, 31.8434
61.047776747, 96.390, 1023.0, 31.9844
61.074037312, 96.390, 990.0, 31.4643
61.100297878, 96.390, 963.0, 31.0322
61.126558443, 96.390, 966.0, 31.0805
61.152819008, 96.390, 1078.0, 32.8329
61.179079574, 96.390, 1050.0, 32.4037
61.205340139, 96.390, 1030.0, 32.0936
61.231600704, 96.390, 1010.0, 31.7805
61.257861270, 96.390, 1049.0, 32.3883
61.284121835, 96.390, 1033.0, 32.1403
61.310382400, 96.390, 1020.0, 31.9374
61.336642966, 96.390, 1054.0, 32.4654
61.362903531, 96.390, 1076.0, 32.8024
61.389164096, 96.390, 1059.0, 32.5423
61.415424662, 96.390, 1006.0, 31.7175
61.441685227, 96.390, 1025.0, 32.0156
61.467945792, 96.390, 1039.0, 32.2335
61.494206358, 96.390, 1048.0, 32.3728
61.520466923, 96.390, 1026.0, 32.0312
61.546727489, 96.390, 1047.0, 32.3574
61.572988054, 96.390, 1008.0, 31.7490
61.599248619, 96.390, 1086.0, 32.9545
61.625509185, 96.390, 1023.0, 31.9844
61.651769750, 96.390, 1062.0, 32.5883
61.678030315, 96.390, 1002.0, 31.6544
61.704290881, 96.390, 1024.0, 32.0000
61.730551446, 96.390, 966.0, 31.0805
61.756812011, 96.390, 1064.0, 32.6190
61.783072577, 96.390, 1009.0, 31.7648
61.809333142, 96.390, 1058.0, 32.5269
61.835593707, 96.390, 1045.0, 32.3265
61.861854273, 96.390, 1030.0, 32.0936
61.888114838, 96.390, 1027.0, 32.0468
61.914375404, 96.390, 1069.0, 32.6956
61.940635969, 96.390, 1035.0, 32.1714
61.966896534, 96.390, 1038.0, 32.2180
61.993157100, 96.390, 1010.0, 31.7805
62.019417665, 96.390, 1024.0, 32.0000
62.045678230, 96.390, 1028.0, 32.0624
62.071938796, 96.390, 1056.0, 32.4962
62.098199361, 96.390, 1092.0, 33.0454
62.124459926, 96.390, 985.0, 31.3847
62.150720492, 96.390, 1024.0, 32.0000
62.176981057, 96.390, 1008.0, 31.7490
62.203241622, 96.390, 1008.0, 31.7490
62.229502188, 96.390, 1041.0, 32.2645
62.255762753, 96.390, 1061.0, 32.5730
62.282023318, 96.390, 992.0, 31.4960
62.308283884, 96.390, 962.0, 31.0161
62.334544449, 96.390, 1027.0, 32.0468
62.360805015, 96.390, 1007.0, 31.7333
62.387065580, 96.390, 1040.0, 32.2490
62.413326145, 96.390, 1017.0, 31.8904
62.439586711, 96.390, 978.0, 31.2730
62.465847276, 96.390, 986.0, 31.4006
62.492107841, 96.390, 969.0, 31.1288
62.518368407, 96.390, 942.0, 30.6920
62.544628972, 96.390, 1011.0, 31.7962
62.570889537, 96.390, 991.0, 31.4802
62.597150103, 96.390, 951.0, 30.8383
62.623410668, 96.390, 969.0, 31.1288
62.649671233, 96.390, 990.0, 31.4643
62.675931799, 96.390, 992.0, 31.4960
62.702192364, 96.390, 971.0, 31.1609
62.728452930, 96.390, 978.0, 31.2730
62.754713495, 96.390, 951.0, 30.8383
62.780974060, 96.390, 995.0, 31.5436
62.807234626, 96.390, 936.0, 30.5941
62.833495191, 96.390, 949.0, 30.8058
62.859755756, 96.390, 983.0, 31.3528
62.886016322, 96.390, 979.0, 31.2890
62.912276887, 96.390, 998.0, 31.5911
62.938537452, 96.390, 936.0, 30.5941
62.964798018, 96.390, 926.0, 30.4302
62.991058583, 96.390, 938.0, 30.6268
63.017319148, 96.390, 936.0, 30.5941
63.043579714, 96.390, 988.0, 31.4325
63.069840279, 96.390, 978.0, 31.2730
63.096100844, 96.390, 929.0, 30.4795
63.122361410, 96.390, 972.0, 31.1769
63.148621975, 96.390, 926.0, 30.4302
63.174882541, 96.390, 908.0, 30.1330
63.201143106, 96.390, 948.0, 30.7896
63.227403671, 96.390, 934.0, 30.5614
63.253664237, 96.390, 962.0, 31.0161
63.279924802, 96.390, 928.0, 30.4631
63.306185367, 96.390, 947.0, 30.7734
63.332445933, 96.390, 935.0, 30.5778
63.358706498, 96.390, 932.0, 30.5287
63.384967063, 96.390, 964.0, 31.0483
63.411227629, 96.390, 968.0, 31.1127
63.437488194, 96.390, 880.0, 29.6648
63.463748759, 96.390, 929.0, 30.4795
63.490009325, 96.390, 987.0, 31.4166
63.516269890, 96.390, 896.0, 29.9333
63.542530455, 96.390, 867.0, 29.4449
63.568791021, 96.390, 894.0, 29.8998
63.595051586, 96.390, 957.0, 30.9354
63.621312152, 96.390, 954.0, 30.8869
63.647572717, 96.390, 931.0, 30.5123
63.673833282, 96.390, 930.0, 30.4959
63.700093848, 96.390, 930.0, 30.4959
63.726354413, 96.390, 893.0, 29.8831
63.752614978, 96.390, 918.0, 30.2985
63.778875544, 96.390, 870.0, 29.4958
63.805136109, 96.390, 956.0, 30.9192
63.831396674, 96.390, 914.0, 30.2324
63.857657240, 96.390, 858.0, 29.2916
63.883917805, 96.390, 912.0, 30.1993
63.910178370, 96.390, 879.0, 29.6479
63.936438936, 96.390, 867.0, 29.4449
63.962699501, 96.390, 905.0, 30.0832
63.988960067, 96.390, 934.0, 30.5614
64.015220632, 96.390, 882.0, 29.6985
64.041481197, 96.390, 932.0, 30.5287
64.067741763, 96.390, 879.0, 29.6479
64.094002328, 96.390, 935.0, 30.5778
64.120262893, 96.390, 957.0, 30.9354
64.146523459, 96.390, 877.0, 29.6142
64.172784024, 96.390, 855.0, 29.2404
64.199044589, 96.390, 866.0, 29.4279
64.225305155, 96.390, 898.0, 29.9666
64.251565720, 96.390, 878.0, 29.6311
64.277826285, 96.390, 872.0, 29.5296
64.304086851, 96.390, 894.0, 29.8998
64.330347416, 96.390, 931.0, 30.5123
64.356607981, 96.390, 876.0, 29.5973
64.382868547, 96.390, 851.0, 29.1719
64.409129112, 96.390, 918.0, 30.2985
64.435389678, 96.390, 883.0, 29.7153
64.461650243, 96.390, 898.0, 29.9666
64.487910808, 96.390, 840.0, 28.9828
64.514171374, 96.390, 870.0, 29.4958
64.540431939, 96.390, 857.0, 29.2746
64.566692504, 96.390, 870.0, 29.4958
64.592953070, 96.390, 848.0, 29.1204
64.619213635, 96.390, 881.0, 29.6816
64.645474200, 96.390, 842.0, 29.0172
64.671734766, 96.390, 852.0, 29.1890
64.697995331, 96.390, 914.0, 30.2324
64.724255896, 96.390, 935.0, 30.5778
64.750516462, 96.390, 881.0, 29.6816
64.776777027, 96.390, 866.0, 29.4279
64.803037593, 96.390, 813.0, 28.5132
64.829298158, 96.390, 854.0, 29.2233
64.855558723, 96.390, 893.0, 29.8831
64.881819289, 96.390, 870.0, 29.4958
64.908079854, 96.390, 884.0, 29.7321
64.934340419, 96.390, 841.0, 29.0000
64.960600985, 96.390, 851.0, 29.1719
64.986861550, 96.390, 857.0, 29.2746
