[Measurement conditions]
Sample identification,XRD_AlAxial01Nov21_Act07Jan22_B1_1000M_NaOH_LS0124_1
Comment - 1,"Configuration=Stage for Flat Samples/Holders, Owner=User-1, Creation date=7/1/2020 9:53:24 AM"
Comment - 2,"Goniometer=Theta/Theta; Minimum step size 2Theta:0.0001; Minimum step size Omega:0.0001"
Comment - 3,"Sample stage=Stage for flat samples/holders"
Comment - 4,"Diffractometer system=EMPYREAN"
Comment - 5,"Measurement program=C:\Users\ibo5034\OneDrive - The Pennsylvania State University\NEUP - Reed, Titus's files\XRD\Cement\Zerobackground scan.xrdmp, Identifier={98A3B11C-88F9-4AA6-982C-73314A311EF5}"
Anode material,Cu
K-Alpha1 wavelength,1.5405980
K-Alpha2 wavelength,1.5444260
Ratio K-Alpha2/K-Alpha1,0.500
Divergence slit,Fixed,0.25
Monochromator used,NO
Generator voltage, 45
Tube current, 40
File date and time,10/Jan/2022 13:00
Unit cell,
h k l, 0 0 0
Scan axis,Gonio
Scan range,4.994599997,64.999991833
Scan step size,0.0262606
No. of points, 2285
Scan type,CONTINUOUS
Time per step,96.390
[Scan points]
Angle, TimePerStep, Intensity, ESD
5.007730280, 96.390, 3897.0, 62.4260
5.033990845, 96.390, 3972.0, 63.0238
5.060251411, 96.390, 3866.0, 62.1772
5.086511976, 96.390, 3909.0, 62.5220
5.112772541, 96.390, 3874.0, 62.2415
5.139033107, 96.390, 3948.0, 62.8331
5.165293672, 96.390, 3850.0, 62.0484
5.191554237, 96.390, 3847.0, 62.0242
5.217814803, 96.390, 3647.0, 60.3904
5.244075368, 96.390, 3725.0, 61.0328
5.270335934, 96.390, 3684.0, 60.6960
5.296596499, 96.390, 3596.0, 59.9667
5.322857064, 96.390, 3555.0, 59.6238
5.349117630, 96.390, 3629.0, 60.2412
5.375378195, 96.390, 3541.0, 59.5063
5.401638760, 96.390, 3563.0, 59.6909
5.427899326, 96.390, 3495.0, 59.1185
5.454159891, 96.390, 3617.0, 60.1415
5.480420456, 96.390, 3484.0, 59.0254
5.506681022, 96.390, 3600.0, 60.0000
5.532941587, 96.390, 3524.0, 59.3633
5.559202152, 96.390, 3563.0, 59.6909
5.585462718, 96.390, 3538.0, 59.4811
5.611723283, 96.390, 3469.0, 58.8982
5.637983849, 96.390, 3474.0, 58.9406
5.664244414, 96.390, 3478.0, 58.9746
5.690504979, 96.390, 3496.0, 59.1270
5.716765545, 96.390, 3503.0, 59.1861
5.743026110, 96.390, 3425.0, 58.5235
5.769286675, 96.390, 3484.0, 59.0254
5.795547241, 96.390, 3413.0, 58.4209
5.821807806, 96.390, 3392.0, 58.2409
5.848068371, 96.390, 3379.0, 58.1292
5.874328937, 96.390, 3433.0, 58.5918
5.900589502, 96.390, 3429.0, 58.5577
5.926850067, 96.390, 3361.0, 57.9741
5.953110633, 96.390, 3463.0, 58.8473
5.979371198, 96.390, 3399.0, 58.3009
6.005631763, 96.390, 3315.0, 57.5760
6.031892329, 96.390, 3264.0, 57.1314
6.058152894, 96.390, 3376.0, 58.1034
6.084413460, 96.390, 3373.0, 58.0775
6.110674025, 96.390, 3260.0, 57.0964
6.136934590, 96.390, 3200.0, 56.5685
6.163195156, 96.390, 3331.0, 57.7148
6.189455721, 96.390, 3380.0, 58.1378
6.215716286, 96.390, 3276.0, 57.2364
6.241976852, 96.390, 3303.0, 57.4717
6.268237417, 96.390, 3274.0, 57.2189
6.294497982, 96.390, 3257.0, 57.0701
6.320758548, 96.390, 3312.0, 57.5500
6.347019113, 96.390, 3263.0, 57.1227
6.373279678, 96.390, 3160.0, 56.2139
6.399540244, 96.390, 3193.0, 56.5066
6.425800809, 96.390, 3187.0, 56.4535
6.452061375, 96.390, 3156.0, 56.1783
6.478321940, 96.390, 3233.0, 56.8595
6.504582505, 96.390, 3152.0, 56.1427
6.530843071, 96.390, 3157.0, 56.1872
6.557103636, 96.390, 3235.0, 56.8771
6.583364201, 96.390, 3205.0, 56.6127
6.609624767, 96.390, 3151.0, 56.1338
6.635885332, 96.390, 3170.0, 56.3028
6.662145897, 96.390, 3181.0, 56.4004
6.688406463, 96.390, 3193.0, 56.5066
6.714667028, 96.390, 3158.0, 56.1961
6.740927593, 96.390, 3271.0, 57.1927
6.767188159, 96.390, 3106.0, 55.7315
6.793448724, 96.390, 3176.0, 56.3560
6.819709289, 96.390, 3070.0, 55.4076
6.845969855, 96.390, 3072.0, 55.4256
6.872230420, 96.390, 3159.0, 56.2050
6.898490986, 96.390, 3091.0, 55.5968
6.924751551, 96.390, 3118.0, 55.8391
6.951012116, 96.390, 3068.0, 55.3895
6.977272682, 96.390, 3181.0, 56.4004
7.003533247, 96.390, 3093.0, 55.6147
7.029793812, 96.390, 3155.0, 56.1694
7.056054378, 96.390, 3031.0, 55.0545
7.082314943, 96.390, 3094.0, 55.6237
7.108575508, 96.390, 3033.0, 55.0727
7.134836074, 96.390, 3106.0, 55.7315
7.161096639, 96.390, 3098.0, 55.6597
7.187357204, 96.390, 3089.0, 55.5788
7.213617770, 96.390, 3109.0, 55.7584
7.239878335, 96.390, 3096.0, 55.6417
7.266138900, 96.390, 3013.0, 54.8908
7.292399466, 96.390, 3042.0, 55.1543
7.318660031, 96.390, 3081.0, 55.5068
7.344920597, 96.390, 3142.0, 56.0535
7.371181162, 96.390, 2974.0, 54.5344
7.397441727, 96.390, 3184.0, 56.4269
7.423702293, 96.390, 3119.0, 55.8480
7.449962858, 96.390, 3067.0, 55.3805
7.476223423, 96.390, 3007.0, 54.8361
7.502483989, 96.390, 2979.0, 54.5802
7.528744554, 96.390, 3072.0, 55.4256
7.555005119, 96.390, 3090.0, 55.5878
7.581265685, 96.390, 2949.0, 54.3047
7.607526250, 96.390, 3022.0, 54.9727
7.633786815, 96.390, 2935.0, 54.1756
7.660047381, 96.390, 2970.0, 54.4977
7.686307946, 96.390, 3036.0, 55.0999
7.712568512, 96.390, 2980.0, 54.5894
7.738829077, 96.390, 3043.0, 55.1634
7.765089642, 96.390, 3044.0, 55.1725
7.791350208, 96.390, 3051.0, 55.2359
7.817610773, 96.390, 3045.0, 55.1815
7.843871338, 96.390, 3122.0, 55.8749
7.870131904, 96.390, 2969.0, 54.4885
7.896392469, 96.390, 2989.0, 54.6717
7.922653034, 96.390, 2967.0, 54.4702
7.948913600, 96.390, 3110.0, 55.7674
7.975174165, 96.390, 3083.0, 55.5248
8.001434730, 96.390, 3031.0, 55.0545
8.027695296, 96.390, 3069.0, 55.3986
8.053955861, 96.390, 3076.0, 55.4617
8.080216426, 96.390, 3225.0, 56.7891
8.106476992, 96.390, 3232.0, 56.8507
8.132737557, 96.390, 3254.0, 57.0438
8.158998123, 96.390, 3307.0, 57.5065
8.185258688, 96.390, 3400.0, 58.3095
8.211519253, 96.390, 3188.0, 56.4624
8.237779819, 96.390, 3092.0, 55.6058
8.264040384, 96.390, 3078.0, 55.4797
8.290300949, 96.390, 3130.0, 55.9464
8.316561515, 96.390, 3006.0, 54.8270
8.342822080, 96.390, 3088.0, 55.5698
8.369082645, 96.390, 2999.0, 54.7631
8.395343211, 96.390, 3137.0, 56.0089
8.421603776, 96.390, 3019.0, 54.9454
8.447864341, 96.390, 3024.0, 54.9909
8.474124907, 96.390, 3024.0, 54.9909
8.500385472, 96.390, 2947.0, 54.2863
8.526646038, 96.390, 2844.0, 53.3292
8.552906603, 96.390, 2994.0, 54.7175
8.579167168, 96.390, 3083.0, 55.5248
8.605427734, 96.390, 3073.0, 55.4346
8.631688299, 96.390, 2980.0, 54.5894
8.657948864, 96.390, 3026.0, 55.0091
8.684209430, 96.390, 3031.0, 55.0545
8.710469995, 96.390, 3000.0, 54.7723
8.736730560, 96.390, 3037.0, 55.1090
8.762991126, 96.390, 3031.0, 55.0545
8.789251691, 96.390, 2983.0, 54.6168
8.815512256, 96.390, 3065.0, 55.3624
8.841772822, 96.390, 2981.0, 54.5985
8.868033387, 96.390, 3091.0, 55.5968
8.894293952, 96.390, 3179.0, 56.3826
8.920554518, 96.390, 2949.0, 54.3047
8.946815083, 96.390, 3012.0, 54.8817
8.973075649, 96.390, 3056.0, 55.2811
8.999336214, 96.390, 3088.0, 55.5698
9.025596779, 96.390, 3056.0, 55.2811
9.051857345, 96.390, 3097.0, 55.6507
9.078117910, 96.390, 3069.0, 55.3986
9.104378475, 96.390, 3140.0, 56.0357
9.130639041, 96.390, 3188.0, 56.4624
9.156899606, 96.390, 3136.0, 56.0000
9.183160171, 96.390, 3128.0, 55.9285
9.209420737, 96.390, 3002.0, 54.7905
9.235681302, 96.390, 3081.0, 55.5068
9.261941867, 96.390, 3143.0, 56.0625
9.288202433, 96.390, 3209.0, 56.6480
9.314462998, 96.390, 3160.0, 56.2139
9.340723564, 96.390, 3156.0, 56.1783
9.366984129, 96.390, 3093.0, 55.6147
9.393244694, 96.390, 3042.0, 55.1543
9.419505260, 96.390, 3233.0, 56.8595
9.445765825, 96.390, 3238.0, 56.9034
9.472026390, 96.390, 3129.0, 55.9375
9.498286956, 96.390, 3108.0, 55.7494
9.524547521, 96.390, 3192.0, 56.4978
9.550808086, 96.390, 3285.0, 57.3149
9.577068652, 96.390, 3257.0, 57.0701
9.603329217, 96.390, 3183.0, 56.4181
9.629589782, 96.390, 3147.0, 56.0981
9.655850348, 96.390, 3229.0, 56.8243
9.682110913, 96.390, 3204.0, 56.6039
9.708371478, 96.390, 3233.0, 56.8595
9.734632044, 96.390, 3092.0, 55.6058
9.760892609, 96.390, 3305.0, 57.4891
9.787153175, 96.390, 3203.0, 56.5951
9.813413740, 96.390, 3274.0, 57.2189
9.839674305, 96.390, 3254.0, 57.0438
9.865934871, 96.390, 3216.0, 56.7098
9.892195436, 96.390, 3281.0, 57.2800
9.918456001, 96.390, 3288.0, 57.3411
9.944716567, 96.390, 3197.0, 56.5420
9.970977132, 96.390, 3204.0, 56.6039
9.997237697, 96.390, 3154.0, 56.1605
10.023498263, 96.390, 3256.0, 57.0614
10.049758828, 96.390, 3250.0, 57.0088
10.076019393, 96.390, 3208.0, 56.6392
10.102279959, 96.390, 3277.0, 57.2451
10.128540524, 96.390, 3340.0, 57.7927
10.154801090, 96.390, 3300.0, 57.4456
10.181061655, 96.390, 3436.0, 58.6174
10.207322220, 96.390, 3238.0, 56.9034
10.233582786, 96.390, 3326.0, 57.6715
10.259843351, 96.390, 3339.0, 57.7841
10.286103916, 96.390, 3369.0, 58.0431
10.312364482, 96.390, 3347.0, 57.8533
10.338625047, 96.390, 3368.0, 58.0345
10.364885612, 96.390, 3374.0, 58.0861
10.391146178, 96.390, 3409.0, 58.3866
10.417406743, 96.390, 3330.0, 57.7062
10.443667308, 96.390, 3352.0, 57.8965
10.469927874, 96.390, 3356.0, 57.9310
10.496188439, 96.390, 3323.0, 57.6455
10.522449004, 96.390, 3363.0, 57.9914
10.548709570, 96.390, 3394.0, 58.2580
10.574970135, 96.390, 3417.0, 58.4551
10.601230701, 96.390, 3305.0, 57.4891
10.627491266, 96.390, 3395.0, 58.2666
10.653751831, 96.390, 3320.0, 57.6194
10.680012397, 96.390, 3374.0, 58.0861
10.706272962, 96.390, 3502.0, 59.1777
10.732533527, 96.390, 3396.0, 58.2752
10.758794093, 96.390, 3411.0, 58.4038
10.785054658, 96.390, 3400.0, 58.3095
10.811315223, 96.390, 3316.0, 57.5847
10.837575789, 96.390, 3393.0, 58.2495
10.863836354, 96.390, 3359.0, 57.9569
10.890096919, 96.390, 3382.0, 58.1550
10.916357485, 96.390, 3423.0, 58.5064
10.942618050, 96.390, 3387.0, 58.1979
10.968878616, 96.390, 3543.0, 59.5231
10.995139181, 96.390, 3412.0, 58.4123
11.021399746, 96.390, 3381.0, 58.1464
11.047660312, 96.390, 3400.0, 58.3095
11.073920877, 96.390, 3501.0, 59.1692
11.100181442, 96.390, 3494.0, 59.1101
11.126442008, 96.390, 3430.0, 58.5662
11.152702573, 96.390, 3557.0, 59.6406
11.178963138, 96.390, 3521.0, 59.3380
11.205223704, 96.390, 3326.0, 57.6715
11.231484269, 96.390, 3374.0, 58.0861
11.257744834, 96.390, 3405.0, 58.3524
11.284005400, 96.390, 3471.0, 58.9152
11.310265965, 96.390, 3300.0, 57.4456
11.336526530, 96.390, 3345.0, 57.8360
11.362787096, 96.390, 3313.0, 57.5587
11.389047661, 96.390, 3367.0, 58.0259
11.415308227, 96.390, 3358.0, 57.9483
11.441568792, 96.390, 3317.0, 57.5934
11.467829357, 96.390, 3337.0, 57.7668
11.494089923, 96.390, 3428.0, 58.5491
11.520350488, 96.390, 3392.0, 58.2409
11.546611053, 96.390, 3333.0, 57.7321
11.572871619, 96.390, 3248.0, 56.9912
11.599132184, 96.390, 3310.0, 57.5326
11.625392749, 96.390, 3298.0, 57.4282
11.651653315, 96.390, 3304.0, 57.4804
11.677913880, 96.390, 3277.0, 57.2451
11.704174445, 96.390, 3296.0, 57.4108
11.730435011, 96.390, 3255.0, 57.0526
11.756695576, 96.390, 3254.0, 57.0438
11.782956141, 96.390, 3271.0, 57.1927
11.809216707, 96.390, 3194.0, 56.5155
11.835477272, 96.390, 3213.0, 56.6833
11.861737838, 96.390, 3205.0, 56.6127
11.887998403, 96.390, 3151.0, 56.1338
11.914258968, 96.390, 3237.0, 56.8946
11.940519534, 96.390, 3235.0, 56.8771
11.966780099, 96.390, 3216.0, 56.7098
11.993040664, 96.390, 3141.0, 56.0446
12.019301230, 96.390, 3050.0, 55.2268
12.045561795, 96.390, 3157.0, 56.1872
12.071822360, 96.390, 3129.0, 55.9375
12.098082926, 96.390, 3177.0, 56.3649
12.124343491, 96.390, 2972.0, 54.5161
12.150604056, 96.390, 3077.0, 55.4707
12.176864622, 96.390, 3210.0, 56.6569
12.203125187, 96.390, 3073.0, 55.4346
12.229385753, 96.390, 3021.0, 54.9636
12.255646318, 96.390, 2963.0, 54.4334
12.281906883, 96.390, 3106.0, 55.7315
12.308167449, 96.390, 2900.0, 53.8516
12.334428014, 96.390, 2980.0, 54.5894
12.360688579, 96.390, 2951.0, 54.3231
12.386949145, 96.390, 3038.0, 55.1181
12.413209710, 96.390, 2857.0, 53.4509
12.439470275, 96.390, 2923.0, 54.0648
12.465730841, 96.390, 2854.0, 53.4228
12.491991406, 96.390, 2866.0, 53.5350
12.518251971, 96.390, 2931.0, 54.1387
12.544512537, 96.390, 2795.0, 52.8678
12.570773102, 96.390, 2757.0, 52.5071
12.597033667, 96.390, 2863.0, 53.5070
12.623294233, 96.390, 2882.0, 53.6843
12.649554798, 96.390, 2809.0, 53.0000
12.675815364, 96.390, 2888.0, 53.7401
12.702075929, 96.390, 2800.0, 52.9150
12.728336494, 96.390, 2816.0, 53.0660
12.754597060, 96.390, 2705.0, 52.0096
12.780857625, 96.390, 2692.0, 51.8845
12.807118190, 96.390, 2694.0, 51.9038
12.833378756, 96.390, 2715.0, 52.1057
12.859639321, 96.390, 2755.0, 52.4881
12.885899886, 96.390, 2660.0, 51.5752
12.912160452, 96.390, 2663.0, 51.6043
12.938421017, 96.390, 2662.0, 51.5946
12.964681582, 96.390, 2600.0, 50.9902
12.990942148, 96.390, 2576.0, 50.7543
13.017202713, 96.390, 2623.0, 51.2152
13.043463279, 96.390, 2583.0, 50.8232
13.069723844, 96.390, 2571.0, 50.7050
13.095984409, 96.390, 2575.0, 50.7445
13.122244975, 96.390, 2666.0, 51.6333
13.148505540, 96.390, 2597.0, 50.9608
13.174766105, 96.390, 2583.0, 50.8232
13.201026671, 96.390, 2490.0, 49.8999
13.227287236, 96.390, 2578.0, 50.7740
13.253547801, 96.390, 2554.0, 50.5371
13.279808367, 96.390, 2550.0, 50.4975
13.306068932, 96.390, 2509.0, 50.0899
13.332329497, 96.390, 2628.0, 51.2640
13.358590063, 96.390, 2545.0, 50.4480
13.384850628, 96.390, 2556.0, 50.5569
13.411111193, 96.390, 2649.0, 51.4684
13.437371759, 96.390, 2490.0, 49.8999
13.463632324, 96.390, 2559.0, 50.5866
13.489892890, 96.390, 2712.0, 52.0769
13.516153455, 96.390, 2787.0, 52.7920
13.542414020, 96.390, 2800.0, 52.9150
13.568674586, 96.390, 2689.0, 51.8556
13.594935151, 96.390, 2451.0, 49.5076
13.621195716, 96.390, 2466.0, 49.6588
13.647456282, 96.390, 2416.0, 49.1528
13.673716847, 96.390, 2392.0, 48.9081
13.699977412, 96.390, 2367.0, 48.6518
13.726237978, 96.390, 2354.0, 48.5180
13.752498543, 96.390, 2448.0, 49.4773
13.778759108, 96.390, 2498.0, 49.9800
13.805019674, 96.390, 2314.0, 48.1041
13.831280239, 96.390, 2363.0, 48.6107
13.857540805, 96.390, 2432.0, 49.3153
13.883801370, 96.390, 2354.0, 48.5180
13.910061935, 96.390, 2510.0, 50.0999
13.936322501, 96.390, 2561.0, 50.6063
13.962583066, 96.390, 2460.0, 49.5984
13.988843631, 96.390, 2391.0, 48.8979
14.015104197, 96.390, 2269.0, 47.6340
14.041364762, 96.390, 2328.0, 48.2494
14.067625327, 96.390, 2246.0, 47.3920
14.093885893, 96.390, 2328.0, 48.2494
14.120146458, 96.390, 2213.0, 47.0425
14.146407023, 96.390, 2244.0, 47.3709
14.172667589, 96.390, 2287.0, 47.8226
14.198928154, 96.390, 2381.0, 48.7955
14.225188719, 96.390, 2431.0, 49.3052
14.251449285, 96.390, 2615.0, 51.1371
14.277709850, 96.390, 2562.0, 50.6162
14.303970416, 96.390, 2672.0, 51.6914
14.330230981, 96.390, 2900.0, 53.8516
14.356491546, 96.390, 2546.0, 50.4579
14.382752112, 96.390, 2433.0, 49.3254
14.409012677, 96.390, 2326.0, 48.2286
14.435273242, 96.390, 2343.0, 48.4045
14.461533808, 96.390, 2448.0, 49.4773
14.487794373, 96.390, 2490.0, 49.8999
14.514054938, 96.390, 2703.0, 51.9904
14.540315504, 96.390, 2912.0, 53.9630
14.566576069, 96.390, 3088.0, 55.5698
14.592836634, 96.390, 3237.0, 56.8946
14.619097200, 96.390, 2870.0, 53.5724
14.645357765, 96.390, 2487.0, 49.8698
14.671618331, 96.390, 2249.0, 47.4236
14.697878896, 96.390, 2156.0, 46.4327
14.724139461, 96.390, 2130.0, 46.1519
14.750400027, 96.390, 2114.0, 45.9783
14.776660592, 96.390, 2145.0, 46.3141
14.802921157, 96.390, 2059.0, 45.3762
14.829181723, 96.390, 2104.0, 45.8694
14.855442288, 96.390, 2063.0, 45.4203
14.881702853, 96.390, 1958.0, 44.2493
14.907963419, 96.390, 2095.0, 45.7712
14.934223984, 96.390, 2008.0, 44.8107
14.960484549, 96.390, 2062.0, 45.4093
14.986745115, 96.390, 2017.0, 44.9110
15.013005680, 96.390, 2079.0, 45.5961
15.039266245, 96.390, 2076.0, 45.5631
15.065526811, 96.390, 2149.0, 46.3573
15.091787376, 96.390, 2147.0, 46.3357
15.118047942, 96.390, 2318.0, 48.1456
15.144308507, 96.390, 2359.0, 48.5695
15.170569072, 96.390, 2341.0, 48.3839
15.196829638, 96.390, 2458.0, 49.5782
15.223090203, 96.390, 2667.0, 51.6430
15.249350768, 96.390, 2858.0, 53.4603
15.275611334, 96.390, 2779.0, 52.7162
15.301871899, 96.390, 2959.0, 54.3967
15.328132464, 96.390, 2932.0, 54.1479
15.354393030, 96.390, 2819.0, 53.0943
15.380653595, 96.390, 2304.0, 48.0000
15.406914160, 96.390, 2122.0, 46.0652
15.433174726, 96.390, 2062.0, 45.4093
15.459435291, 96.390, 1988.0, 44.5870
15.485695857, 96.390, 1966.0, 44.3396
15.511956422, 96.390, 1924.0, 43.8634
15.538216987, 96.390, 1956.0, 44.2267
15.564477553, 96.390, 1940.0, 44.0454
15.590738118, 96.390, 1893.0, 43.5086
15.616998683, 96.390, 1925.0, 43.8748
15.643259249, 96.390, 1935.0, 43.9886
15.669519814, 96.390, 1982.0, 44.5197
15.695780379, 96.390, 1970.0, 44.3847
15.722040945, 96.390, 2066.0, 45.4533
15.748301510, 96.390, 2021.0, 44.9555
15.774562075, 96.390, 2114.0, 45.9783
15.800822641, 96.390, 2047.0, 45.2438
15.827083206, 96.390, 1942.0, 44.0681
15.853343771, 96.390, 1932.0, 43.9545
15.879604337, 96.390, 1966.0, 44.3396
15.905864902, 96.390, 1956.0, 44.2267
15.932125468, 96.390, 1906.0, 43.6578
15.958386033, 96.390, 1901.0, 43.6005
15.984646598, 96.390, 1856.0, 43.0813
16.010907164, 96.390, 1965.0, 44.3283
16.037167729, 96.390, 1885.0, 43.4166
16.063428294, 96.390, 1862.0, 43.1509
16.089688860, 96.390, 1809.0, 42.5323
16.115949425, 96.390, 1968.0, 44.3621
16.142209990, 96.390, 1817.0, 42.6263
16.168470556, 96.390, 2022.0, 44.9667
16.194731121, 96.390, 1904.0, 43.6348
16.220991686, 96.390, 2030.0, 45.0555
16.247252252, 96.390, 2037.0, 45.1331
16.273512817, 96.390, 2146.0, 46.3249
16.299773382, 96.390, 2202.0, 46.9255
16.326033948, 96.390, 2333.0, 48.3011
16.352294513, 96.390, 2593.0, 50.9215
16.378555079, 96.390, 2690.0, 51.8652
16.404815644, 96.390, 2549.0, 50.4876
16.431076209, 96.390, 2271.0, 47.6550
16.457336775, 96.390, 2070.0, 45.4973
16.483597340, 96.390, 1875.0, 43.3013
16.509857905, 96.390, 1790.0, 42.3084
16.536118471, 96.390, 1802.0, 42.4500
16.562379036, 96.390, 1830.0, 42.7785
16.588639601, 96.390, 1840.0, 42.8952
16.614900167, 96.390, 1807.0, 42.5088
16.641160732, 96.390, 1846.0, 42.9651
16.667421297, 96.390, 1868.0, 43.2204
16.693681863, 96.390, 1907.0, 43.6692
16.719942428, 96.390, 1877.0, 43.3244
16.746202994, 96.390, 1875.0, 43.3013
16.772463559, 96.390, 1854.0, 43.0581
16.798724124, 96.390, 1796.0, 42.3792
16.824984690, 96.390, 1849.0, 43.0000
16.851245255, 96.390, 1832.0, 42.8019
16.877505820, 96.390, 1918.0, 43.7950
16.903766386, 96.390, 1895.0, 43.5316
16.930026951, 96.390, 1816.0, 42.6146
16.956287516, 96.390, 1768.0, 42.0476
16.982548082, 96.390, 1888.0, 43.4511
17.008808647, 96.390, 1848.0, 42.9884
17.035069212, 96.390, 1904.0, 43.6348
17.061329778, 96.390, 1783.0, 42.2256
17.087590343, 96.390, 1912.0, 43.7264
17.113850908, 96.390, 1865.0, 43.1856
17.140111474, 96.390, 1752.0, 41.8569
17.166372039, 96.390, 1832.0, 42.8019
17.192632605, 96.390, 1802.0, 42.4500
17.218893170, 96.390, 1926.0, 43.8862
17.245153735, 96.390, 1908.0, 43.6807
17.271414301, 96.390, 1869.0, 43.2319
17.297674866, 96.390, 1988.0, 44.5870
17.323935431, 96.390, 1847.0, 42.9767
17.350195997, 96.390, 1839.0, 42.8836
17.376456562, 96.390, 1809.0, 42.5323
17.402717127, 96.390, 1835.0, 42.8369
17.428977693, 96.390, 1860.0, 43.1277
17.455238258, 96.390, 1862.0, 43.1509
17.481498823, 96.390, 1832.0, 42.8019
17.507759389, 96.390, 1837.0, 42.8602
17.534019954, 96.390, 1860.0, 43.1277
17.560280520, 96.390, 1869.0, 43.2319
17.586541085, 96.390, 1783.0, 42.2256
17.612801650, 96.390, 1927.0, 43.8976
17.639062216, 96.390, 1895.0, 43.5316
17.665322781, 96.390, 1841.0, 42.9069
17.691583346, 96.390, 1900.0, 43.5890
17.717843912, 96.390, 1822.0, 42.6849
17.744104477, 96.390, 1875.0, 43.3013
17.770365042, 96.390, 1857.0, 43.0929
17.796625608, 96.390, 1919.0, 43.8064
17.822886173, 96.390, 1886.0, 43.4281
17.849146738, 96.390, 1985.0, 44.5533
17.875407304, 96.390, 1985.0, 44.5533
17.901667869, 96.390, 2029.0, 45.0444
17.927928434, 96.390, 1880.0, 43.3590
17.954189000, 96.390, 2039.0, 45.1553
17.980449565, 96.390, 1983.0, 44.5309
18.006710131, 96.390, 1995.0, 44.6654
18.032970696, 96.390, 2036.0, 45.1221
18.059231261, 96.390, 2059.0, 45.3762
18.085491827, 96.390, 2171.0, 46.5940
18.111752392, 96.390, 2140.0, 46.2601
18.138012957, 96.390, 2237.0, 47.2969
18.164273523, 96.390, 2346.0, 48.4355
18.190534088, 96.390, 2373.0, 48.7134
18.216794653, 96.390, 2550.0, 50.4975
18.243055219, 96.390, 2847.0, 53.3573
18.269315784, 96.390, 2895.0, 53.8052
18.295576349, 96.390, 3300.0, 57.4456
18.321836915, 96.390, 3578.0, 59.8164
18.348097480, 96.390, 3641.0, 60.3407
18.374358046, 96.390, 3815.0, 61.7657
18.400618611, 96.390, 3915.0, 62.5700
18.426879176, 96.390, 4268.0, 65.3299
18.453139742, 96.390, 4366.0, 66.0757
18.479400307, 96.390, 4648.0, 68.1762
18.505660872, 96.390, 4843.0, 69.5917
18.531921438, 96.390, 4976.0, 70.5408
18.558182003, 96.390, 5148.0, 71.7496
18.584442568, 96.390, 4991.0, 70.6470
18.610703134, 96.390, 5073.0, 71.2250
18.636963699, 96.390, 5103.0, 71.4353
18.663224264, 96.390, 5023.0, 70.8731
18.689484830, 96.390, 5332.0, 73.0205
18.715745395, 96.390, 5551.0, 74.5050
18.742005960, 96.390, 5784.0, 76.0526
18.768266526, 96.390, 6370.0, 79.8123
18.794527091, 96.390, 6735.0, 82.0670
18.820787657, 96.390, 6834.0, 82.6680
18.847048222, 96.390, 6319.0, 79.4921
18.873308787, 96.390, 5551.0, 74.5050
18.899569353, 96.390, 4732.0, 68.7895
18.925829918, 96.390, 4054.0, 63.6710
18.952090483, 96.390, 3547.0, 59.5567
18.978351049, 96.390, 3508.0, 59.2284
19.004611614, 96.390, 3300.0, 57.4456
19.030872179, 96.390, 2999.0, 54.7631
19.057132745, 96.390, 2901.0, 53.8609
19.083393310, 96.390, 2548.0, 50.4777
19.109653875, 96.390, 2442.0, 49.4166
19.135914441, 96.390, 2385.0, 48.8365
19.162175006, 96.390, 2291.0, 47.8644
19.188435572, 96.390, 2250.0, 47.4342
19.214696137, 96.390, 2202.0, 46.9255
19.240956702, 96.390, 2204.0, 46.9468
19.267217268, 96.390, 2145.0, 46.3141
19.293477833, 96.390, 2200.0, 46.9042
19.319738398, 96.390, 2122.0, 46.0652
19.345998964, 96.390, 2269.0, 47.6340
19.372259529, 96.390, 2262.0, 47.5605
19.398520094, 96.390, 2435.0, 49.3457
19.424780660, 96.390, 2413.0, 49.1223
19.451041225, 96.390, 2444.0, 49.4368
19.477301790, 96.390, 2493.0, 49.9300
19.503562356, 96.390, 2313.0, 48.0937
19.529822921, 96.390, 2300.0, 47.9583
19.556083486, 96.390, 2205.0, 46.9574
19.582344052, 96.390, 2104.0, 45.8694
19.608604617, 96.390, 2108.0, 45.9130
19.634865183, 96.390, 2183.0, 46.7226
19.661125748, 96.390, 2143.0, 46.2925
19.687386313, 96.390, 2122.0, 46.0652
19.713646879, 96.390, 2227.0, 47.1911
19.739907444, 96.390, 2292.0, 47.8748
19.766168009, 96.390, 2392.0, 48.9081
19.792428575, 96.390, 2236.0, 47.2864
19.818689140, 96.390, 2246.0, 47.3920
19.844949705, 96.390, 2352.0, 48.4974
19.871210271, 96.390, 2408.0, 49.0714
19.897470836, 96.390, 2398.0, 48.9694
19.923731401, 96.390, 2599.0, 50.9804
19.949991967, 96.390, 2849.0, 53.3760
19.976252532, 96.390, 3065.0, 55.3624
20.002513097, 96.390, 3309.0, 57.5239
20.028773663, 96.390, 3406.0, 58.3609
20.055034228, 96.390, 3103.0, 55.7046
20.081294794, 96.390, 2953.0, 54.3415
20.107555359, 96.390, 2779.0, 52.7162
20.133815924, 96.390, 2896.0, 53.8145
20.160076490, 96.390, 3047.0, 55.1996
20.186337055, 96.390, 3401.0, 58.3181
20.212597620, 96.390, 3744.0, 61.1882
20.238858186, 96.390, 4400.0, 66.3325
20.265118751, 96.390, 4931.0, 70.2211
20.291379316, 96.390, 5782.0, 76.0395
20.317639882, 96.390, 6402.0, 80.0125
20.343900447, 96.390, 6934.0, 83.2706
20.370161012, 96.390, 6625.0, 81.3941
20.396421578, 96.390, 6264.0, 79.1454
20.422682143, 96.390, 5697.0, 75.4785
20.448942709, 96.390, 5498.0, 74.1485
20.475203274, 96.390, 5136.0, 71.6659
20.501463839, 96.390, 4825.0, 69.4622
20.527724405, 96.390, 4577.0, 67.6535
20.553984970, 96.390, 4192.0, 64.7457
20.580245535, 96.390, 3824.0, 61.8385
20.606506101, 96.390, 3838.0, 61.9516
20.632766666, 96.390, 3927.0, 62.6658
20.659027231, 96.390, 4110.0, 64.1093
20.685287797, 96.390, 4627.0, 68.0221
20.711548362, 96.390, 5149.0, 71.7565
20.737808927, 96.390, 6018.0, 77.5758
20.764069493, 96.390, 6561.0, 81.0000
20.790330058, 96.390, 5430.0, 73.6885
20.816590623, 96.390, 4448.0, 66.6933
20.842851189, 96.390, 3490.0, 59.0762
20.869111754, 96.390, 2861.0, 53.4883
20.895372320, 96.390, 2574.0, 50.7346
20.921632885, 96.390, 2577.0, 50.7642
20.947893450, 96.390, 2638.0, 51.3615
20.974154016, 96.390, 2538.0, 50.3786
21.000414581, 96.390, 2557.0, 50.5668
21.026675146, 96.390, 2544.0, 50.4381
21.052935712, 96.390, 2446.0, 49.4571
21.079196277, 96.390, 2460.0, 49.5984
21.105456842, 96.390, 2520.0, 50.1996
21.131717408, 96.390, 2455.0, 49.5480
21.157977973, 96.390, 2395.0, 48.9387
21.184238538, 96.390, 2372.0, 48.7032
21.210499104, 96.390, 2470.0, 49.6991
21.236759669, 96.390, 2507.0, 50.0700
21.263020235, 96.390, 2452.0, 49.5177
21.289280800, 96.390, 2492.0, 49.9199
21.315541365, 96.390, 2646.0, 51.4393
21.341801931, 96.390, 2691.0, 51.8748
21.368062496, 96.390, 2667.0, 51.6430
21.394323061, 96.390, 2616.0, 51.1468
21.420583627, 96.390, 2475.0, 49.7494
21.446844192, 96.390, 2480.0, 49.7996
21.473104757, 96.390, 2352.0, 48.4974
21.499365323, 96.390, 2309.0, 48.0521
21.525625888, 96.390, 2415.0, 49.1426
21.551886453, 96.390, 2475.0, 49.7494
21.578147019, 96.390, 2523.0, 50.2295
21.604407584, 96.390, 2599.0, 50.9804
21.630668149, 96.390, 2748.0, 52.4214
21.656928715, 96.390, 2841.0, 53.3010
21.683189280, 96.390, 2843.0, 53.3198
21.709449846, 96.390, 2754.0, 52.4786
21.735710411, 96.390, 2598.0, 50.9706
21.761970976, 96.390, 2487.0, 49.8698
21.788231542, 96.390, 2345.0, 48.4252
21.814492107, 96.390, 2331.0, 48.2804
21.840752672, 96.390, 2384.0, 48.8262
21.867013238, 96.390, 2333.0, 48.3011
21.893273803, 96.390, 2263.0, 47.5710
21.919534368, 96.390, 2335.0, 48.3218
21.945794934, 96.390, 2376.0, 48.7442
21.972055499, 96.390, 2389.0, 48.8774
21.998316064, 96.390, 2361.0, 48.5901
22.024576630, 96.390, 2290.0, 47.8539
22.050837195, 96.390, 2366.0, 48.6415
22.077097761, 96.390, 2322.0, 48.1871
22.103358326, 96.390, 2272.0, 47.6655
22.129618891, 96.390, 2412.0, 49.1121
22.155879457, 96.390, 2310.0, 48.0625
22.182140022, 96.390, 2397.0, 48.9592
22.208400587, 96.390, 2347.0, 48.4458
22.234661153, 96.390, 2365.0, 48.6313
22.260921718, 96.390, 2404.0, 49.0306
22.287182283, 96.390, 2476.0, 49.7594
22.313442849, 96.390, 2329.0, 48.2597
22.339703414, 96.390, 2411.0, 49.1019
22.365963979, 96.390, 2408.0, 49.0714
22.392224545, 96.390, 2444.0, 49.4368
22.418485110, 96.390, 2473.0, 49.7293
22.444745675, 96.390, 2404.0, 49.0306
22.471006241, 96.390, 2417.0, 49.1630
22.497266806, 96.390, 2438.0, 49.3761
22.523527372, 96.390, 2511.0, 50.1099
22.549787937, 96.390, 2538.0, 50.3786
22.576048502, 96.390, 2513.0, 50.1298
22.602309068, 96.390, 2660.0, 51.5752
22.628569633, 96.390, 2669.0, 51.6624
22.654830198, 96.390, 2607.0, 51.0588
22.681090764, 96.390, 2601.0, 51.0000
22.707351329, 96.390, 2641.0, 51.3907
22.733611894, 96.390, 2626.0, 51.2445
22.759872460, 96.390, 2558.0, 50.5767
22.786133025, 96.390, 2754.0, 52.4786
22.812393590, 96.390, 2777.0, 52.6972
22.838654156, 96.390, 2837.0, 53.2635
22.864914721, 96.390, 2983.0, 54.6168
22.891175287, 96.390, 3019.0, 54.9454
22.917435852, 96.390, 3108.0, 55.7494
22.943696417, 96.390, 2967.0, 54.4702
22.969956983, 96.390, 2933.0, 54.1572
22.996217548, 96.390, 2833.0, 53.2259
23.022478113, 96.390, 2927.0, 54.1018
23.048738679, 96.390, 2907.0, 53.9166
23.074999244, 96.390, 2868.0, 53.5537
23.101259809, 96.390, 2801.0, 52.9245
23.127520375, 96.390, 2882.0, 53.6843
23.153780940, 96.390, 2990.0, 54.6809
23.180041505, 96.390, 3081.0, 55.5068
23.206302071, 96.390, 3124.0, 55.8928
23.232562636, 96.390, 3247.0, 56.9825
23.258823201, 96.390, 3229.0, 56.8243
23.285083767, 96.390, 3095.0, 55.6327
23.311344332, 96.390, 3038.0, 55.1181
23.337604898, 96.390, 2932.0, 54.1479
23.363865463, 96.390, 2964.0, 54.4426
23.390126028, 96.390, 2952.0, 54.3323
23.416386594, 96.390, 3008.0, 54.8452
23.442647159, 96.390, 2909.0, 53.9351
23.468907724, 96.390, 2846.0, 53.3479
23.495168290, 96.390, 2747.0, 52.4118
23.521428855, 96.390, 2729.0, 52.2398
23.547689420, 96.390, 2670.0, 51.6720
23.573949986, 96.390, 2732.0, 52.2685
23.600210551, 96.390, 2804.0, 52.9528
23.626471116, 96.390, 2806.0, 52.9717
23.652731682, 96.390, 2723.0, 52.1824
23.678992247, 96.390, 2676.0, 51.7301
23.705252813, 96.390, 2547.0, 50.4678
23.731513378, 96.390, 2551.0, 50.5074
23.757773943, 96.390, 2565.0, 50.6458
23.784034509, 96.390, 2522.0, 50.2195
23.810295074, 96.390, 2523.0, 50.2295
23.836555639, 96.390, 2400.0, 48.9898
23.862816205, 96.390, 2421.0, 49.2037
23.889076770, 96.390, 2372.0, 48.7032
23.915337335, 96.390, 2455.0, 49.5480
23.941597901, 96.390, 2426.0, 49.2544
23.967858466, 96.390, 2405.0, 49.0408
23.994119031, 96.390, 2381.0, 48.7955
24.020379597, 96.390, 2400.0, 48.9898
24.046640162, 96.390, 2367.0, 48.6518
24.072900727, 96.390, 2364.0, 48.6210
24.099161293, 96.390, 2376.0, 48.7442
24.125421858, 96.390, 2342.0, 48.3942
24.151682424, 96.390, 2596.0, 50.9510
24.177942989, 96.390, 2409.0, 49.0816
24.204203554, 96.390, 2569.0, 50.6853
24.230464120, 96.390, 2542.0, 50.4183
24.256724685, 96.390, 2510.0, 50.0999
24.282985250, 96.390, 2300.0, 47.9583
24.309245816, 96.390, 2316.0, 48.1248
24.335506381, 96.390, 2308.0, 48.0416
24.361766946, 96.390, 2244.0, 47.3709
24.388027512, 96.390, 2245.0, 47.3814
24.414288077, 96.390, 2179.0, 46.6798
24.440548642, 96.390, 2207.0, 46.9787
24.466809208, 96.390, 2080.0, 45.6070
24.493069773, 96.390, 2156.0, 46.4327
24.519330338, 96.390, 2190.0, 46.7974
24.545590904, 96.390, 2117.0, 46.0109
24.571851469, 96.390, 2159.0, 46.4650
24.598112035, 96.390, 2147.0, 46.3357
24.624372600, 96.390, 2017.0, 44.9110
24.650633165, 96.390, 2081.0, 45.6180
24.676893731, 96.390, 2123.0, 46.0760
24.703154296, 96.390, 2036.0, 45.1221
24.729414861, 96.390, 2151.0, 46.3789
24.755675427, 96.390, 2040.0, 45.1664
24.781935992, 96.390, 2067.0, 45.4643
24.808196557, 96.390, 2011.0, 44.8442
24.834457123, 96.390, 2123.0, 46.0760
24.860717688, 96.390, 2114.0, 45.9783
24.886978253, 96.390, 2196.0, 46.8615
24.913238819, 96.390, 2016.0, 44.8999
24.939499384, 96.390, 2055.0, 45.3321
24.965759950, 96.390, 2014.0, 44.8776
24.992020515, 96.390, 1995.0, 44.6654
25.018281080, 96.390, 1896.0, 43.5431
25.044541646, 96.390, 1854.0, 43.0581
25.070802211, 96.390, 1912.0, 43.7264
25.097062776, 96.390, 1834.0, 42.8252
25.123323342, 96.390, 1877.0, 43.3244
25.149583907, 96.390, 1849.0, 43.0000
25.175844472, 96.390, 1901.0, 43.6005
25.202105038, 96.390, 1835.0, 42.8369
25.228365603, 96.390, 1875.0, 43.3013
25.254626168, 96.390, 1843.0, 42.9302
25.280886734, 96.390, 1854.0, 43.0581
25.307147299, 96.390, 1824.0, 42.7083
25.333407864, 96.390, 1825.0, 42.7200
25.359668430, 96.390, 2031.0, 45.0666
25.385928995, 96.390, 1950.0, 44.1588
25.412189561, 96.390, 2070.0, 45.4973
25.438450126, 96.390, 2141.0, 46.2709
25.464710691, 96.390, 2391.0, 48.8979
25.490971257, 96.390, 2304.0, 48.0000
25.517231822, 96.390, 2246.0, 47.3920
25.543492387, 96.390, 2173.0, 46.6154
25.569752953, 96.390, 2002.0, 44.7437
25.596013518, 96.390, 1872.0, 43.2666
25.622274083, 96.390, 1763.0, 41.9881
25.648534649, 96.390, 1723.0, 41.5090
25.674795214, 96.390, 1714.0, 41.4005
25.701055779, 96.390, 1754.0, 41.8808
25.727316345, 96.390, 1804.0, 42.4735
25.753576910, 96.390, 1736.0, 41.6653
25.779837476, 96.390, 1771.0, 42.0833
25.806098041, 96.390, 1752.0, 41.8569
25.832358606, 96.390, 1774.0, 42.1189
25.858619172, 96.390, 1860.0, 43.1277
25.884879737, 96.390, 1702.0, 41.2553
25.911140302, 96.390, 1692.0, 41.1339
25.937400868, 96.390, 1741.0, 41.7253
25.963661433, 96.390, 1722.0, 41.4970
25.989921998, 96.390, 1696.0, 41.1825
26.016182564, 96.390, 1802.0, 42.4500
26.042443129, 96.390, 1765.0, 42.0119
26.068703694, 96.390, 1735.0, 41.6533
26.094964260, 96.390, 1728.0, 41.5692
26.121224825, 96.390, 1712.0, 41.3763
26.147485390, 96.390, 1782.0, 42.2137
26.173745956, 96.390, 1749.0, 41.8210
26.200006521, 96.390, 1783.0, 42.2256
26.226267087, 96.390, 1675.0, 40.9268
26.252527652, 96.390, 1727.0, 41.5572
26.278788217, 96.390, 1714.0, 41.4005
26.305048783, 96.390, 1743.0, 41.7493
26.331309348, 96.390, 1778.0, 42.1663
26.357569913, 96.390, 1745.0, 41.7732
26.383830479, 96.390, 1720.0, 41.4729
26.410091044, 96.390, 1722.0, 41.4970
26.436351609, 96.390, 1770.0, 42.0714
26.462612175, 96.390, 1720.0, 41.4729
26.488872740, 96.390, 1767.0, 42.0357
26.515133305, 96.390, 1763.0, 41.9881
26.541393871, 96.390, 1782.0, 42.2137
26.567654436, 96.390, 1810.0, 42.5441
26.593915002, 96.390, 1747.0, 41.7971
26.620175567, 96.390, 1799.0, 42.4146
26.646436132, 96.390, 1759.0, 41.9404
26.672696698, 96.390, 1780.0, 42.1900
26.698957263, 96.390, 1925.0, 43.8748
26.725217828, 96.390, 1984.0, 44.5421
26.751478394, 96.390, 2007.0, 44.7996
26.777738959, 96.390, 2203.0, 46.9361
26.803999524, 96.390, 2356.0, 48.5386
26.830260090, 96.390, 2514.0, 50.1398
26.856520655, 96.390, 2574.0, 50.7346
26.882781220, 96.390, 2553.0, 50.5272
26.909041786, 96.390, 2409.0, 49.0816
26.935302351, 96.390, 2253.0, 47.4658
26.961562916, 96.390, 2134.0, 46.1952
26.987823482, 96.390, 2248.0, 47.4131
27.014084047, 96.390, 2256.0, 47.4974
27.040344613, 96.390, 2390.0, 48.8876
27.066605178, 96.390, 2612.0, 51.1077
27.092865743, 96.390, 2859.0, 53.4696
27.119126309, 96.390, 2883.0, 53.6936
27.145386874, 96.390, 2755.0, 52.4881
27.171647439, 96.390, 2996.0, 54.7357
27.197908005, 96.390, 3226.0, 56.7979
27.224168570, 96.390, 3677.0, 60.6383
27.250429135, 96.390, 3752.0, 61.2536
27.276689701, 96.390, 3341.0, 57.8014
27.302950266, 96.390, 2950.0, 54.3139
27.329210831, 96.390, 2632.0, 51.3030
27.355471397, 96.390, 2325.0, 48.2183
27.381731962, 96.390, 2125.0, 46.0977
27.407992528, 96.390, 2093.0, 45.7493
27.434253093, 96.390, 1986.0, 44.5646
27.460513658, 96.390, 2017.0, 44.9110
27.486774224, 96.390, 1950.0, 44.1588
27.513034789, 96.390, 1941.0, 44.0568
27.539295354, 96.390, 1967.0, 44.3509
27.565555920, 96.390, 1968.0, 44.3621
27.591816485, 96.390, 1949.0, 44.1475
27.618077050, 96.390, 2051.0, 45.2880
27.644337616, 96.390, 2111.0, 45.9456
27.670598181, 96.390, 2122.0, 46.0652
27.696858746, 96.390, 2326.0, 48.2286
27.723119312, 96.390, 2435.0, 49.3457
27.749379877, 96.390, 2499.0, 49.9900
27.775640442, 96.390, 2561.0, 50.6063
27.801901008, 96.390, 2607.0, 51.0588
27.828161573, 96.390, 2665.0, 51.6236
27.854422139, 96.390, 2714.0, 52.0961
27.880682704, 96.390, 2665.0, 51.6236
27.906943269, 96.390, 2605.0, 51.0392
27.933203835, 96.390, 2511.0, 50.1099
27.959464400, 96.390, 2503.0, 50.0300
27.985724965, 96.390, 2305.0, 48.0104
28.011985531, 96.390, 2206.0, 46.9681
28.038246096, 96.390, 2223.0, 47.1487
28.064506661, 96.390, 2099.0, 45.8148
28.090767227, 96.390, 2023.0, 44.9778
28.117027792, 96.390, 2021.0, 44.9555
28.143288357, 96.390, 1988.0, 44.5870
28.169548923, 96.390, 2065.0, 45.4423
28.195809488, 96.390, 1947.0, 44.1248
28.222070054, 96.390, 1818.0, 42.6380
28.248330619, 96.390, 1888.0, 43.4511
28.274591184, 96.390, 1775.0, 42.1307
28.300851750, 96.390, 1766.0, 42.0238
28.327112315, 96.390, 1868.0, 43.2204
28.353372880, 96.390, 1802.0, 42.4500
28.379633446, 96.390, 1914.0, 43.7493
28.405894011, 96.390, 1878.0, 43.3359
28.432154576, 96.390, 1816.0, 42.6146
28.458415142, 96.390, 1918.0, 43.7950
28.484675707, 96.390, 1866.0, 43.1972
28.510936272, 96.390, 1859.0, 43.1161
28.537196838, 96.390, 1834.0, 42.8252
28.563457403, 96.390, 1809.0, 42.5323
28.589717968, 96.390, 1878.0, 43.3359
28.615978534, 96.390, 1881.0, 43.3705
28.642239099, 96.390, 1824.0, 42.7083
28.668499665, 96.390, 1812.0, 42.5676
28.694760230, 96.390, 1929.0, 43.9204
28.721020795, 96.390, 1826.0, 42.7317
28.747281361, 96.390, 1854.0, 43.0581
28.773541926, 96.390, 1884.0, 43.4051
28.799802491, 96.390, 1961.0, 44.2832
28.826063057, 96.390, 1962.0, 44.2945
28.852323622, 96.390, 2007.0, 44.7996
28.878584187, 96.390, 1906.0, 43.6578
28.904844753, 96.390, 1942.0, 44.0681
28.931105318, 96.390, 1784.0, 42.2374
28.957365883, 96.390, 1780.0, 42.1900
28.983626449, 96.390, 1843.0, 42.9302
29.009887014, 96.390, 1812.0, 42.5676
29.036147579, 96.390, 1771.0, 42.0833
29.062408145, 96.390, 1867.0, 43.2088
29.088668710, 96.390, 1876.0, 43.3128
29.114929276, 96.390, 2098.0, 45.8039
29.141189841, 96.390, 2247.0, 47.4025
29.167450406, 96.390, 2346.0, 48.4355
29.193710972, 96.390, 2338.0, 48.3529
29.219971537, 96.390, 2403.0, 49.0204
29.246232102, 96.390, 2369.0, 48.6724
29.272492668, 96.390, 2401.0, 49.0000
29.298753233, 96.390, 2381.0, 48.7955
29.325013798, 96.390, 2678.0, 51.7494
29.351274364, 96.390, 2801.0, 52.9245
29.377534929, 96.390, 2690.0, 51.8652
29.403795494, 96.390, 2592.0, 50.9117
29.430056060, 96.390, 2484.0, 49.8397
29.456316625, 96.390, 2452.0, 49.5177
29.482577191, 96.390, 2395.0, 48.9387
29.508837756, 96.390, 2532.0, 50.3190
29.535098321, 96.390, 2474.0, 49.7393
29.561358887, 96.390, 2444.0, 49.4368
29.587619452, 96.390, 2236.0, 47.2864
29.613880017, 96.390, 2118.0, 46.0217
29.640140583, 96.390, 2064.0, 45.4313
29.666401148, 96.390, 2022.0, 44.9667
29.692661713, 96.390, 1959.0, 44.2606
29.718922279, 96.390, 1919.0, 43.8064
29.745182844, 96.390, 1898.0, 43.5660
29.771443409, 96.390, 1945.0, 44.1022
29.797703975, 96.390, 1973.0, 44.4185
29.823964540, 96.390, 1808.0, 42.5206
29.850225105, 96.390, 1768.0, 42.0476
29.876485671, 96.390, 1737.0, 41.6773
29.902746236, 96.390, 1661.0, 40.7554
29.929006802, 96.390, 1730.0, 41.5933
29.955267367, 96.390, 1656.0, 40.6940
29.981527932, 96.390, 1679.0, 40.9756
30.007788498, 96.390, 1730.0, 41.5933
30.034049063, 96.390, 1726.0, 41.5452
30.060309628, 96.390, 1684.0, 41.0366
30.086570194, 96.390, 1674.0, 40.9145
30.112830759, 96.390, 1691.0, 41.1218
30.139091324, 96.390, 1680.0, 40.9878
30.165351890, 96.390, 1673.0, 40.9023
30.191612455, 96.390, 1634.0, 40.4228
30.217873020, 96.390, 1604.0, 40.0500
30.244133586, 96.390, 1598.0, 39.9750
30.270394151, 96.390, 1572.0, 39.6485
30.296654717, 96.390, 1604.0, 40.0500
30.322915282, 96.390, 1610.0, 40.1248
30.349175847, 96.390, 1738.0, 41.6893
30.375436413, 96.390, 1621.0, 40.2616
30.401696978, 96.390, 1654.0, 40.6694
30.427957543, 96.390, 1614.0, 40.1746
30.454218109, 96.390, 1724.0, 41.5211
30.480478674, 96.390, 1788.0, 42.2847
30.506739239, 96.390, 1661.0, 40.7554
30.532999805, 96.390, 1700.0, 41.2311
30.559260370, 96.390, 1715.0, 41.4126
30.585520935, 96.390, 1777.0, 42.1545
30.611781501, 96.390, 1905.0, 43.6463
30.638042066, 96.390, 1884.0, 43.4051
30.664302631, 96.390, 2071.0, 45.5082
30.690563197, 96.390, 2028.0, 45.0333
30.716823762, 96.390, 2105.0, 45.8803
30.743084328, 96.390, 2111.0, 45.9456
30.769344893, 96.390, 2007.0, 44.7996
30.795605458, 96.390, 2045.0, 45.2217
30.821866024, 96.390, 2019.0, 44.9333
30.848126589, 96.390, 1972.0, 44.4072
30.874387154, 96.390, 2052.0, 45.2990
30.900647720, 96.390, 2035.0, 45.1110
30.926908285, 96.390, 1996.0, 44.6766
30.953168850, 96.390, 1842.0, 42.9185
30.979429416, 96.390, 1834.0, 42.8252
31.005689981, 96.390, 1745.0, 41.7732
31.031950546, 96.390, 1760.0, 41.9524
31.058211112, 96.390, 1777.0, 42.1545
31.084471677, 96.390, 1765.0, 42.0119
31.110732243, 96.390, 1763.0, 41.9881
31.136992808, 96.390, 1839.0, 42.8836
31.163253373, 96.390, 1868.0, 43.2204
31.189513939, 96.390, 2082.0, 45.6289
31.215774504, 96.390, 2378.0, 48.7647
31.242035069, 96.390, 2589.0, 50.8822
31.268295635, 96.390, 2830.0, 53.1977
31.294556200, 96.390, 2820.0, 53.1037
31.320816765, 96.390, 2764.0, 52.5738
31.347077331, 96.390, 2768.0, 52.6118
31.373337896, 96.390, 2607.0, 51.0588
31.399598461, 96.390, 2423.0, 49.2240
31.425859027, 96.390, 2417.0, 49.1630
31.452119592, 96.390, 2387.0, 48.8569
31.478380157, 96.390, 2191.0, 46.8081
31.504640723, 96.390, 2116.0, 46.0000
31.530901288, 96.390, 2078.0, 45.5851
31.557161854, 96.390, 2027.0, 45.0222
31.583422419, 96.390, 2028.0, 45.0333
31.609682984, 96.390, 1846.0, 42.9651
31.635943550, 96.390, 1851.0, 43.0232
31.662204115, 96.390, 1853.0, 43.0465
31.688464680, 96.390, 1869.0, 43.2319
31.714725246, 96.390, 1775.0, 42.1307
31.740985811, 96.390, 1755.0, 41.8927
31.767246376, 96.390, 1630.0, 40.3733
31.793506942, 96.390, 1651.0, 40.6325
31.819767507, 96.390, 1679.0, 40.9756
31.846028072, 96.390, 1662.0, 40.7676
31.872288638, 96.390, 1638.0, 40.4722
31.898549203, 96.390, 1687.0, 41.0731
31.924809769, 96.390, 1819.0, 42.6497
31.951070334, 96.390, 1956.0, 44.2267
31.977330899, 96.390, 2126.0, 46.1086
32.003591465, 96.390, 2335.0, 48.3218
32.029852030, 96.390, 2744.0, 52.3832
32.056112595, 96.390, 3252.0, 57.0263
32.082373161, 96.390, 3922.0, 62.6259
32.108633726, 96.390, 4226.0, 65.0077
32.134894291, 96.390, 4149.0, 64.4127
32.161154857, 96.390, 3613.0, 60.1082
32.187415422, 96.390, 3254.0, 57.0438
32.213675987, 96.390, 2890.0, 53.7587
32.239936553, 96.390, 2583.0, 50.8232
32.266197118, 96.390, 2283.0, 47.7807
32.292457683, 96.390, 2197.0, 46.8722
32.318718249, 96.390, 2338.0, 48.3529
32.344978814, 96.390, 2264.0, 47.5815
32.371239380, 96.390, 2094.0, 45.7602
32.397499945, 96.390, 1951.0, 44.1701
32.423760510, 96.390, 1901.0, 43.6005
32.450021076, 96.390, 1677.0, 40.9512
32.476281641, 96.390, 1637.0, 40.4599
32.502542206, 96.390, 1643.0, 40.5339
32.528802772, 96.390, 1598.0, 39.9750
32.555063337, 96.390, 1609.0, 40.1123
32.581323902, 96.390, 1655.0, 40.6817
32.607584468, 96.390, 1568.0, 39.5980
32.633845033, 96.390, 1596.0, 39.9500
32.660105598, 96.390, 1704.0, 41.2795
32.686366164, 96.390, 1654.0, 40.6694
32.712626729, 96.390, 1740.0, 41.7133
32.738887295, 96.390, 1815.0, 42.6028
32.765147860, 96.390, 1831.0, 42.7902
32.791408425, 96.390, 1750.0, 41.8330
32.817668991, 96.390, 1662.0, 40.7676
32.843929556, 96.390, 1739.0, 41.7013
32.870190121, 96.390, 1664.0, 40.7922
32.896450687, 96.390, 1638.0, 40.4722
32.922711252, 96.390, 1681.0, 41.0000
32.948971817, 96.390, 1645.0, 40.5586
32.975232383, 96.390, 1699.0, 41.2189
33.001492948, 96.390, 1744.0, 41.7612
33.027753513, 96.390, 1733.0, 41.6293
33.054014079, 96.390, 1790.0, 42.3084
33.080274644, 96.390, 1817.0, 42.6263
33.106535209, 96.390, 1892.0, 43.4971
33.132795775, 96.390, 1916.0, 43.7721
33.159056340, 96.390, 1892.0, 43.4971
33.185316906, 96.390, 1753.0, 41.8688
33.211577471, 96.390, 1856.0, 43.0813
33.237838036, 96.390, 1873.0, 43.2782
33.264098602, 96.390, 1883.0, 43.3935
33.290359167, 96.390, 1917.0, 43.7836
33.316619732, 96.390, 1911.0, 43.7150
33.342880298, 96.390, 1861.0, 43.1393
33.369140863, 96.390, 1759.0, 41.9404
33.395401428, 96.390, 1766.0, 42.0238
33.421661994, 96.390, 1711.0, 41.3642
33.447922559, 96.390, 1754.0, 41.8808
33.474183124, 96.390, 1685.0, 41.0488
33.500443690, 96.390, 1812.0, 42.5676
33.526704255, 96.390, 1836.0, 42.8486
33.552964820, 96.390, 1816.0, 42.6146
33.579225386, 96.390, 1839.0, 42.8836
33.605485951, 96.390, 1832.0, 42.8019
33.631746517, 96.390, 1885.0, 43.4166
33.658007082, 96.390, 1965.0, 44.3283
33.684267647, 96.390, 1942.0, 44.0681
33.710528213, 96.390, 2078.0, 45.5851
33.736788778, 96.390, 1981.0, 44.5084
33.763049343, 96.390, 2034.0, 45.0999
33.789309909, 96.390, 2027.0, 45.0222
33.815570474, 96.390, 2095.0, 45.7712
33.841831039, 96.390, 2078.0, 45.5851
33.868091605, 96.390, 2191.0, 46.8081
33.894352170, 96.390, 2291.0, 47.8644
33.920612735, 96.390, 2433.0, 49.3254
33.946873301, 96.390, 2599.0, 50.9804
33.973133866, 96.390, 2803.0, 52.9434
33.999394432, 96.390, 3019.0, 54.9454
34.025654997, 96.390, 3001.0, 54.7814
34.051915562, 96.390, 2959.0, 54.3967
34.078176128, 96.390, 2773.0, 52.6593
34.104436693, 96.390, 2673.0, 51.7011
34.130697258, 96.390, 2671.0, 51.6817
34.156957824, 96.390, 2484.0, 49.8397
34.183218389, 96.390, 2419.0, 49.1833
34.209478954, 96.390, 2372.0, 48.7032
34.235739520, 96.390, 2487.0, 49.8698
34.262000085, 96.390, 2382.0, 48.8057
34.288260650, 96.390, 2533.0, 50.3289
34.314521216, 96.390, 2441.0, 49.4065
34.340781781, 96.390, 2435.0, 49.3457
34.367042346, 96.390, 2569.0, 50.6853
34.393302912, 96.390, 2507.0, 50.0700
34.419563477, 96.390, 2563.0, 50.6261
34.445824043, 96.390, 2748.0, 52.4214
34.472084608, 96.390, 2875.0, 53.6190
34.498345173, 96.390, 3118.0, 55.8391
34.524605739, 96.390, 3211.0, 56.6657
34.550866304, 96.390, 3228.0, 56.8155
34.577126869, 96.390, 3400.0, 58.3095
34.603387435, 96.390, 3466.0, 58.8727
34.629648000, 96.390, 3488.0, 59.0593
34.655908565, 96.390, 3305.0, 57.4891
34.682169131, 96.390, 3202.0, 56.5862
34.708429696, 96.390, 3077.0, 55.4707
34.734690261, 96.390, 2869.0, 53.5630
34.760950827, 96.390, 2730.0, 52.2494
34.787211392, 96.390, 2728.0, 52.2303
34.813471958, 96.390, 2598.0, 50.9706
34.839732523, 96.390, 2685.0, 51.8170
34.865993088, 96.390, 2706.0, 52.0192
34.892253654, 96.390, 2825.0, 53.1507
34.918514219, 96.390, 2945.0, 54.2679
34.944774784, 96.390, 3095.0, 55.6327
34.971035350, 96.390, 3238.0, 56.9034
34.997295915, 96.390, 3190.0, 56.4801
35.023556480, 96.390, 2987.0, 54.6535
35.049817046, 96.390, 2833.0, 53.2259
35.076077611, 96.390, 2741.0, 52.3546
35.102338176, 96.390, 2681.0, 51.7784
35.128598742, 96.390, 2560.0, 50.5964
35.154859307, 96.390, 2499.0, 49.9900
35.181119872, 96.390, 2450.0, 49.4975
35.207380438, 96.390, 2423.0, 49.2240
35.233641003, 96.390, 2441.0, 49.4065
35.259901569, 96.390, 2461.0, 49.6085
35.286162134, 96.390, 2390.0, 48.8876
35.312422699, 96.390, 2302.0, 47.9792
35.338683265, 96.390, 2269.0, 47.6340
35.364943830, 96.390, 2171.0, 46.5940
35.391204395, 96.390, 2101.0, 45.8367
35.417464961, 96.390, 2030.0, 45.0555
35.443725526, 96.390, 1988.0, 44.5870
35.469986091, 96.390, 1976.0, 44.4522
35.496246657, 96.390, 1994.0, 44.6542
35.522507222, 96.390, 1947.0, 44.1248
35.548767787, 96.390, 1896.0, 43.5431
35.575028353, 96.390, 1928.0, 43.9090
35.601288918, 96.390, 1877.0, 43.3244
35.627549484, 96.390, 2012.0, 44.8553
35.653810049, 96.390, 2005.0, 44.7772
35.680070614, 96.390, 1913.0, 43.7379
35.706331180, 96.390, 2005.0, 44.7772
35.732591745, 96.390, 1960.0, 44.2719
35.758852310, 96.390, 2019.0, 44.9333
35.785112876, 96.390, 2030.0, 45.0555
35.811373441, 96.390, 2032.0, 45.0777
35.837634006, 96.390, 1952.0, 44.1814
35.863894572, 96.390, 1949.0, 44.1475
35.890155137, 96.390, 2092.0, 45.7384
35.916415702, 96.390, 2157.0, 46.4435
35.942676268, 96.390, 2203.0, 46.9361
35.968936833, 96.390, 2340.0, 48.3735
35.995197398, 96.390, 2350.0, 48.4768
36.021457964, 96.390, 2285.0, 47.8017
36.047718529, 96.390, 2295.0, 47.9062
36.073979095, 96.390, 2263.0, 47.5710
36.100239660, 96.390, 2355.0, 48.5283
36.126500225, 96.390, 2241.0, 47.3392
36.152760791, 96.390, 2352.0, 48.4974
36.179021356, 96.390, 2476.0, 49.7594
36.205281921, 96.390, 2699.0, 51.9519
36.231542487, 96.390, 2755.0, 52.4881
36.257803052, 96.390, 2734.0, 52.2877
36.284063617, 96.390, 2537.0, 50.3686
36.310324183, 96.390, 2361.0, 48.5901
36.336584748, 96.390, 2158.0, 46.4543
36.362845313, 96.390, 2043.0, 45.1996
36.389105879, 96.390, 1902.0, 43.6119
36.415366444, 96.390, 1897.0, 43.5546
36.441627010, 96.390, 1774.0, 42.1189
36.467887575, 96.390, 1675.0, 40.9268
36.494148140, 96.390, 1711.0, 41.3642
36.520408706, 96.390, 1688.0, 41.0853
36.546669271, 96.390, 1660.0, 40.7431
36.572929836, 96.390, 1674.0, 40.9145
36.599190402, 96.390, 1678.0, 40.9634
36.625450967, 96.390, 1714.0, 41.4005
36.651711532, 96.390, 1699.0, 41.2189
36.677972098, 96.390, 1674.0, 40.9145
36.704232663, 96.390, 1644.0, 40.5463
36.730493228, 96.390, 1619.0, 40.2368
36.756753794, 96.390, 1594.0, 39.9249
36.783014359, 96.390, 1505.0, 38.7943
36.809274924, 96.390, 1524.0, 39.0384
36.835535490, 96.390, 1513.0, 38.8973
36.861796055, 96.390, 1535.0, 39.1791
36.888056621, 96.390, 1473.0, 38.3797
36.914317186, 96.390, 1578.0, 39.7240
36.940577751, 96.390, 1447.0, 38.0395
36.966838317, 96.390, 1501.0, 38.7427
36.993098882, 96.390, 1463.0, 38.2492
37.019359447, 96.390, 1500.0, 38.7298
37.045620013, 96.390, 1491.0, 38.6135
37.071880578, 96.390, 1542.0, 39.2683
37.098141143, 96.390, 1488.0, 38.5746
37.124401709, 96.390, 1591.0, 39.8873
37.150662274, 96.390, 1538.0, 39.2173
37.176922839, 96.390, 1596.0, 39.9500
37.203183405, 96.390, 1563.0, 39.5348
37.229443970, 96.390, 1607.0, 40.0874
37.255704535, 96.390, 1703.0, 41.2674
37.281965101, 96.390, 1710.0, 41.3521
37.308225666, 96.390, 1644.0, 40.5463
37.334486232, 96.390, 1610.0, 40.1248
37.360746797, 96.390, 1701.0, 41.2432
37.387007362, 96.390, 1725.0, 41.5331
37.413267928, 96.390, 1644.0, 40.5463
37.439528493, 96.390, 1802.0, 42.4500
37.465789058, 96.390, 1818.0, 42.6380
37.492049624, 96.390, 1854.0, 43.0581
37.518310189, 96.390, 1965.0, 44.3283
37.544570754, 96.390, 1992.0, 44.6318
37.570831320, 96.390, 1907.0, 43.6692
37.597091885, 96.390, 2016.0, 44.8999
37.623352450, 96.390, 2042.0, 45.1885
37.649613016, 96.390, 2098.0, 45.8039
37.675873581, 96.390, 1917.0, 43.7836
37.702134147, 96.390, 2083.0, 45.6399
37.728394712, 96.390, 2096.0, 45.7821
37.754655277, 96.390, 2125.0, 46.0977
37.780915843, 96.390, 2185.0, 46.7440
37.807176408, 96.390, 2210.0, 47.0106
37.833436973, 96.390, 2004.0, 44.7661
37.859697539, 96.390, 2188.0, 46.7761
37.885958104, 96.390, 2211.0, 47.0213
37.912218669, 96.390, 2192.0, 46.8188
37.938479235, 96.390, 2104.0, 45.8694
37.964739800, 96.390, 1997.0, 44.6878
37.991000365, 96.390, 2055.0, 45.3321
38.017260931, 96.390, 2002.0, 44.7437
38.043521496, 96.390, 1981.0, 44.5084
38.069782061, 96.390, 1962.0, 44.2945
38.096042627, 96.390, 1915.0, 43.7607
38.122303192, 96.390, 1943.0, 44.0795
38.148563758, 96.390, 1983.0, 44.5309
38.174824323, 96.390, 1889.0, 43.4626
38.201084888, 96.390, 2006.0, 44.7884
38.227345454, 96.390, 2021.0, 44.9555
38.253606019, 96.390, 1949.0, 44.1475
38.279866584, 96.390, 1792.0, 42.3320
38.306127150, 96.390, 1807.0, 42.5088
38.332387715, 96.390, 1731.0, 41.6053
38.358648280, 96.390, 1722.0, 41.4970
38.384908846, 96.390, 1661.0, 40.7554
38.411169411, 96.390, 1632.0, 40.3980
38.437429976, 96.390, 1705.0, 41.2916
38.463690542, 96.390, 1630.0, 40.3733
38.489951107, 96.390, 1655.0, 40.6817
38.516211673, 96.390, 1648.0, 40.5956
38.542472238, 96.390, 1687.0, 41.0731
38.568732803, 96.390, 1638.0, 40.4722
38.594993369, 96.390, 1648.0, 40.5956
38.621253934, 96.390, 1684.0, 41.0366
38.647514499, 96.390, 1628.0, 40.3485
38.673775065, 96.390, 1638.0, 40.4722
38.700035630, 96.390, 1759.0, 41.9404
38.726296195, 96.390, 1724.0, 41.5211
38.752556761, 96.390, 1745.0, 41.7732
38.778817326, 96.390, 1759.0, 41.9404
38.805077891, 96.390, 1857.0, 43.0929
38.831338457, 96.390, 1879.0, 43.3474
38.857599022, 96.390, 1742.0, 41.7373
38.883859587, 96.390, 1715.0, 41.4126
38.910120153, 96.390, 1757.0, 41.9166
38.936380718, 96.390, 1740.0, 41.7133
38.962641284, 96.390, 1697.0, 41.1947
38.988901849, 96.390, 1570.0, 39.6232
39.015162414, 96.390, 1650.0, 40.6202
39.041422980, 96.390, 1612.0, 40.1497
39.067683545, 96.390, 1635.0, 40.4351
39.093944110, 96.390, 1618.0, 40.2244
39.120204676, 96.390, 1578.0, 39.7240
39.146465241, 96.390, 1673.0, 40.9023
39.172725806, 96.390, 1596.0, 39.9500
39.198986372, 96.390, 1579.0, 39.7366
39.225246937, 96.390, 1699.0, 41.2189
39.251507502, 96.390, 1760.0, 41.9524
39.277768068, 96.390, 1712.0, 41.3763
39.304028633, 96.390, 1747.0, 41.7971
39.330289199, 96.390, 1765.0, 42.0119
39.356549764, 96.390, 1744.0, 41.7612
39.382810329, 96.390, 1769.0, 42.0595
39.409070895, 96.390, 1848.0, 42.9884
39.435331460, 96.390, 1876.0, 43.3128
39.461592025, 96.390, 2099.0, 45.8148
39.487852591, 96.390, 2073.0, 45.5302
39.514113156, 96.390, 1951.0, 44.1701
39.540373721, 96.390, 1824.0, 42.7083
39.566634287, 96.390, 1918.0, 43.7950
39.592894852, 96.390, 1833.0, 42.8135
39.619155417, 96.390, 1718.0, 41.4488
39.645415983, 96.390, 1694.0, 41.1582
39.671676548, 96.390, 1691.0, 41.1218
39.697937113, 96.390, 1680.0, 40.9878
39.724197679, 96.390, 1629.0, 40.3609
39.750458244, 96.390, 1662.0, 40.7676
39.776718810, 96.390, 1707.0, 41.3159
39.802979375, 96.390, 1710.0, 41.3521
39.829239940, 96.390, 1703.0, 41.2674
39.855500506, 96.390, 1784.0, 42.2374
39.881761071, 96.390, 1792.0, 42.3320
39.908021636, 96.390, 1801.0, 42.4382
39.934282202, 96.390, 1753.0, 41.8688
39.960542767, 96.390, 1763.0, 41.9881
39.986803332, 96.390, 1746.0, 41.7852
40.013063898, 96.390, 1805.0, 42.4853
40.039324463, 96.390, 1822.0, 42.6849
40.065585028, 96.390, 1846.0, 42.9651
40.091845594, 96.390, 1927.0, 43.8976
40.118106159, 96.390, 2029.0, 45.0444
40.144366725, 96.390, 1972.0, 44.4072
40.170627290, 96.390, 2081.0, 45.6180
40.196887855, 96.390, 1991.0, 44.6206
40.223148421, 96.390, 1974.0, 44.4297
40.249408986, 96.390, 2068.0, 45.4753
40.275669551, 96.390, 2049.0, 45.2659
40.301930117, 96.390, 2157.0, 46.4435
40.328190682, 96.390, 2166.0, 46.5403
40.354451247, 96.390, 2250.0, 47.4342
40.380711813, 96.390, 2452.0, 49.5177
40.406972378, 96.390, 2574.0, 50.7346
40.433232943, 96.390, 2806.0, 52.9717
40.459493509, 96.390, 2915.0, 53.9907
40.485754074, 96.390, 3271.0, 57.1927
40.512014639, 96.390, 3329.0, 57.6975
40.538275205, 96.390, 3473.0, 58.9322
40.564535770, 96.390, 3805.0, 61.6847
40.590796336, 96.390, 3875.0, 62.2495
40.617056901, 96.390, 4009.0, 63.3167
40.643317466, 96.390, 3898.0, 62.4340
40.669578032, 96.390, 3717.0, 60.9672
40.695838597, 96.390, 3538.0, 59.4811
40.722099162, 96.390, 3428.0, 58.5491
40.748359728, 96.390, 3048.0, 55.2087
40.774620293, 96.390, 2890.0, 53.7587
40.800880858, 96.390, 2528.0, 50.2792
40.827141424, 96.390, 2286.0, 47.8121
40.853401989, 96.390, 2140.0, 46.2601
40.879662554, 96.390, 1933.0, 43.9659
40.905923120, 96.390, 1830.0, 42.7785
40.932183685, 96.390, 1788.0, 42.2847
40.958444251, 96.390, 1670.0, 40.8656
40.984704816, 96.390, 1643.0, 40.5339
41.010965381, 96.390, 1519.0, 38.9744
41.037225947, 96.390, 1602.0, 40.0250
41.063486512, 96.390, 1646.0, 40.5709
41.089747077, 96.390, 1509.0, 38.8458
41.116007643, 96.390, 1427.0, 37.7757
41.142268208, 96.390, 1408.0, 37.5233
41.168528773, 96.390, 1378.0, 37.1214
41.194789339, 96.390, 1383.0, 37.1887
41.221049904, 96.390, 1428.0, 37.7889
41.247310469, 96.390, 1463.0, 38.2492
41.273571035, 96.390, 1364.0, 36.9324
41.299831600, 96.390, 1507.0, 38.8201
41.326092165, 96.390, 1465.0, 38.2753
41.352352731, 96.390, 1590.0, 39.8748
41.378613296, 96.390, 1653.0, 40.6571
41.404873862, 96.390, 1834.0, 42.8252
41.431134427, 96.390, 1913.0, 43.7379
41.457394992, 96.390, 1853.0, 43.0465
41.483655558, 96.390, 1606.0, 40.0749
41.509916123, 96.390, 1557.0, 39.4588
41.536176688, 96.390, 1584.0, 39.7995
41.562437254, 96.390, 1619.0, 40.2368
41.588697819, 96.390, 1525.0, 39.0512
41.614958384, 96.390, 1417.0, 37.6431
41.641218950, 96.390, 1399.0, 37.4032
41.667479515, 96.390, 1375.0, 37.0810
41.693740080, 96.390, 1462.0, 38.2361
41.720000646, 96.390, 1442.0, 37.9737
41.746261211, 96.390, 1408.0, 37.5233
41.772521776, 96.390, 1409.0, 37.5366
41.798782342, 96.390, 1421.0, 37.6962
41.825042907, 96.390, 1461.0, 38.2230
41.851303473, 96.390, 1508.0, 38.8330
41.877564038, 96.390, 1416.0, 37.6298
41.903824603, 96.390, 1388.0, 37.2559
41.930085169, 96.390, 1439.0, 37.9342
41.956345734, 96.390, 1315.0, 36.2629
41.982606299, 96.390, 1410.0, 37.5500
42.008866865, 96.390, 1320.0, 36.3318
42.035127430, 96.390, 1358.0, 36.8511
42.061387995, 96.390, 1431.0, 37.8286
42.087648561, 96.390, 1454.0, 38.1314
42.113909126, 96.390, 1573.0, 39.6611
42.140169691, 96.390, 1611.0, 40.1373
42.166430257, 96.390, 1724.0, 41.5211
42.192690822, 96.390, 1878.0, 43.3359
42.218951388, 96.390, 1810.0, 42.5441
42.245211953, 96.390, 1642.0, 40.5216
42.271472518, 96.390, 1599.0, 39.9875
42.297733084, 96.390, 1639.0, 40.4846
42.323993649, 96.390, 1575.0, 39.6863
42.350254214, 96.390, 1455.0, 38.1445
42.376514780, 96.390, 1327.0, 36.4280
42.402775345, 96.390, 1358.0, 36.8511
42.429035910, 96.390, 1299.0, 36.0416
42.455296476, 96.390, 1199.0, 34.6266
42.481557041, 96.390, 1215.0, 34.8569
42.507817606, 96.390, 1229.0, 35.0571
42.534078172, 96.390, 1294.0, 35.9722
42.560338737, 96.390, 1266.0, 35.5809
42.586599302, 96.390, 1346.0, 36.6879
42.612859868, 96.390, 1281.0, 35.7911
42.639120433, 96.390, 1273.0, 35.6791
42.665380999, 96.390, 1236.0, 35.1568
42.691641564, 96.390, 1246.0, 35.2987
42.717902129, 96.390, 1286.0, 35.8608
42.744162695, 96.390, 1349.0, 36.7287
42.770423260, 96.390, 1304.0, 36.1109
42.796683825, 96.390, 1292.0, 35.9444
42.822944391, 96.390, 1181.0, 34.3657
42.849204956, 96.390, 1189.0, 34.4819
42.875465521, 96.390, 1264.0, 35.5528
42.901726087, 96.390, 1153.0, 33.9559
42.927986652, 96.390, 1265.0, 35.5668
42.954247217, 96.390, 1149.0, 33.8969
42.980507783, 96.390, 1076.0, 32.8024
43.006768348, 96.390, 1153.0, 33.9559
43.033028914, 96.390, 1152.0, 33.9411
43.059289479, 96.390, 1193.0, 34.5398
43.085550044, 96.390, 1150.0, 33.9116
43.111810610, 96.390, 1210.0, 34.7851
43.138071175, 96.390, 1205.0, 34.7131
43.164331740, 96.390, 1169.0, 34.1906
43.190592306, 96.390, 1278.0, 35.7491
43.216852871, 96.390, 1259.0, 35.4824
43.243113436, 96.390, 1218.0, 34.8999
43.269374002, 96.390, 1216.0, 34.8712
43.295634567, 96.390, 1238.0, 35.1852
43.321895132, 96.390, 1170.0, 34.2053
43.348155698, 96.390, 1155.0, 33.9853
43.374416263, 96.390, 1158.0, 34.0294
43.400676828, 96.390, 1163.0, 34.1028
43.426937394, 96.390, 1115.0, 33.3916
43.453197959, 96.390, 1134.0, 33.6749
43.479458525, 96.390, 1066.0, 32.6497
43.505719090, 96.390, 1194.0, 34.5543
43.531979655, 96.390, 1156.0, 34.0000
43.558240221, 96.390, 1199.0, 34.6266
43.584500786, 96.390, 1224.0, 34.9857
43.610761351, 96.390, 1206.0, 34.7275
43.637021917, 96.390, 1246.0, 35.2987
43.663282482, 96.390, 1176.0, 34.2929
43.689543047, 96.390, 1325.0, 36.4005
43.715803613, 96.390, 1344.0, 36.6606
43.742064178, 96.390, 1432.0, 37.8418
43.768324743, 96.390, 1494.0, 38.6523
43.794585309, 96.390, 1624.0, 40.2989
43.820845874, 96.390, 1637.0, 40.4599
43.847106440, 96.390, 1528.0, 39.0896
43.873367005, 96.390, 1500.0, 38.7298
43.899627570, 96.390, 1398.0, 37.3898
43.925888136, 96.390, 1484.0, 38.5227
43.952148701, 96.390, 1431.0, 37.8286
43.978409266, 96.390, 1336.0, 36.5513
44.004669832, 96.390, 1277.0, 35.7351
44.030930397, 96.390, 1186.0, 34.4384
44.057190962, 96.390, 1320.0, 36.3318
44.083451528, 96.390, 1268.0, 35.6090
44.109712093, 96.390, 1225.0, 35.0000
44.135972658, 96.390, 1273.0, 35.6791
44.162233224, 96.390, 1234.0, 35.1283
44.188493789, 96.390, 1146.0, 33.8526
44.214754354, 96.390, 1232.0, 35.0999
44.241014920, 96.390, 1266.0, 35.5809
44.267275485, 96.390, 1276.0, 35.7211
44.293536051, 96.390, 1239.0, 35.1994
44.319796616, 96.390, 1269.0, 35.6230
44.346057181, 96.390, 1406.0, 37.4967
44.372317747, 96.390, 1432.0, 37.8418
44.398578312, 96.390, 1425.0, 37.7492
44.424838877, 96.390, 1452.0, 38.1051
44.451099443, 96.390, 1410.0, 37.5500
44.477360008, 96.390, 1375.0, 37.0810
44.503620573, 96.390, 1357.0, 36.8375
44.529881139, 96.390, 1293.0, 35.9583
44.556141704, 96.390, 1318.0, 36.3043
44.582402269, 96.390, 1275.0, 35.7071
44.608662835, 96.390, 1268.0, 35.6090
44.634923400, 96.390, 1304.0, 36.1109
44.661183966, 96.390, 1235.0, 35.1426
44.687444531, 96.390, 1184.0, 34.4093
44.713705096, 96.390, 1248.0, 35.3270
44.739965662, 96.390, 1243.0, 35.2562
44.766226227, 96.390, 1180.0, 34.3511
44.792486792, 96.390, 1289.0, 35.9026
44.818747358, 96.390, 1312.0, 36.2215
44.845007923, 96.390, 1328.0, 36.4417
44.871268488, 96.390, 1295.0, 35.9861
44.897529054, 96.390, 1258.0, 35.4683
44.923789619, 96.390, 1291.0, 35.9305
44.950050184, 96.390, 1242.0, 35.2420
44.976310750, 96.390, 1331.0, 36.4829
45.002571315, 96.390, 1220.0, 34.9285
45.028831880, 96.390, 1220.0, 34.9285
45.055092446, 96.390, 1287.0, 35.8748
45.081353011, 96.390, 1281.0, 35.7911
45.107613577, 96.390, 1314.0, 36.2491
45.133874142, 96.390, 1448.0, 38.0526
45.160134707, 96.390, 1507.0, 38.8201
45.186395273, 96.390, 1473.0, 38.3797
45.212655838, 96.390, 1439.0, 37.9342
45.238916403, 96.390, 1380.0, 37.1484
45.265176969, 96.390, 1372.0, 37.0405
45.291437534, 96.390, 1495.0, 38.6652
45.317698099, 96.390, 1474.0, 38.3927
45.343958665, 96.390, 1477.0, 38.4318
45.370219230, 96.390, 1529.0, 39.1024
45.396479795, 96.390, 1437.0, 37.9078
45.422740361, 96.390, 1398.0, 37.3898
45.449000926, 96.390, 1484.0, 38.5227
45.475261492, 96.390, 1497.0, 38.6911
45.501522057, 96.390, 1588.0, 39.8497
45.527782622, 96.390, 1576.0, 39.6989
45.554043188, 96.390, 1472.0, 38.3667
45.580303753, 96.390, 1443.0, 37.9868
45.606564318, 96.390, 1421.0, 37.6962
45.632824884, 96.390, 1484.0, 38.5227
45.659085449, 96.390, 1424.0, 37.7359
45.685346014, 96.390, 1368.0, 36.9865
45.711606580, 96.390, 1434.0, 37.8682
45.737867145, 96.390, 1395.0, 37.3497
45.764127710, 96.390, 1304.0, 36.1109
45.790388276, 96.390, 1328.0, 36.4417
45.816648841, 96.390, 1310.0, 36.1939
45.842909406, 96.390, 1294.0, 35.9722
45.869169972, 96.390, 1316.0, 36.2767
45.895430537, 96.390, 1352.0, 36.7696
45.921691103, 96.390, 1338.0, 36.5787
45.947951668, 96.390, 1379.0, 37.1349
45.974212233, 96.390, 1324.0, 36.3868
46.000472799, 96.390, 1295.0, 35.9861
46.026733364, 96.390, 1351.0, 36.7560
46.052993929, 96.390, 1399.0, 37.4032
46.079254495, 96.390, 1342.0, 36.6333
46.105515060, 96.390, 1396.0, 37.3631
46.131775625, 96.390, 1450.0, 38.0789
46.158036191, 96.390, 1360.0, 36.8782
46.184296756, 96.390, 1521.0, 39.0000
46.210557321, 96.390, 1567.0, 39.5854
46.236817887, 96.390, 1665.0, 40.8044
46.263078452, 96.390, 1637.0, 40.4599
46.289339017, 96.390, 1715.0, 41.4126
46.315599583, 96.390, 1654.0, 40.6694
46.341860148, 96.390, 1630.0, 40.3733
46.368120714, 96.390, 1532.0, 39.1408
46.394381279, 96.390, 1585.0, 39.8121
46.420641844, 96.390, 1552.0, 39.3954
46.446902410, 96.390, 1466.0, 38.2884
46.473162975, 96.390, 1398.0, 37.3898
46.499423540, 96.390, 1376.0, 37.0945
46.525684106, 96.390, 1285.0, 35.8469
46.551944671, 96.390, 1263.0, 35.5387
46.578205236, 96.390, 1359.0, 36.8646
46.604465802, 96.390, 1295.0, 35.9861
46.630726367, 96.390, 1264.0, 35.5528
46.656986932, 96.390, 1310.0, 36.1939
46.683247498, 96.390, 1283.0, 35.8190
46.709508063, 96.390, 1256.0, 35.4401
46.735768629, 96.390, 1355.0, 36.8103
46.762029194, 96.390, 1286.0, 35.8608
46.788289759, 96.390, 1284.0, 35.8329
46.814550325, 96.390, 1240.0, 35.2136
46.840810890, 96.390, 1322.0, 36.3593
46.867071455, 96.390, 1330.0, 36.4692
46.893332021, 96.390, 1297.0, 36.0139
46.919592586, 96.390, 1242.0, 35.2420
46.945853151, 96.390, 1283.0, 35.8190
46.972113717, 96.390, 1273.0, 35.6791
46.998374282, 96.390, 1377.0, 37.1080
47.024634847, 96.390, 1346.0, 36.6879
47.050895413, 96.390, 1383.0, 37.1887
47.077155978, 96.390, 1265.0, 35.5668
47.103416543, 96.390, 1310.0, 36.1939
47.129677109, 96.390, 1284.0, 35.8329
47.155937674, 96.390, 1250.0, 35.3553
47.182198240, 96.390, 1292.0, 35.9444
47.208458805, 96.390, 1239.0, 35.1994
47.234719370, 96.390, 1294.0, 35.9722
47.260979936, 96.390, 1282.0, 35.8050
47.287240501, 96.390, 1272.0, 35.6651
47.313501066, 96.390, 1300.0, 36.0555
47.339761632, 96.390, 1277.0, 35.7351
47.366022197, 96.390, 1293.0, 35.9583
47.392282762, 96.390, 1307.0, 36.1525
47.418543328, 96.390, 1291.0, 35.9305
47.444803893, 96.390, 1258.0, 35.4683
47.471064458, 96.390, 1291.0, 35.9305
47.497325024, 96.390, 1358.0, 36.8511
47.523585589, 96.390, 1369.0, 37.0000
47.549846155, 96.390, 1365.0, 36.9459
47.576106720, 96.390, 1295.0, 35.9861
47.602367285, 96.390, 1282.0, 35.8050
47.628627851, 96.390, 1281.0, 35.7911
47.654888416, 96.390, 1308.0, 36.1663
47.681148981, 96.390, 1260.0, 35.4965
47.707409547, 96.390, 1255.0, 35.4260
47.733670112, 96.390, 1276.0, 35.7211
47.759930677, 96.390, 1256.0, 35.4401
47.786191243, 96.390, 1277.0, 35.7351
47.812451808, 96.390, 1355.0, 36.8103
47.838712373, 96.390, 1339.0, 36.5923
47.864972939, 96.390, 1372.0, 37.0405
47.891233504, 96.390, 1239.0, 35.1994
47.917494069, 96.390, 1293.0, 35.9583
47.943754635, 96.390, 1280.0, 35.7771
47.970015200, 96.390, 1185.0, 34.4238
47.996275766, 96.390, 1191.0, 34.5109
48.022536331, 96.390, 1202.0, 34.6699
48.048796896, 96.390, 1216.0, 34.8712
48.075057462, 96.390, 1258.0, 35.4683
48.101318027, 96.390, 1247.0, 35.3129
48.127578592, 96.390, 1282.0, 35.8050
48.153839158, 96.390, 1331.0, 36.4829
48.180099723, 96.390, 1332.0, 36.4966
48.206360288, 96.390, 1227.0, 35.0286
48.232620854, 96.390, 1296.0, 36.0000
48.258881419, 96.390, 1263.0, 35.5387
48.285141984, 96.390, 1301.0, 36.0694
48.311402550, 96.390, 1213.0, 34.8281
48.337663115, 96.390, 1172.0, 34.2345
48.363923681, 96.390, 1295.0, 35.9861
48.390184246, 96.390, 1292.0, 35.9444
48.416444811, 96.390, 1344.0, 36.6606
48.442705377, 96.390, 1369.0, 37.0000
48.468965942, 96.390, 1504.0, 38.7814
48.495226507, 96.390, 1498.0, 38.7040
48.521487073, 96.390, 1588.0, 39.8497
48.547747638, 96.390, 1556.0, 39.4462
48.574008203, 96.390, 1502.0, 38.7556
48.600268769, 96.390, 1459.0, 38.1969
48.626529334, 96.390, 1328.0, 36.4417
48.652789899, 96.390, 1370.0, 37.0135
48.679050465, 96.390, 1296.0, 36.0000
48.705311030, 96.390, 1259.0, 35.4824
48.731571595, 96.390, 1272.0, 35.6651
48.757832161, 96.390, 1178.0, 34.3220
48.784092726, 96.390, 1164.0, 34.1174
48.810353292, 96.390, 1141.0, 33.7787
48.836613857, 96.390, 1173.0, 34.2491
48.862874422, 96.390, 1166.0, 34.1467
48.889134988, 96.390, 1195.0, 34.5688
48.915395553, 96.390, 1191.0, 34.5109
48.941656118, 96.390, 1146.0, 33.8526
48.967916684, 96.390, 1211.0, 34.7994
48.994177249, 96.390, 1172.0, 34.2345
49.020437814, 96.390, 1146.0, 33.8526
49.046698380, 96.390, 1177.0, 34.3074
49.072958945, 96.390, 1196.0, 34.5832
49.099219510, 96.390, 1253.0, 35.3977
49.125480076, 96.390, 1186.0, 34.4384
49.151740641, 96.390, 1296.0, 36.0000
49.178001207, 96.390, 1326.0, 36.4143
49.204261772, 96.390, 1211.0, 34.7994
49.230522337, 96.390, 1280.0, 35.7771
49.256782903, 96.390, 1299.0, 36.0416
49.283043468, 96.390, 1225.0, 35.0000
49.309304033, 96.390, 1187.0, 34.4529
49.335564599, 96.390, 1135.0, 33.6898
49.361825164, 96.390, 1175.0, 34.2783
49.388085729, 96.390, 1117.0, 33.4215
49.414346295, 96.390, 1207.0, 34.7419
49.440606860, 96.390, 1111.0, 33.3317
49.466867425, 96.390, 1092.0, 33.0454
49.493127991, 96.390, 1075.0, 32.7872
49.519388556, 96.390, 1108.0, 33.2866
49.545649121, 96.390, 1097.0, 33.1210
49.571909687, 96.390, 1145.0, 33.8378
49.598170252, 96.390, 1130.0, 33.6155
49.624430818, 96.390, 1157.0, 34.0147
49.650691383, 96.390, 1142.0, 33.7935
49.676951948, 96.390, 1163.0, 34.1028
49.703212514, 96.390, 1063.0, 32.6037
49.729473079, 96.390, 1133.0, 33.6601
49.755733644, 96.390, 1088.0, 32.9848
49.781994210, 96.390, 1085.0, 32.9393
49.808254775, 96.390, 1155.0, 33.9853
49.834515340, 96.390, 1132.0, 33.6452
49.860775906, 96.390, 1122.0, 33.4963
49.887036471, 96.390, 1110.0, 33.3167
49.913297036, 96.390, 1108.0, 33.2866
49.939557602, 96.390, 1016.0, 31.8748
49.965818167, 96.390, 1108.0, 33.2866
49.992078732, 96.390, 1081.0, 32.8786
50.018339298, 96.390, 1044.0, 32.3110
50.044599863, 96.390, 1077.0, 32.8177
50.070860429, 96.390, 1068.0, 32.6803
50.097120994, 96.390, 1072.0, 32.7414
50.123381559, 96.390, 1064.0, 32.6190
50.149642125, 96.390, 1077.0, 32.8177
50.175902690, 96.390, 1033.0, 32.1403
50.202163255, 96.390, 1046.0, 32.3419
50.228423821, 96.390, 1078.0, 32.8329
50.254684386, 96.390, 1107.0, 33.2716
50.280944951, 96.390, 1230.0, 35.0714
50.307205517, 96.390, 1232.0, 35.0999
50.333466082, 96.390, 1173.0, 34.2491
50.359726647, 96.390, 1148.0, 33.8821
50.385987213, 96.390, 1136.0, 33.7046
50.412247778, 96.390, 1124.0, 33.5261
50.438508344, 96.390, 1234.0, 35.1283
50.464768909, 96.390, 1185.0, 34.4238
50.491029474, 96.390, 1271.0, 35.6511
50.517290040, 96.390, 1261.0, 35.5106
50.543550605, 96.390, 1281.0, 35.7911
50.569811170, 96.390, 1269.0, 35.6230
50.596071736, 96.390, 1231.0, 35.0856
50.622332301, 96.390, 1200.0, 34.6410
50.648592866, 96.390, 1160.0, 34.0588
50.674853432, 96.390, 1171.0, 34.2199
50.701113997, 96.390, 1124.0, 33.5261
50.727374562, 96.390, 1158.0, 34.0294
50.753635128, 96.390, 1163.0, 34.1028
50.779895693, 96.390, 1114.0, 33.3766
50.806156258, 96.390, 1109.0, 33.3017
50.832416824, 96.390, 1106.0, 33.2566
50.858677389, 96.390, 1095.0, 33.0908
50.884937955, 96.390, 1136.0, 33.7046
50.911198520, 96.390, 1110.0, 33.3167
50.937459085, 96.390, 1123.0, 33.5112
50.963719651, 96.390, 1111.0, 33.3317
50.989980216, 96.390, 1035.0, 32.1714
51.016240781, 96.390, 1175.0, 34.2783
51.042501347, 96.390, 1201.0, 34.6554
51.068761912, 96.390, 1144.0, 33.8231
51.095022477, 96.390, 1219.0, 34.9142
51.121283043, 96.390, 1194.0, 34.5543
51.147543608, 96.390, 1218.0, 34.8999
51.173804173, 96.390, 1168.0, 34.1760
51.200064739, 96.390, 1188.0, 34.4674
51.226325304, 96.390, 1164.0, 34.1174
51.252585870, 96.390, 1222.0, 34.9571
51.278846435, 96.390, 1138.0, 33.7343
51.305107000, 96.390, 1153.0, 33.9559
51.331367566, 96.390, 1140.0, 33.7639
51.357628131, 96.390, 1111.0, 33.3317
51.383888696, 96.390, 1049.0, 32.3883
51.410149262, 96.390, 1079.0, 32.8481
51.436409827, 96.390, 1085.0, 32.9393
51.462670392, 96.390, 1068.0, 32.6803
51.488930958, 96.390, 997.0, 31.5753
51.515191523, 96.390, 962.0, 31.0161
51.541452088, 96.390, 1016.0, 31.8748
51.567712654, 96.390, 1007.0, 31.7333
51.593973219, 96.390, 969.0, 31.1288
51.620233784, 96.390, 972.0, 31.1769
51.646494350, 96.390, 987.0, 31.4166
51.672754915, 96.390, 996.0, 31.5595
51.699015481, 96.390, 962.0, 31.0161
51.725276046, 96.390, 997.0, 31.5753
51.751536611, 96.390, 1038.0, 32.2180
51.777797177, 96.390, 966.0, 31.0805
51.804057742, 96.390, 1077.0, 32.8177
51.830318307, 96.390, 1099.0, 33.1512
51.856578873, 96.390, 1110.0, 33.3167
51.882839438, 96.390, 1121.0, 33.4813
51.909100003, 96.390, 1045.0, 32.3265
51.935360569, 96.390, 1136.0, 33.7046
51.961621134, 96.390, 1057.0, 32.5115
51.987881699, 96.390, 1107.0, 33.2716
52.014142265, 96.390, 1103.0, 33.2114
52.040402830, 96.390, 1119.0, 33.4515
52.066663396, 96.390, 1133.0, 33.6601
52.092923961, 96.390, 1085.0, 32.9393
52.119184526, 96.390, 1108.0, 33.2866
52.145445092, 96.390, 1109.0, 33.3017
52.171705657, 96.390, 1141.0, 33.7787
52.197966222, 96.390, 1130.0, 33.6155
52.224226788, 96.390, 1218.0, 34.8999
52.250487353, 96.390, 1237.0, 35.1710
52.276747918, 96.390, 1235.0, 35.1426
52.303008484, 96.390, 1253.0, 35.3977
52.329269049, 96.390, 1266.0, 35.5809
52.355529614, 96.390, 1214.0, 34.8425
52.381790180, 96.390, 1213.0, 34.8281
52.408050745, 96.390, 1179.0, 34.3366
52.434311310, 96.390, 1119.0, 33.4515
52.460571876, 96.390, 1137.0, 33.7194
52.486832441, 96.390, 1189.0, 34.4819
52.513093007, 96.390, 1154.0, 33.9706
52.539353572, 96.390, 1079.0, 32.8481
52.565614137, 96.390, 1155.0, 33.9853
52.591874703, 96.390, 1092.0, 33.0454
52.618135268, 96.390, 1146.0, 33.8526
52.644395833, 96.390, 1145.0, 33.8378
52.670656399, 96.390, 1096.0, 33.1059
52.696916964, 96.390, 1212.0, 34.8138
52.723177529, 96.390, 1178.0, 34.3220
52.749438095, 96.390, 1143.0, 33.8083
52.775698660, 96.390, 1177.0, 34.3074
52.801959225, 96.390, 1250.0, 35.3553
52.828219791, 96.390, 1237.0, 35.1710
52.854480356, 96.390, 1284.0, 35.8329
52.880740922, 96.390, 1415.0, 37.6165
52.907001487, 96.390, 1390.0, 37.2827
52.933262052, 96.390, 1446.0, 38.0263
52.959522618, 96.390, 1470.0, 38.3406
52.985783183, 96.390, 1504.0, 38.7814
53.012043748, 96.390, 1519.0, 38.9744
53.038304314, 96.390, 1630.0, 40.3733
53.064564879, 96.390, 1682.0, 41.0122
53.090825444, 96.390, 1684.0, 41.0366
53.117086010, 96.390, 1738.0, 41.6893
53.143346575, 96.390, 1869.0, 43.2319
53.169607140, 96.390, 1850.0, 43.0116
53.195867706, 96.390, 1861.0, 43.1393
53.222128271, 96.390, 1764.0, 42.0000
53.248388836, 96.390, 1866.0, 43.1972
53.274649402, 96.390, 1755.0, 41.8927
53.300909967, 96.390, 1641.0, 40.5093
53.327170533, 96.390, 1578.0, 39.7240
53.353431098, 96.390, 1578.0, 39.7240
53.379691663, 96.390, 1435.0, 37.8814
53.405952229, 96.390, 1405.0, 37.4833
53.432212794, 96.390, 1377.0, 37.1080
53.458473359, 96.390, 1326.0, 36.4143
53.484733925, 96.390, 1203.0, 34.6843
53.510994490, 96.390, 1186.0, 34.4384
53.537255055, 96.390, 1260.0, 35.4965
53.563515621, 96.390, 1093.0, 33.0606
53.589776186, 96.390, 1172.0, 34.2345
53.616036751, 96.390, 1059.0, 32.5423
53.642297317, 96.390, 1088.0, 32.9848
53.668557882, 96.390, 1034.0, 32.1559
53.694818448, 96.390, 1031.0, 32.1092
53.721079013, 96.390, 979.0, 31.2890
53.747339578, 96.390, 1007.0, 31.7333
53.773600144, 96.390, 977.0, 31.2570
53.799860709, 96.390, 1069.0, 32.6956
53.826121274, 96.390, 972.0, 31.1769
53.852381840, 96.390, 991.0, 31.4802
53.878642405, 96.390, 1072.0, 32.7414
53.904902970, 96.390, 1073.0, 32.7567
53.931163536, 96.390, 1202.0, 34.6699
53.957424101, 96.390, 1123.0, 33.5112
53.983684666, 96.390, 1216.0, 34.8712
54.009945232, 96.390, 1112.0, 33.3467
54.036205797, 96.390, 1133.0, 33.6601
54.062466362, 96.390, 1137.0, 33.7194
54.088726928, 96.390, 1131.0, 33.6303
54.114987493, 96.390, 1134.0, 33.6749
54.141248059, 96.390, 1176.0, 34.2929
54.167508624, 96.390, 1190.0, 34.4964
54.193769189, 96.390, 1161.0, 34.0735
54.220029755, 96.390, 1111.0, 33.3317
54.246290320, 96.390, 1168.0, 34.1760
54.272550885, 96.390, 1117.0, 33.4215
54.298811451, 96.390, 1148.0, 33.8821
54.325072016, 96.390, 1103.0, 33.2114
54.351332581, 96.390, 1208.0, 34.7563
54.377593147, 96.390, 1111.0, 33.3317
54.403853712, 96.390, 1089.0, 33.0000
54.430114277, 96.390, 1098.0, 33.1361
54.456374843, 96.390, 1065.0, 32.6343
54.482635408, 96.390, 1045.0, 32.3265
54.508895973, 96.390, 968.0, 31.1127
54.535156539, 96.390, 971.0, 31.1609
54.561417104, 96.390, 956.0, 30.9192
54.587677670, 96.390, 989.0, 31.4484
54.613938235, 96.390, 994.0, 31.5278
54.640198800, 96.390, 949.0, 30.8058
54.666459366, 96.390, 874.0, 29.5635
54.692719931, 96.390, 904.0, 30.0666
54.718980496, 96.390, 827.0, 28.7576
54.745241062, 96.390, 910.0, 30.1662
54.771501627, 96.390, 894.0, 29.8998
54.797762192, 96.390, 855.0, 29.2404
54.824022758, 96.390, 819.0, 28.6182
54.850283323, 96.390, 855.0, 29.2404
54.876543888, 96.390, 809.0, 28.4429
54.902804454, 96.390, 841.0, 29.0000
54.929065019, 96.390, 824.0, 28.7054
54.955325585, 96.390, 891.0, 29.8496
54.981586150, 96.390, 842.0, 29.0172
55.007846715, 96.390, 800.0, 28.2843
55.034107281, 96.390, 886.0, 29.7658
55.060367846, 96.390, 841.0, 29.0000
55.086628411, 96.390, 784.0, 28.0000
55.112888977, 96.390, 843.0, 29.0345
55.139149542, 96.390, 803.0, 28.3373
55.165410107, 96.390, 824.0, 28.7054
55.191670673, 96.390, 749.0, 27.3679
55.217931238, 96.390, 834.0, 28.8791
55.244191803, 96.390, 804.0, 28.3549
55.270452369, 96.390, 775.0, 27.8388
55.296712934, 96.390, 859.0, 29.3087
55.322973499, 96.390, 804.0, 28.3549
55.349234065, 96.390, 829.0, 28.7924
55.375494630, 96.390, 864.0, 29.3939
55.401755196, 96.390, 859.0, 29.3087
55.428015761, 96.390, 921.0, 30.3480
55.454276326, 96.390, 903.0, 30.0500
55.480536892, 96.390, 910.0, 30.1662
55.506797457, 96.390, 905.0, 30.0832
55.533058022, 96.390, 942.0, 30.6920
55.559318588, 96.390, 942.0, 30.6920
55.585579153, 96.390, 931.0, 30.5123
55.611839718, 96.390, 944.0, 30.7246
55.638100284, 96.390, 902.0, 30.0333
55.664360849, 96.390, 871.0, 29.5127
55.690621414, 96.390, 831.0, 28.8271
55.716881980, 96.390, 825.0, 28.7228
55.743142545, 96.390, 899.0, 29.9833
55.769403111, 96.390, 898.0, 29.9666
55.795663676, 96.390, 989.0, 31.4484
55.821924241, 96.390, 898.0, 29.9666
55.848184807, 96.390, 901.0, 30.0167
55.874445372, 96.390, 934.0, 30.5614
55.900705937, 96.390, 901.0, 30.0167
55.926966503, 96.390, 864.0, 29.3939
55.953227068, 96.390, 897.0, 29.9500
55.979487633, 96.390, 925.0, 30.4138
56.005748199, 96.390, 929.0, 30.4795
56.032008764, 96.390, 925.0, 30.4138
56.058269329, 96.390, 958.0, 30.9516
56.084529895, 96.390, 926.0, 30.4302
56.110790460, 96.390, 981.0, 31.3209
56.137051025, 96.390, 968.0, 31.1127
56.163311591, 96.390, 960.0, 30.9839
56.189572156, 96.390, 885.0, 29.7489
56.215832722, 96.390, 921.0, 30.3480
56.242093287, 96.390, 955.0, 30.9031
56.268353852, 96.390, 911.0, 30.1828
56.294614418, 96.390, 972.0, 31.1769
56.320874983, 96.390, 873.0, 29.5466
56.347135548, 96.390, 862.0, 29.3598
56.373396114, 96.390, 858.0, 29.2916
56.399656679, 96.390, 923.0, 30.3809
56.425917244, 96.390, 814.0, 28.5307
56.452177810, 96.390, 888.0, 29.7993
56.478438375, 96.390, 871.0, 29.5127
56.504698940, 96.390, 895.0, 29.9166
56.530959506, 96.390, 874.0, 29.5635
56.557220071, 96.390, 885.0, 29.7489
56.583480637, 96.390, 837.0, 28.9310
56.609741202, 96.390, 819.0, 28.6182
56.636001767, 96.390, 818.0, 28.6007
56.662262333, 96.390, 808.0, 28.4253
56.688522898, 96.390, 809.0, 28.4429
56.714783463, 96.390, 860.0, 29.3258
56.741044029, 96.390, 809.0, 28.4429
56.767304594, 96.390, 832.0, 28.8444
56.793565159, 96.390, 811.0, 28.4781
56.819825725, 96.390, 818.0, 28.6007
56.846086290, 96.390, 762.0, 27.6043
56.872346855, 96.390, 806.0, 28.3901
56.898607421, 96.390, 775.0, 27.8388
56.924867986, 96.390, 794.0, 28.1780
56.951128551, 96.390, 823.0, 28.6880
56.977389117, 96.390, 771.0, 27.7669
57.003649682, 96.390, 794.0, 28.1780
57.029910248, 96.390, 831.0, 28.8271
57.056170813, 96.390, 767.0, 27.6948
57.082431378, 96.390, 834.0, 28.8791
57.108691944, 96.390, 805.0, 28.3725
57.134952509, 96.390, 899.0, 29.9833
57.161213074, 96.390, 938.0, 30.6268
57.187473640, 96.390, 903.0, 30.0500
57.213734205, 96.390, 905.0, 30.0832
57.239994770, 96.390, 944.0, 30.7246
57.266255336, 96.390, 946.0, 30.7571
57.292515901, 96.390, 950.0, 30.8221
57.318776466, 96.390, 1004.0, 31.6860
57.345037032, 96.390, 983.0, 31.3528
57.371297597, 96.390, 982.0, 31.3369
57.397558163, 96.390, 957.0, 30.9354
57.423818728, 96.390, 953.0, 30.8707
57.450079293, 96.390, 914.0, 30.2324
57.476339859, 96.390, 947.0, 30.7734
57.502600424, 96.390, 900.0, 30.0000
57.528860989, 96.390, 906.0, 30.0998
57.555121555, 96.390, 932.0, 30.5287
57.581382120, 96.390, 879.0, 29.6479
57.607642685, 96.390, 839.0, 28.9655
57.633903251, 96.390, 897.0, 29.9500
57.660163816, 96.390, 911.0, 30.1828
57.686424381, 96.390, 948.0, 30.7896
57.712684947, 96.390, 941.0, 30.6757
57.738945512, 96.390, 922.0, 30.3645
57.765206077, 96.390, 862.0, 29.3598
57.791466643, 96.390, 892.0, 29.8664
57.817727208, 96.390, 907.0, 30.1164
57.843987774, 96.390, 895.0, 29.9166
57.870248339, 96.390, 879.0, 29.6479
57.896508904, 96.390, 837.0, 28.9310
57.922769470, 96.390, 854.0, 29.2233
57.949030035, 96.390, 887.0, 29.7825
57.975290600, 96.390, 918.0, 30.2985
58.001551166, 96.390, 895.0, 29.9166
58.027811731, 96.390, 924.0, 30.3974
58.054072296, 96.390, 961.0, 31.0000
58.080332862, 96.390, 971.0, 31.1609
58.106593427, 96.390, 1040.0, 32.2490
58.132853992, 96.390, 967.0, 31.0966
58.159114558, 96.390, 894.0, 29.8998
58.185375123, 96.390, 854.0, 29.2233
58.211635689, 96.390, 846.0, 29.0861
58.237896254, 96.390, 857.0, 29.2746
58.264156819, 96.390, 910.0, 30.1662
58.290417385, 96.390, 853.0, 29.2062
58.316677950, 96.390, 905.0, 30.0832
58.342938515, 96.390, 791.0, 28.1247
58.369199081, 96.390, 831.0, 28.8271
58.395459646, 96.390, 791.0, 28.1247
58.421720211, 96.390, 808.0, 28.4253
58.447980777, 96.390, 785.0, 28.0179
58.474241342, 96.390, 808.0, 28.4253
58.500501907, 96.390, 852.0, 29.1890
58.526762473, 96.390, 844.0, 29.0517
58.553023038, 96.390, 798.0, 28.2489
58.579283603, 96.390, 881.0, 29.6816
58.605544169, 96.390, 869.0, 29.4788
58.631804734, 96.390, 887.0, 29.7825
58.658065300, 96.390, 943.0, 30.7083
58.684325865, 96.390, 836.0, 28.9137
58.710586430, 96.390, 972.0, 31.1769
58.736846996, 96.390, 893.0, 29.8831
58.763107561, 96.390, 862.0, 29.3598
58.789368126, 96.390, 837.0, 28.9310
58.815628692, 96.390, 850.0, 29.1548
58.841889257, 96.390, 881.0, 29.6816
58.868149822, 96.390, 853.0, 29.2062
58.894410388, 96.390, 820.0, 28.6356
58.920670953, 96.390, 858.0, 29.2916
58.946931518, 96.390, 848.0, 29.1204
58.973192084, 96.390, 844.0, 29.0517
58.999452649, 96.390, 829.0, 28.7924
59.025713214, 96.390, 867.0, 29.4449
59.051973780, 96.390, 840.0, 28.9828
59.078234345, 96.390, 836.0, 28.9137
59.104494911, 96.390, 899.0, 29.9833
59.130755476, 96.390, 912.0, 30.1993
59.157016041, 96.390, 849.0, 29.1376
59.183276607, 96.390, 914.0, 30.2324
59.209537172, 96.390, 866.0, 29.4279
59.235797737, 96.390, 884.0, 29.7321
59.262058303, 96.390, 932.0, 30.5287
59.288318868, 96.390, 966.0, 31.0805
59.314579433, 96.390, 933.0, 30.5450
59.340839999, 96.390, 942.0, 30.6920
59.367100564, 96.390, 942.0, 30.6920
59.393361129, 96.390, 933.0, 30.5450
59.419621695, 96.390, 956.0, 30.9192
59.445882260, 96.390, 913.0, 30.2159
59.472142826, 96.390, 952.0, 30.8545
59.498403391, 96.390, 938.0, 30.6268
59.524663956, 96.390, 902.0, 30.0333
59.550924522, 96.390, 907.0, 30.1164
59.577185087, 96.390, 934.0, 30.5614
59.603445652, 96.390, 885.0, 29.7489
59.629706218, 96.390, 898.0, 29.9666
59.655966783, 96.390, 892.0, 29.8664
59.682227348, 96.390, 890.0, 29.8329
59.708487914, 96.390, 879.0, 29.6479
59.734748479, 96.390, 886.0, 29.7658
59.761009044, 96.390, 849.0, 29.1376
59.787269610, 96.390, 857.0, 29.2746
59.813530175, 96.390, 914.0, 30.2324
59.839790740, 96.390, 851.0, 29.1719
59.866051306, 96.390, 877.0, 29.6142
59.892311871, 96.390, 798.0, 28.2489
59.918572437, 96.390, 845.0, 29.0689
59.944833002, 96.390, 875.0, 29.5804
59.971093567, 96.390, 876.0, 29.5973
59.997354133, 96.390, 899.0, 29.9833
60.023614698, 96.390, 918.0, 30.2985
60.049875263, 96.390, 852.0, 29.1890
60.076135829, 96.390, 866.0, 29.4279
60.102396394, 96.390, 861.0, 29.3428
60.128656959, 96.390, 884.0, 29.7321
60.154917525, 96.390, 981.0, 31.3209
60.181178090, 96.390, 913.0, 30.2159
60.207438655, 96.390, 855.0, 29.2404
60.233699221, 96.390, 923.0, 30.3809
60.259959786, 96.390, 950.0, 30.8221
60.286220352, 96.390, 961.0, 31.0000
60.312480917, 96.390, 879.0, 29.6479
60.338741482, 96.390, 965.0, 31.0644
60.365002048, 96.390, 951.0, 30.8383
60.391262613, 96.390, 1008.0, 31.7490
60.417523178, 96.390, 1007.0, 31.7333
60.443783744, 96.390, 998.0, 31.5911
60.470044309, 96.390, 1023.0, 31.9844
60.496304874, 96.390, 1003.0, 31.6702
60.522565440, 96.390, 1022.0, 31.9687
60.548826005, 96.390, 1093.0, 33.0606
60.575086570, 96.390, 1074.0, 32.7719
60.601347136, 96.390, 1078.0, 32.8329
60.627607701, 96.390, 1118.0, 33.4365
60.653868266, 96.390, 1159.0, 34.0441
60.680128832, 96.390, 1210.0, 34.7851
60.706389397, 96.390, 1187.0, 34.4529
60.732649963, 96.390, 1206.0, 34.7275
60.758910528, 96.390, 1272.0, 35.6651
60.785171093, 96.390, 1215.0, 34.8569
60.811431659, 96.390, 1261.0, 35.5106
60.837692224, 96.390, 1319.0, 36.3180
60.863952789, 96.390, 1279.0, 35.7631
60.890213355, 96.390, 1263.0, 35.5387
60.916473920, 96.390, 1311.0, 36.2077
60.942734485, 96.390, 1314.0, 36.2491
60.968995051, 96.390, 1303.0, 36.0971
60.995255616, 96.390, 1302.0, 36.0832
61.021516181, 96.390, 1377.0, 37.1080
61.047776747, 96.390, 1306.0, 36.1386
61.074037312, 96.390, 1252.0, 35.3836
61.100297878, 96.390, 1265.0, 35.5668
61.126558443, 96.390, 1330.0, 36.4692
61.152819008, 96.390, 1314.0, 36.2491
61.179079574, 96.390, 1316.0, 36.2767
61.205340139, 96.390, 1303.0, 36.0971
61.231600704, 96.390, 1266.0, 35.5809
61.257861270, 96.390, 1275.0, 35.7071
61.284121835, 96.390, 1247.0, 35.3129
61.310382400, 96.390, 1218.0, 34.8999
61.336642966, 96.390, 1302.0, 36.0832
61.362903531, 96.390, 1229.0, 35.0571
61.389164096, 96.390, 1135.0, 33.6898
61.415424662, 96.390, 1123.0, 33.5112
61.441685227, 96.390, 1194.0, 34.5543
61.467945792, 96.390, 1196.0, 34.5832
61.494206358, 96.390, 1153.0, 33.9559
61.520466923, 96.390, 1208.0, 34.7563
61.546727489, 96.390, 1245.0, 35.2846
61.572988054, 96.390, 1265.0, 35.5668
61.599248619, 96.390, 1134.0, 33.6749
61.625509185, 96.390, 1166.0, 34.1467
61.651769750, 96.390, 1196.0, 34.5832
61.678030315, 96.390, 1167.0, 34.1614
61.704290881, 96.390, 1149.0, 33.8969
61.730551446, 96.390, 1149.0, 33.8969
61.756812011, 96.390, 1159.0, 34.0441
61.783072577, 96.390, 1087.0, 32.9697
61.809333142, 96.390, 1079.0, 32.8481
61.835593707, 96.390, 1163.0, 34.1028
61.861854273, 96.390, 1082.0, 32.8938
61.888114838, 96.390, 1073.0, 32.7567
61.914375404, 96.390, 1073.0, 32.7567
61.940635969, 96.390, 1116.0, 33.4066
61.966896534, 96.390, 1129.0, 33.6006
61.993157100, 96.390, 1069.0, 32.6956
62.019417665, 96.390, 1098.0, 33.1361
62.045678230, 96.390, 1121.0, 33.4813
62.071938796, 96.390, 1086.0, 32.9545
62.098199361, 96.390, 1174.0, 34.2637
62.124459926, 96.390, 1081.0, 32.8786
62.150720492, 96.390, 1071.0, 32.7261
62.176981057, 96.390, 1167.0, 34.1614
62.203241622, 96.390, 1069.0, 32.6956
62.229502188, 96.390, 1187.0, 34.4529
62.255762753, 96.390, 1156.0, 34.0000
62.282023318, 96.390, 1099.0, 33.1512
62.308283884, 96.390, 1135.0, 33.6898
62.334544449, 96.390, 1120.0, 33.4664
62.360805015, 96.390, 1092.0, 33.0454
62.387065580, 96.390, 1071.0, 32.7261
62.413326145, 96.390, 1049.0, 32.3883
62.439586711, 96.390, 1046.0, 32.3419
62.465847276, 96.390, 1051.0, 32.4191
62.492107841, 96.390, 989.0, 31.4484
62.518368407, 96.390, 1026.0, 32.0312
62.544628972, 96.390, 982.0, 31.3369
62.570889537, 96.390, 957.0, 30.9354
62.597150103, 96.390, 996.0, 31.5595
62.623410668, 96.390, 986.0, 31.4006
62.649671233, 96.390, 1013.0, 31.8277
62.675931799, 96.390, 996.0, 31.5595
62.702192364, 96.390, 1032.0, 32.1248
62.728452930, 96.390, 975.0, 31.2250
62.754713495, 96.390, 965.0, 31.0644
62.780974060, 96.390, 954.0, 30.8869
62.807234626, 96.390, 951.0, 30.8383
62.833495191, 96.390, 920.0, 30.3315
62.859755756, 96.390, 949.0, 30.8058
62.886016322, 96.390, 931.0, 30.5123
62.912276887, 96.390, 868.0, 29.4618
62.938537452, 96.390, 870.0, 29.4958
62.964798018, 96.390, 868.0, 29.4618
62.991058583, 96.390, 836.0, 28.9137
63.017319148, 96.390, 843.0, 29.0345
63.043579714, 96.390, 857.0, 29.2746
63.069840279, 96.390, 828.0, 28.7750
63.096100844, 96.390, 785.0, 28.0179
63.122361410, 96.390, 800.0, 28.2843
63.148621975, 96.390, 756.0, 27.4955
63.174882541, 96.390, 741.0, 27.2213
63.201143106, 96.390, 741.0, 27.2213
63.227403671, 96.390, 721.0, 26.8514
63.253664237, 96.390, 745.0, 27.2947
63.279924802, 96.390, 751.0, 27.4044
63.306185367, 96.390, 757.0, 27.5136
63.332445933, 96.390, 731.0, 27.0370
63.358706498, 96.390, 726.0, 26.9444
63.384967063, 96.390, 797.0, 28.2312
63.411227629, 96.390, 750.0, 27.3861
63.437488194, 96.390, 773.0, 27.8029
63.463748759, 96.390, 788.0, 28.0713
63.490009325, 96.390, 787.0, 28.0535
63.516269890, 96.390, 785.0, 28.0179
63.542530455, 96.390, 809.0, 28.4429
63.568791021, 96.390, 771.0, 27.7669
63.595051586, 96.390, 863.0, 29.3769
63.621312152, 96.390, 905.0, 30.0832
63.647572717, 96.390, 904.0, 30.0666
63.673833282, 96.390, 939.0, 30.6431
63.700093848, 96.390, 953.0, 30.8707
63.726354413, 96.390, 1077.0, 32.8177
63.752614978, 96.390, 1132.0, 33.6452
63.778875544, 96.390, 1099.0, 33.1512
63.805136109, 96.390, 1208.0, 34.7563
63.831396674, 96.390, 1231.0, 35.0856
63.857657240, 96.390, 1278.0, 35.7491
63.883917805, 96.390, 1174.0, 34.2637
63.910178370, 96.390, 1103.0, 33.2114
63.936438936, 96.390, 1106.0, 33.2566
63.962699501, 96.390, 1041.0, 32.2645
63.988960067, 96.390, 1076.0, 32.8024
64.015220632, 96.390, 1108.0, 33.2866
64.041481197, 96.390, 1035.0, 32.1714
64.067741763, 96.390, 1004.0, 31.6860
64.094002328, 96.390, 964.0, 31.0483
64.120262893, 96.390, 924.0, 30.3974
64.146523459, 96.390, 888.0, 29.7993
64.172784024, 96.390, 967.0, 31.0966
64.199044589, 96.390, 923.0, 30.3809
64.225305155, 96.390, 992.0, 31.4960
64.251565720, 96.390, 1023.0, 31.9844
64.277826285, 96.390, 917.0, 30.2820
64.304086851, 96.390, 974.0, 31.2090
64.330347416, 96.390, 899.0, 29.9833
64.356607981, 96.390, 899.0, 29.9833
64.382868547, 96.390, 968.0, 31.1127
64.409129112, 96.390, 904.0, 30.0666
64.435389678, 96.390, 882.0, 29.6985
64.461650243, 96.390, 895.0, 29.9166
64.487910808, 96.390, 888.0, 29.7993
64.514171374, 96.390, 915.0, 30.2490
64.540431939, 96.390, 880.0, 29.6648
64.566692504, 96.390, 856.0, 29.2575
64.592953070, 96.390, 863.0, 29.3769
64.619213635, 96.390, 863.0, 29.3769
64.645474200, 96.390, 858.0, 29.2916
64.671734766, 96.390, 729.0, 27.0000
64.697995331, 96.390, 790.0, 28.1069
64.724255896, 96.390, 795.0, 28.1957
64.750516462, 96.390, 779.0, 27.9106
64.776777027, 96.390, 764.0, 27.6405
64.803037593, 96.390, 772.0, 27.7849
64.829298158, 96.390, 733.0, 27.0740
64.855558723, 96.390, 710.0, 26.6458
64.881819289, 96.390, 698.0, 26.4197
64.908079854, 96.390, 700.0, 26.4575
64.934340419, 96.390, 696.0, 26.3818
64.960600985, 96.390, 707.0, 26.5895
64.986861550, 96.390, 729.0, 27.0000
