[Measurement conditions]
Sample identification,XRD_SiCorner03Nov21_Act18Jan22_B6_0242M_NaOH_LS0106_1
Comment - 1,"Configuration=Stage for Flat Samples/Holders, Owner=User-1, Creation date=7/1/2020 9:53:24 AM"
Comment - 2,"Goniometer=Theta/Theta; Minimum step size 2Theta:0.0001; Minimum step size Omega:0.0001"
Comment - 3,"Sample stage=Stage for flat samples/holders"
Comment - 4,"Diffractometer system=EMPYREAN"
Comment - 5,"Measurement program=C:\Users\ibo5034\OneDrive - The Pennsylvania State University\NEUP - Reed, Titus's files\XRD\Cement\Zerobackground scan.xrdmp, Identifier={98A3B11C-88F9-4AA6-982C-73314A311EF5}"
Anode material,Cu
K-Alpha1 wavelength,1.5405980
K-Alpha2 wavelength,1.5444260
Ratio K-Alpha2/K-Alpha1,0.500
Divergence slit,Fixed,0.25
Monochromator used,NO
Generator voltage, 45
Tube current, 40
File date and time,21/Jan/2022 11:44
Unit cell,
h k l, 0 0 0
Scan axis,Gonio
Scan range,4.994599997,64.999991833
Scan step size,0.0262606
No. of points, 2285
Scan type,CONTINUOUS
Time per step,96.390
[Scan points]
Angle, TimePerStep, Intensity, ESD
5.007730280, 96.390, 6023.0, 77.6080
5.033990845, 96.390, 5940.0, 77.0714
5.060251411, 96.390, 6056.0, 77.8203
5.086511976, 96.390, 5900.0, 76.8115
5.112772541, 96.390, 5972.0, 77.2787
5.139033107, 96.390, 5862.0, 76.5637
5.165293672, 96.390, 5735.0, 75.7298
5.191554237, 96.390, 5729.0, 75.6902
5.217814803, 96.390, 5694.0, 75.4586
5.244075368, 96.390, 5688.0, 75.4188
5.270335934, 96.390, 5773.0, 75.9803
5.296596499, 96.390, 5571.0, 74.6391
5.322857064, 96.390, 5530.0, 74.3640
5.349117630, 96.390, 5477.0, 74.0068
5.375378195, 96.390, 5455.0, 73.8580
5.401638760, 96.390, 5327.0, 72.9863
5.427899326, 96.390, 5485.0, 74.0608
5.454159891, 96.390, 5382.0, 73.3621
5.480420456, 96.390, 5351.0, 73.1505
5.506681022, 96.390, 5263.0, 72.5465
5.532941587, 96.390, 5113.0, 71.5052
5.559202152, 96.390, 5261.0, 72.5328
5.585462718, 96.390, 5121.0, 71.5612
5.611723283, 96.390, 5176.0, 71.9444
5.637983849, 96.390, 5160.0, 71.8331
5.664244414, 96.390, 5060.0, 71.1337
5.690504979, 96.390, 5010.0, 70.7814
5.716765545, 96.390, 4927.0, 70.1926
5.743026110, 96.390, 4952.0, 70.3704
5.769286675, 96.390, 4949.0, 70.3491
5.795547241, 96.390, 4849.0, 69.6348
5.821807806, 96.390, 4909.0, 70.0643
5.848068371, 96.390, 4953.0, 70.3776
5.874328937, 96.390, 4968.0, 70.4840
5.900589502, 96.390, 4965.0, 70.4628
5.926850067, 96.390, 4929.0, 70.2068
5.953110633, 96.390, 4944.0, 70.3136
5.979371198, 96.390, 4836.0, 69.5414
6.005631763, 96.390, 4903.0, 70.0214
6.031892329, 96.390, 4783.0, 69.1592
6.058152894, 96.390, 4658.0, 68.2495
6.084413460, 96.390, 4696.0, 68.5274
6.110674025, 96.390, 4735.0, 68.8113
6.136934590, 96.390, 4710.0, 68.6294
6.163195156, 96.390, 4836.0, 69.5414
6.189455721, 96.390, 4689.0, 68.4763
6.215716286, 96.390, 4523.0, 67.2533
6.241976852, 96.390, 4824.0, 69.4550
6.268237417, 96.390, 4645.0, 68.1542
6.294497982, 96.390, 4646.0, 68.1616
6.320758548, 96.390, 4580.0, 67.6757
6.347019113, 96.390, 4520.0, 67.2309
6.373279678, 96.390, 4562.0, 67.5426
6.399540244, 96.390, 4582.0, 67.6905
6.425800809, 96.390, 4419.0, 66.4756
6.452061375, 96.390, 4515.0, 67.1937
6.478321940, 96.390, 4576.0, 67.6461
6.504582505, 96.390, 4472.0, 66.8730
6.530843071, 96.390, 4407.0, 66.3852
6.557103636, 96.390, 4454.0, 66.7383
6.583364201, 96.390, 4382.0, 66.1967
6.609624767, 96.390, 4286.0, 65.4675
6.635885332, 96.390, 4478.0, 66.9179
6.662145897, 96.390, 4361.0, 66.0379
6.688406463, 96.390, 4355.0, 65.9924
6.714667028, 96.390, 4489.0, 67.0000
6.740927593, 96.390, 4504.0, 67.1118
6.767188159, 96.390, 4349.0, 65.9469
6.793448724, 96.390, 4342.0, 65.8939
6.819709289, 96.390, 4276.0, 65.3911
6.845969855, 96.390, 4469.0, 66.8506
6.872230420, 96.390, 4218.0, 64.9461
6.898490986, 96.390, 4280.0, 65.4217
6.924751551, 96.390, 4414.0, 66.4379
6.951012116, 96.390, 4242.0, 65.1306
6.977272682, 96.390, 4265.0, 65.3070
7.003533247, 96.390, 4293.0, 65.5210
7.029793812, 96.390, 4181.0, 64.6607
7.056054378, 96.390, 4220.0, 64.9615
7.082314943, 96.390, 4160.0, 64.4981
7.108575508, 96.390, 4246.0, 65.1613
7.134836074, 96.390, 4282.0, 65.4370
7.161096639, 96.390, 4240.0, 65.1153
7.187357204, 96.390, 4229.0, 65.0308
7.213617770, 96.390, 4171.0, 64.5833
7.239878335, 96.390, 4199.0, 64.7997
7.266138900, 96.390, 4205.0, 64.8460
7.292399466, 96.390, 4159.0, 64.4903
7.318660031, 96.390, 4093.0, 63.9766
7.344920597, 96.390, 4129.0, 64.2573
7.371181162, 96.390, 4135.0, 64.3040
7.397441727, 96.390, 4090.0, 63.9531
7.423702293, 96.390, 3970.0, 63.0079
7.449962858, 96.390, 3994.0, 63.1981
7.476223423, 96.390, 4116.0, 64.1561
7.502483989, 96.390, 3906.0, 62.4980
7.528744554, 96.390, 4005.0, 63.2851
7.555005119, 96.390, 4076.0, 63.8436
7.581265685, 96.390, 3966.0, 62.9762
7.607526250, 96.390, 4098.0, 64.0156
7.633786815, 96.390, 3948.0, 62.8331
7.660047381, 96.390, 4059.0, 63.7103
7.686307946, 96.390, 3982.0, 63.1031
7.712568512, 96.390, 4029.0, 63.4744
7.738829077, 96.390, 3927.0, 62.6658
7.765089642, 96.390, 3951.0, 62.8570
7.791350208, 96.390, 3917.0, 62.5859
7.817610773, 96.390, 4010.0, 63.3246
7.843871338, 96.390, 4037.0, 63.5374
7.870131904, 96.390, 3975.0, 63.0476
7.896392469, 96.390, 3907.0, 62.5060
7.922653034, 96.390, 3992.0, 63.1823
7.948913600, 96.390, 3831.0, 61.8951
7.975174165, 96.390, 3945.0, 62.8092
8.001434730, 96.390, 3852.0, 62.0645
8.027695296, 96.390, 3861.0, 62.1369
8.053955861, 96.390, 3854.0, 62.0806
8.080216426, 96.390, 3885.0, 62.3298
8.106476992, 96.390, 3885.0, 62.3298
8.132737557, 96.390, 3824.0, 61.8385
8.158998123, 96.390, 3798.0, 61.6279
8.185258688, 96.390, 3789.0, 61.5549
8.211519253, 96.390, 3689.0, 60.7371
8.237779819, 96.390, 3809.0, 61.7171
8.264040384, 96.390, 3928.0, 62.6738
8.290300949, 96.390, 3843.0, 61.9919
8.316561515, 96.390, 3666.0, 60.5475
8.342822080, 96.390, 3815.0, 61.7657
8.369082645, 96.390, 3899.0, 62.4420
8.395343211, 96.390, 3838.0, 61.9516
8.421603776, 96.390, 3837.0, 61.9435
8.447864341, 96.390, 3711.0, 60.9180
8.474124907, 96.390, 3778.0, 61.4654
8.500385472, 96.390, 3845.0, 62.0081
8.526646038, 96.390, 3756.0, 61.2862
8.552906603, 96.390, 3825.0, 61.8466
8.579167168, 96.390, 3817.0, 61.7819
8.605427734, 96.390, 3646.0, 60.3821
8.631688299, 96.390, 3626.0, 60.2163
8.657948864, 96.390, 3779.0, 61.4736
8.684209430, 96.390, 3810.0, 61.7252
8.710469995, 96.390, 3623.0, 60.1914
8.736730560, 96.390, 3657.0, 60.4731
8.762991126, 96.390, 3634.0, 60.2827
8.789251691, 96.390, 3592.0, 59.9333
8.815512256, 96.390, 3711.0, 60.9180
8.841772822, 96.390, 3749.0, 61.2291
8.868033387, 96.390, 3632.0, 60.2661
8.894293952, 96.390, 3655.0, 60.4566
8.920554518, 96.390, 3642.0, 60.3490
8.946815083, 96.390, 3664.0, 60.5310
8.973075649, 96.390, 3585.0, 59.8749
8.999336214, 96.390, 3648.0, 60.3987
9.025596779, 96.390, 3634.0, 60.2827
9.051857345, 96.390, 3558.0, 59.6490
9.078117910, 96.390, 3636.0, 60.2993
9.104378475, 96.390, 3526.0, 59.3801
9.130639041, 96.390, 3543.0, 59.5231
9.156899606, 96.390, 3574.0, 59.7829
9.183160171, 96.390, 3566.0, 59.7160
9.209420737, 96.390, 3606.0, 60.0500
9.235681302, 96.390, 3584.0, 59.8665
9.261941867, 96.390, 3512.0, 59.2621
9.288202433, 96.390, 3490.0, 59.0762
9.314462998, 96.390, 3471.0, 58.9152
9.340723564, 96.390, 3574.0, 59.7829
9.366984129, 96.390, 3499.0, 59.1523
9.393244694, 96.390, 3599.0, 59.9917
9.419505260, 96.390, 3554.0, 59.6154
9.445765825, 96.390, 3490.0, 59.0762
9.472026390, 96.390, 3441.0, 58.6600
9.498286956, 96.390, 3423.0, 58.5064
9.524547521, 96.390, 3385.0, 58.1808
9.550808086, 96.390, 3374.0, 58.0861
9.577068652, 96.390, 3393.0, 58.2495
9.603329217, 96.390, 3317.0, 57.5934
9.629589782, 96.390, 3508.0, 59.2284
9.655850348, 96.390, 3387.0, 58.1979
9.682110913, 96.390, 3503.0, 59.1861
9.708371478, 96.390, 3430.0, 58.5662
9.734632044, 96.390, 3355.0, 57.9224
9.760892609, 96.390, 3382.0, 58.1550
9.787153175, 96.390, 3384.0, 58.1722
9.813413740, 96.390, 3267.0, 57.1577
9.839674305, 96.390, 3346.0, 57.8446
9.865934871, 96.390, 3457.0, 58.7963
9.892195436, 96.390, 3223.0, 56.7715
9.918456001, 96.390, 3277.0, 57.2451
9.944716567, 96.390, 3378.0, 58.1206
9.970977132, 96.390, 3342.0, 57.8100
9.997237697, 96.390, 3353.0, 57.9051
10.023498263, 96.390, 3273.0, 57.2101
10.049758828, 96.390, 3311.0, 57.5413
10.076019393, 96.390, 3297.0, 57.4195
10.102279959, 96.390, 3468.0, 58.8897
10.128540524, 96.390, 3190.0, 56.4801
10.154801090, 96.390, 3274.0, 57.2189
10.181061655, 96.390, 3308.0, 57.5152
10.207322220, 96.390, 3310.0, 57.5326
10.233582786, 96.390, 3298.0, 57.4282
10.259843351, 96.390, 3312.0, 57.5500
10.286103916, 96.390, 3282.0, 57.2887
10.312364482, 96.390, 3282.0, 57.2887
10.338625047, 96.390, 3240.0, 56.9210
10.364885612, 96.390, 3249.0, 57.0000
10.391146178, 96.390, 3263.0, 57.1227
10.417406743, 96.390, 3222.0, 56.7627
10.443667308, 96.390, 3208.0, 56.6392
10.469927874, 96.390, 3162.0, 56.2317
10.496188439, 96.390, 3212.0, 56.6745
10.522449004, 96.390, 3265.0, 57.1402
10.548709570, 96.390, 3307.0, 57.5065
10.574970135, 96.390, 3205.0, 56.6127
10.601230701, 96.390, 3123.0, 55.8838
10.627491266, 96.390, 3178.0, 56.3738
10.653751831, 96.390, 3114.0, 55.8032
10.680012397, 96.390, 3232.0, 56.8507
10.706272962, 96.390, 3299.0, 57.4369
10.732533527, 96.390, 3180.0, 56.3915
10.758794093, 96.390, 3110.0, 55.7674
10.785054658, 96.390, 3183.0, 56.4181
10.811315223, 96.390, 3191.0, 56.4889
10.837575789, 96.390, 3083.0, 55.5248
10.863836354, 96.390, 3109.0, 55.7584
10.890096919, 96.390, 3106.0, 55.7315
10.916357485, 96.390, 3205.0, 56.6127
10.942618050, 96.390, 3108.0, 55.7494
10.968878616, 96.390, 3024.0, 54.9909
10.995139181, 96.390, 3140.0, 56.0357
11.021399746, 96.390, 3043.0, 55.1634
11.047660312, 96.390, 3114.0, 55.8032
11.073920877, 96.390, 3077.0, 55.4707
11.100181442, 96.390, 2931.0, 54.1387
11.126442008, 96.390, 3063.0, 55.3444
11.152702573, 96.390, 3001.0, 54.7814
11.178963138, 96.390, 3060.0, 55.3173
11.205223704, 96.390, 3143.0, 56.0625
11.231484269, 96.390, 3065.0, 55.3624
11.257744834, 96.390, 3164.0, 56.2494
11.284005400, 96.390, 3038.0, 55.1181
11.310265965, 96.390, 2989.0, 54.6717
11.336526530, 96.390, 3017.0, 54.9272
11.362787096, 96.390, 2899.0, 53.8424
11.389047661, 96.390, 3000.0, 54.7723
11.415308227, 96.390, 2924.0, 54.0740
11.441568792, 96.390, 2901.0, 53.8609
11.467829357, 96.390, 2894.0, 53.7959
11.494089923, 96.390, 2902.0, 53.8702
11.520350488, 96.390, 3015.0, 54.9090
11.546611053, 96.390, 2936.0, 54.1849
11.572871619, 96.390, 3014.0, 54.8999
11.599132184, 96.390, 2920.0, 54.0370
11.625392749, 96.390, 2867.0, 53.5444
11.651653315, 96.390, 3025.0, 55.0000
11.677913880, 96.390, 2964.0, 54.4426
11.704174445, 96.390, 2882.0, 53.6843
11.730435011, 96.390, 2865.0, 53.5257
11.756695576, 96.390, 3008.0, 54.8452
11.782956141, 96.390, 2872.0, 53.5910
11.809216707, 96.390, 2922.0, 54.0555
11.835477272, 96.390, 2779.0, 52.7162
11.861737838, 96.390, 2863.0, 53.5070
11.887998403, 96.390, 2830.0, 53.1977
11.914258968, 96.390, 2878.0, 53.6470
11.940519534, 96.390, 2850.0, 53.3854
11.966780099, 96.390, 2909.0, 53.9351
11.993040664, 96.390, 2879.0, 53.6563
12.019301230, 96.390, 2828.0, 53.1789
12.045561795, 96.390, 2902.0, 53.8702
12.071822360, 96.390, 2821.0, 53.1131
12.098082926, 96.390, 2902.0, 53.8702
12.124343491, 96.390, 2757.0, 52.5071
12.150604056, 96.390, 2842.0, 53.3104
12.176864622, 96.390, 2838.0, 53.2729
12.203125187, 96.390, 2934.0, 54.1664
12.229385753, 96.390, 2799.0, 52.9056
12.255646318, 96.390, 2876.0, 53.6284
12.281906883, 96.390, 2800.0, 52.9150
12.308167449, 96.390, 2836.0, 53.2541
12.334428014, 96.390, 2846.0, 53.3479
12.360688579, 96.390, 2842.0, 53.3104
12.386949145, 96.390, 2696.0, 51.9230
12.413209710, 96.390, 2769.0, 52.6213
12.439470275, 96.390, 2629.0, 51.2738
12.465730841, 96.390, 2781.0, 52.7352
12.491991406, 96.390, 2834.0, 53.2353
12.518251971, 96.390, 2767.0, 52.6023
12.544512537, 96.390, 2712.0, 52.0769
12.570773102, 96.390, 2794.0, 52.8583
12.597033667, 96.390, 2899.0, 53.8424
12.623294233, 96.390, 2749.0, 52.4309
12.649554798, 96.390, 2743.0, 52.3737
12.675815364, 96.390, 2744.0, 52.3832
12.702075929, 96.390, 2713.0, 52.0865
12.728336494, 96.390, 2751.0, 52.4500
12.754597060, 96.390, 2728.0, 52.2303
12.780857625, 96.390, 2659.0, 51.5655
12.807118190, 96.390, 2695.0, 51.9134
12.833378756, 96.390, 2812.0, 53.0283
12.859639321, 96.390, 2743.0, 52.3737
12.885899886, 96.390, 2658.0, 51.5558
12.912160452, 96.390, 2685.0, 51.8170
12.938421017, 96.390, 2705.0, 52.0096
12.964681582, 96.390, 2687.0, 51.8363
12.990942148, 96.390, 2736.0, 52.3068
13.017202713, 96.390, 2658.0, 51.5558
13.043463279, 96.390, 2689.0, 51.8556
13.069723844, 96.390, 2645.0, 51.4296
13.095984409, 96.390, 2717.0, 52.1249
13.122244975, 96.390, 2657.0, 51.5461
13.148505540, 96.390, 2712.0, 52.0769
13.174766105, 96.390, 2762.0, 52.5547
13.201026671, 96.390, 2705.0, 52.0096
13.227287236, 96.390, 2657.0, 51.5461
13.253547801, 96.390, 2656.0, 51.5364
13.279808367, 96.390, 2541.0, 50.4083
13.306068932, 96.390, 2775.0, 52.6783
13.332329497, 96.390, 2553.0, 50.5272
13.358590063, 96.390, 2595.0, 50.9411
13.384850628, 96.390, 2708.0, 52.0384
13.411111193, 96.390, 2610.0, 51.0882
13.437371759, 96.390, 2633.0, 51.3128
13.463632324, 96.390, 2589.0, 50.8822
13.489892890, 96.390, 2620.0, 51.1859
13.516153455, 96.390, 2739.0, 52.3355
13.542414020, 96.390, 2688.0, 51.8459
13.568674586, 96.390, 2662.0, 51.5946
13.594935151, 96.390, 2569.0, 50.6853
13.621195716, 96.390, 2602.0, 51.0098
13.647456282, 96.390, 2574.0, 50.7346
13.673716847, 96.390, 2532.0, 50.3190
13.699977412, 96.390, 2564.0, 50.6360
13.726237978, 96.390, 2480.0, 49.7996
13.752498543, 96.390, 2615.0, 51.1371
13.778759108, 96.390, 2563.0, 50.6261
13.805019674, 96.390, 2613.0, 51.1175
13.831280239, 96.390, 2615.0, 51.1371
13.857540805, 96.390, 2700.0, 51.9615
13.883801370, 96.390, 2535.0, 50.3488
13.910061935, 96.390, 2556.0, 50.5569
13.936322501, 96.390, 2650.0, 51.4782
13.962583066, 96.390, 2587.0, 50.8626
13.988843631, 96.390, 2600.0, 50.9902
14.015104197, 96.390, 2493.0, 49.9300
14.041364762, 96.390, 2538.0, 50.3786
14.067625327, 96.390, 2651.0, 51.4879
14.093885893, 96.390, 2539.0, 50.3885
14.120146458, 96.390, 2651.0, 51.4879
14.146407023, 96.390, 2517.0, 50.1697
14.172667589, 96.390, 2530.0, 50.2991
14.198928154, 96.390, 2598.0, 50.9706
14.225188719, 96.390, 2479.0, 49.7896
14.251449285, 96.390, 2495.0, 49.9500
14.277709850, 96.390, 2558.0, 50.5767
14.303970416, 96.390, 2521.0, 50.2096
14.330230981, 96.390, 2535.0, 50.3488
14.356491546, 96.390, 2549.0, 50.4876
14.382752112, 96.390, 2538.0, 50.3786
14.409012677, 96.390, 2538.0, 50.3786
14.435273242, 96.390, 2525.0, 50.2494
14.461533808, 96.390, 2485.0, 49.8498
14.487794373, 96.390, 2499.0, 49.9900
14.514054938, 96.390, 2465.0, 49.6488
14.540315504, 96.390, 2515.0, 50.1498
14.566576069, 96.390, 2523.0, 50.2295
14.592836634, 96.390, 2426.0, 49.2544
14.619097200, 96.390, 2445.0, 49.4469
14.645357765, 96.390, 2505.0, 50.0500
14.671618331, 96.390, 2421.0, 49.2037
14.697878896, 96.390, 2508.0, 50.0799
14.724139461, 96.390, 2510.0, 50.0999
14.750400027, 96.390, 2554.0, 50.5371
14.776660592, 96.390, 2435.0, 49.3457
14.802921157, 96.390, 2584.0, 50.8331
14.829181723, 96.390, 2500.0, 50.0000
14.855442288, 96.390, 2558.0, 50.5767
14.881702853, 96.390, 2453.0, 49.5278
14.907963419, 96.390, 2461.0, 49.6085
14.934223984, 96.390, 2424.0, 49.2341
14.960484549, 96.390, 2468.0, 49.6790
14.986745115, 96.390, 2574.0, 50.7346
15.013005680, 96.390, 2584.0, 50.8331
15.039266245, 96.390, 2511.0, 50.1099
15.065526811, 96.390, 2531.0, 50.3090
15.091787376, 96.390, 2555.0, 50.5470
15.118047942, 96.390, 2471.0, 49.7092
15.144308507, 96.390, 2450.0, 49.4975
15.170569072, 96.390, 2487.0, 49.8698
15.196829638, 96.390, 2520.0, 50.1996
15.223090203, 96.390, 2505.0, 50.0500
15.249350768, 96.390, 2463.0, 49.6286
15.275611334, 96.390, 2500.0, 50.0000
15.301871899, 96.390, 2457.0, 49.5681
15.328132464, 96.390, 2486.0, 49.8598
15.354393030, 96.390, 2493.0, 49.9300
15.380653595, 96.390, 2440.0, 49.3964
15.406914160, 96.390, 2441.0, 49.4065
15.433174726, 96.390, 2459.0, 49.5883
15.459435291, 96.390, 2452.0, 49.5177
15.485695857, 96.390, 2553.0, 50.5272
15.511956422, 96.390, 2555.0, 50.5470
15.538216987, 96.390, 2442.0, 49.4166
15.564477553, 96.390, 2470.0, 49.6991
15.590738118, 96.390, 2554.0, 50.5371
15.616998683, 96.390, 2495.0, 49.9500
15.643259249, 96.390, 2526.0, 50.2593
15.669519814, 96.390, 2623.0, 51.2152
15.695780379, 96.390, 2435.0, 49.3457
15.722040945, 96.390, 2403.0, 49.0204
15.748301510, 96.390, 2500.0, 50.0000
15.774562075, 96.390, 2611.0, 51.0979
15.800822641, 96.390, 2495.0, 49.9500
15.827083206, 96.390, 2501.0, 50.0100
15.853343771, 96.390, 2488.0, 49.8799
15.879604337, 96.390, 2566.0, 50.6557
15.905864902, 96.390, 2429.0, 49.2849
15.932125468, 96.390, 2525.0, 50.2494
15.958386033, 96.390, 2589.0, 50.8822
15.984646598, 96.390, 2474.0, 49.7393
16.010907164, 96.390, 2481.0, 49.8096
16.037167729, 96.390, 2452.0, 49.5177
16.063428294, 96.390, 2527.0, 50.2693
16.089688860, 96.390, 2356.0, 48.5386
16.115949425, 96.390, 2540.0, 50.3984
16.142209990, 96.390, 2580.0, 50.7937
16.168470556, 96.390, 2494.0, 49.9400
16.194731121, 96.390, 2545.0, 50.4480
16.220991686, 96.390, 2510.0, 50.0999
16.247252252, 96.390, 2634.0, 51.3225
16.273512817, 96.390, 2462.0, 49.6185
16.299773382, 96.390, 2506.0, 50.0600
16.326033948, 96.390, 2572.0, 50.7149
16.352294513, 96.390, 2490.0, 49.8999
16.378555079, 96.390, 2501.0, 50.0100
16.404815644, 96.390, 2520.0, 50.1996
16.431076209, 96.390, 2496.0, 49.9600
16.457336775, 96.390, 2591.0, 50.9019
16.483597340, 96.390, 2565.0, 50.6458
16.509857905, 96.390, 2573.0, 50.7247
16.536118471, 96.390, 2490.0, 49.8999
16.562379036, 96.390, 2496.0, 49.9600
16.588639601, 96.390, 2566.0, 50.6557
16.614900167, 96.390, 2507.0, 50.0700
16.641160732, 96.390, 2576.0, 50.7543
16.667421297, 96.390, 2656.0, 51.5364
16.693681863, 96.390, 2532.0, 50.3190
16.719942428, 96.390, 2619.0, 51.1762
16.746202994, 96.390, 2530.0, 50.2991
16.772463559, 96.390, 2660.0, 51.5752
16.798724124, 96.390, 2552.0, 50.5173
16.824984690, 96.390, 2487.0, 49.8698
16.851245255, 96.390, 2545.0, 50.4480
16.877505820, 96.390, 2629.0, 51.2738
16.903766386, 96.390, 2611.0, 51.0979
16.930026951, 96.390, 2688.0, 51.8459
16.956287516, 96.390, 2680.0, 51.7687
16.982548082, 96.390, 2637.0, 51.3517
17.008808647, 96.390, 2681.0, 51.7784
17.035069212, 96.390, 2637.0, 51.3517
17.061329778, 96.390, 2659.0, 51.5655
17.087590343, 96.390, 2653.0, 51.5073
17.113850908, 96.390, 2664.0, 51.6140
17.140111474, 96.390, 2633.0, 51.3128
17.166372039, 96.390, 2607.0, 51.0588
17.192632605, 96.390, 2614.0, 51.1273
17.218893170, 96.390, 2748.0, 52.4214
17.245153735, 96.390, 2721.0, 52.1632
17.271414301, 96.390, 2755.0, 52.4881
17.297674866, 96.390, 2652.0, 51.4976
17.323935431, 96.390, 2688.0, 51.8459
17.350195997, 96.390, 2649.0, 51.4684
17.376456562, 96.390, 2680.0, 51.7687
17.402717127, 96.390, 2677.0, 51.7397
17.428977693, 96.390, 2667.0, 51.6430
17.455238258, 96.390, 2637.0, 51.3517
17.481498823, 96.390, 2773.0, 52.6593
17.507759389, 96.390, 2713.0, 52.0865
17.534019954, 96.390, 2775.0, 52.6783
17.560280520, 96.390, 2773.0, 52.6593
17.586541085, 96.390, 2724.0, 52.1920
17.612801650, 96.390, 2775.0, 52.6783
17.639062216, 96.390, 2697.0, 51.9326
17.665322781, 96.390, 2760.0, 52.5357
17.691583346, 96.390, 2771.0, 52.6403
17.717843912, 96.390, 2750.0, 52.4404
17.744104477, 96.390, 2792.0, 52.8394
17.770365042, 96.390, 2825.0, 53.1507
17.796625608, 96.390, 2837.0, 53.2635
17.822886173, 96.390, 2802.0, 52.9339
17.849146738, 96.390, 2700.0, 51.9615
17.875407304, 96.390, 2828.0, 53.1789
17.901667869, 96.390, 2841.0, 53.3010
17.927928434, 96.390, 2736.0, 52.3068
17.954189000, 96.390, 2827.0, 53.1695
17.980449565, 96.390, 2827.0, 53.1695
18.006710131, 96.390, 2890.0, 53.7587
18.032970696, 96.390, 2885.0, 53.7122
18.059231261, 96.390, 2891.0, 53.7680
18.085491827, 96.390, 2928.0, 54.1110
18.111752392, 96.390, 2878.0, 53.6470
18.138012957, 96.390, 2863.0, 53.5070
18.164273523, 96.390, 2797.0, 52.8867
18.190534088, 96.390, 2899.0, 53.8424
18.216794653, 96.390, 2818.0, 53.0848
18.243055219, 96.390, 3001.0, 54.7814
18.269315784, 96.390, 2920.0, 54.0370
18.295576349, 96.390, 2905.0, 53.8981
18.321836915, 96.390, 2983.0, 54.6168
18.348097480, 96.390, 2854.0, 53.4228
18.374358046, 96.390, 3033.0, 55.0727
18.400618611, 96.390, 2888.0, 53.7401
18.426879176, 96.390, 2918.0, 54.0185
18.453139742, 96.390, 3017.0, 54.9272
18.479400307, 96.390, 2977.0, 54.5619
18.505660872, 96.390, 3048.0, 55.2087
18.531921438, 96.390, 2954.0, 54.3507
18.558182003, 96.390, 2986.0, 54.6443
18.584442568, 96.390, 3067.0, 55.3805
18.610703134, 96.390, 3041.0, 55.1453
18.636963699, 96.390, 3141.0, 56.0446
18.663224264, 96.390, 2974.0, 54.5344
18.689484830, 96.390, 3072.0, 55.4256
18.715745395, 96.390, 3028.0, 55.0273
18.742005960, 96.390, 3017.0, 54.9272
18.768266526, 96.390, 3125.0, 55.9017
18.794527091, 96.390, 3114.0, 55.8032
18.820787657, 96.390, 3135.0, 55.9911
18.847048222, 96.390, 3208.0, 56.6392
18.873308787, 96.390, 2978.0, 54.5711
18.899569353, 96.390, 2980.0, 54.5894
18.925829918, 96.390, 3108.0, 55.7494
18.952090483, 96.390, 3118.0, 55.8391
18.978351049, 96.390, 3087.0, 55.5608
19.004611614, 96.390, 3158.0, 56.1961
19.030872179, 96.390, 3232.0, 56.8507
19.057132745, 96.390, 3248.0, 56.9912
19.083393310, 96.390, 3184.0, 56.4269
19.109653875, 96.390, 3117.0, 55.8301
19.135914441, 96.390, 3111.0, 55.7763
19.162175006, 96.390, 3200.0, 56.5685
19.188435572, 96.390, 3222.0, 56.7627
19.214696137, 96.390, 3297.0, 57.4195
19.240956702, 96.390, 3202.0, 56.5862
19.267217268, 96.390, 3298.0, 57.4282
19.293477833, 96.390, 3261.0, 57.1052
19.319738398, 96.390, 3211.0, 56.6657
19.345998964, 96.390, 3207.0, 56.6304
19.372259529, 96.390, 3351.0, 57.8878
19.398520094, 96.390, 3216.0, 56.7098
19.424780660, 96.390, 3375.0, 58.0948
19.451041225, 96.390, 3290.0, 57.3585
19.477301790, 96.390, 3437.0, 58.6259
19.503562356, 96.390, 3328.0, 57.6888
19.529822921, 96.390, 3284.0, 57.3062
19.556083486, 96.390, 3277.0, 57.2451
19.582344052, 96.390, 3293.0, 57.3847
19.608604617, 96.390, 3324.0, 57.6541
19.634865183, 96.390, 3345.0, 57.8360
19.661125748, 96.390, 3413.0, 58.4209
19.687386313, 96.390, 3440.0, 58.6515
19.713646879, 96.390, 3460.0, 58.8218
19.739907444, 96.390, 3390.0, 58.2237
19.766168009, 96.390, 3495.0, 59.1185
19.792428575, 96.390, 3427.0, 58.5406
19.818689140, 96.390, 3420.0, 58.4808
19.844949705, 96.390, 3478.0, 58.9746
19.871210271, 96.390, 3455.0, 58.7792
19.897470836, 96.390, 3403.0, 58.3352
19.923731401, 96.390, 3518.0, 59.3127
19.949991967, 96.390, 3470.0, 58.9067
19.976252532, 96.390, 3532.0, 59.4306
20.002513097, 96.390, 3499.0, 59.1523
20.028773663, 96.390, 3466.0, 58.8727
20.055034228, 96.390, 3442.0, 58.6686
20.081294794, 96.390, 3589.0, 59.9083
20.107555359, 96.390, 3585.0, 59.8749
20.133815924, 96.390, 3700.0, 60.8276
20.160076490, 96.390, 3581.0, 59.8415
20.186337055, 96.390, 3612.0, 60.0999
20.212597620, 96.390, 3591.0, 59.9250
20.238858186, 96.390, 3621.0, 60.1747
20.265118751, 96.390, 3525.0, 59.3717
20.291379316, 96.390, 3603.0, 60.0250
20.317639882, 96.390, 3648.0, 60.3987
20.343900447, 96.390, 3620.0, 60.1664
20.370161012, 96.390, 3648.0, 60.3987
20.396421578, 96.390, 3654.0, 60.4483
20.422682143, 96.390, 3725.0, 61.0328
20.448942709, 96.390, 3776.0, 61.4492
20.475203274, 96.390, 3663.0, 60.5227
20.501463839, 96.390, 3637.0, 60.3075
20.527724405, 96.390, 3643.0, 60.3573
20.553984970, 96.390, 3687.0, 60.7207
20.580245535, 96.390, 3610.0, 60.0833
20.606506101, 96.390, 3826.0, 61.8547
20.632766666, 96.390, 3709.0, 60.9016
20.659027231, 96.390, 3674.0, 60.6135
20.685287797, 96.390, 3837.0, 61.9435
20.711548362, 96.390, 3800.0, 61.6441
20.737808927, 96.390, 3730.0, 61.0737
20.764069493, 96.390, 3818.0, 61.7900
20.790330058, 96.390, 3696.0, 60.7947
20.816590623, 96.390, 3737.0, 61.1310
20.842851189, 96.390, 3689.0, 60.7371
20.869111754, 96.390, 3781.0, 61.4898
20.895372320, 96.390, 3909.0, 62.5220
20.921632885, 96.390, 3659.0, 60.4897
20.947893450, 96.390, 3706.0, 60.8769
20.974154016, 96.390, 3712.0, 60.9262
21.000414581, 96.390, 3910.0, 62.5300
21.026675146, 96.390, 3795.0, 61.6036
21.052935712, 96.390, 3907.0, 62.5060
21.079196277, 96.390, 3857.0, 62.1048
21.105456842, 96.390, 3823.0, 61.8304
21.131717408, 96.390, 3854.0, 62.0806
21.157977973, 96.390, 3824.0, 61.8385
21.184238538, 96.390, 3874.0, 62.2415
21.210499104, 96.390, 3817.0, 61.7819
21.236759669, 96.390, 3800.0, 61.6441
21.263020235, 96.390, 3937.0, 62.7455
21.289280800, 96.390, 3791.0, 61.5711
21.315541365, 96.390, 3851.0, 62.0564
21.341801931, 96.390, 3886.0, 62.3378
21.368062496, 96.390, 3891.0, 62.3779
21.394323061, 96.390, 3861.0, 62.1369
21.420583627, 96.390, 3920.0, 62.6099
21.446844192, 96.390, 3916.0, 62.5780
21.473104757, 96.390, 3867.0, 62.1852
21.499365323, 96.390, 3843.0, 61.9919
21.525625888, 96.390, 3871.0, 62.2174
21.551886453, 96.390, 3904.0, 62.4820
21.578147019, 96.390, 3929.0, 62.6817
21.604407584, 96.390, 4019.0, 63.3956
21.630668149, 96.390, 4009.0, 63.3167
21.656928715, 96.390, 4025.0, 63.4429
21.683189280, 96.390, 3973.0, 63.0317
21.709449846, 96.390, 3969.0, 63.0000
21.735710411, 96.390, 3876.0, 62.2575
21.761970976, 96.390, 3814.0, 61.7576
21.788231542, 96.390, 3952.0, 62.8649
21.814492107, 96.390, 4013.0, 63.3482
21.840752672, 96.390, 3978.0, 63.0714
21.867013238, 96.390, 4079.0, 63.8670
21.893273803, 96.390, 3876.0, 62.2575
21.919534368, 96.390, 3896.0, 62.4179
21.945794934, 96.390, 3857.0, 62.1048
21.972055499, 96.390, 4019.0, 63.3956
21.998316064, 96.390, 3933.0, 62.7136
22.024576630, 96.390, 3996.0, 63.2139
22.050837195, 96.390, 3989.0, 63.1585
22.077097761, 96.390, 4028.0, 63.4665
22.103358326, 96.390, 4029.0, 63.4744
22.129618891, 96.390, 3965.0, 62.9682
22.155879457, 96.390, 4033.0, 63.5059
22.182140022, 96.390, 4007.0, 63.3009
22.208400587, 96.390, 3999.0, 63.2376
22.234661153, 96.390, 3926.0, 62.6578
22.260921718, 96.390, 3987.0, 63.1427
22.287182283, 96.390, 3811.0, 61.7333
22.313442849, 96.390, 3935.0, 62.7296
22.339703414, 96.390, 3962.0, 62.9444
22.365963979, 96.390, 3811.0, 61.7333
22.392224545, 96.390, 3821.0, 61.8142
22.418485110, 96.390, 4002.0, 63.2614
22.444745675, 96.390, 3932.0, 62.7057
22.471006241, 96.390, 4010.0, 63.3246
22.497266806, 96.390, 3799.0, 61.6360
22.523527372, 96.390, 3872.0, 62.2254
22.549787937, 96.390, 3816.0, 61.7738
22.576048502, 96.390, 3837.0, 61.9435
22.602309068, 96.390, 3922.0, 62.6259
22.628569633, 96.390, 3874.0, 62.2415
22.654830198, 96.390, 3759.0, 61.3107
22.681090764, 96.390, 3844.0, 62.0000
22.707351329, 96.390, 3926.0, 62.6578
22.733611894, 96.390, 3782.0, 61.4980
22.759872460, 96.390, 3933.0, 62.7136
22.786133025, 96.390, 3849.0, 62.0403
22.812393590, 96.390, 3838.0, 61.9516
22.838654156, 96.390, 3854.0, 62.0806
22.864914721, 96.390, 3820.0, 61.8061
22.891175287, 96.390, 3823.0, 61.8304
22.917435852, 96.390, 3879.0, 62.2816
22.943696417, 96.390, 3831.0, 61.8951
22.969956983, 96.390, 3782.0, 61.4980
22.996217548, 96.390, 3737.0, 61.1310
23.022478113, 96.390, 3827.0, 61.8628
23.048738679, 96.390, 3792.0, 61.5792
23.074999244, 96.390, 3798.0, 61.6279
23.101259809, 96.390, 3867.0, 62.1852
23.127520375, 96.390, 3845.0, 62.0081
23.153780940, 96.390, 3686.0, 60.7124
23.180041505, 96.390, 3867.0, 62.1852
23.206302071, 96.390, 3758.0, 61.3025
23.232562636, 96.390, 3783.0, 61.5061
23.258823201, 96.390, 3822.0, 61.8223
23.285083767, 96.390, 3757.0, 61.2944
23.311344332, 96.390, 3806.0, 61.6928
23.337604898, 96.390, 3736.0, 61.1228
23.363865463, 96.390, 3742.0, 61.1719
23.390126028, 96.390, 3787.0, 61.5386
23.416386594, 96.390, 3667.0, 60.5558
23.442647159, 96.390, 3593.0, 59.9416
23.468907724, 96.390, 3607.0, 60.0583
23.495168290, 96.390, 3699.0, 60.8194
23.521428855, 96.390, 3645.0, 60.3738
23.547689420, 96.390, 3636.0, 60.2993
23.573949986, 96.390, 3606.0, 60.0500
23.600210551, 96.390, 3679.0, 60.6548
23.626471116, 96.390, 3651.0, 60.4235
23.652731682, 96.390, 3614.0, 60.1166
23.678992247, 96.390, 3563.0, 59.6909
23.705252813, 96.390, 3606.0, 60.0500
23.731513378, 96.390, 3598.0, 59.9833
23.757773943, 96.390, 3492.0, 59.0931
23.784034509, 96.390, 3619.0, 60.1581
23.810295074, 96.390, 3518.0, 59.3127
23.836555639, 96.390, 3552.0, 59.5987
23.862816205, 96.390, 3600.0, 60.0000
23.889076770, 96.390, 3546.0, 59.5483
23.915337335, 96.390, 3598.0, 59.9833
23.941597901, 96.390, 3438.0, 58.6345
23.967858466, 96.390, 3532.0, 59.4306
23.994119031, 96.390, 3511.0, 59.2537
24.020379597, 96.390, 3544.0, 59.5315
24.046640162, 96.390, 3430.0, 58.5662
24.072900727, 96.390, 3535.0, 59.4559
24.099161293, 96.390, 3410.0, 58.3952
24.125421858, 96.390, 3424.0, 58.5150
24.151682424, 96.390, 3421.0, 58.4893
24.177942989, 96.390, 3467.0, 58.8812
24.204203554, 96.390, 3395.0, 58.2666
24.230464120, 96.390, 3365.0, 58.0086
24.256724685, 96.390, 3403.0, 58.3352
24.282985250, 96.390, 3348.0, 57.8619
24.309245816, 96.390, 3316.0, 57.5847
24.335506381, 96.390, 3402.0, 58.3267
24.361766946, 96.390, 3421.0, 58.4893
24.388027512, 96.390, 3342.0, 57.8100
24.414288077, 96.390, 3361.0, 57.9741
24.440548642, 96.390, 3379.0, 58.1292
24.466809208, 96.390, 3181.0, 56.4004
24.493069773, 96.390, 3299.0, 57.4369
24.519330338, 96.390, 3342.0, 57.8100
24.545590904, 96.390, 3353.0, 57.9051
24.571851469, 96.390, 3291.0, 57.3672
24.598112035, 96.390, 3301.0, 57.4543
24.624372600, 96.390, 3320.0, 57.6194
24.650633165, 96.390, 3267.0, 57.1577
24.676893731, 96.390, 3238.0, 56.9034
24.703154296, 96.390, 3196.0, 56.5332
24.729414861, 96.390, 3194.0, 56.5155
24.755675427, 96.390, 3167.0, 56.2761
24.781935992, 96.390, 3183.0, 56.4181
24.808196557, 96.390, 3215.0, 56.7010
24.834457123, 96.390, 3248.0, 56.9912
24.860717688, 96.390, 3192.0, 56.4978
24.886978253, 96.390, 3137.0, 56.0089
24.913238819, 96.390, 3111.0, 55.7763
24.939499384, 96.390, 3178.0, 56.3738
24.965759950, 96.390, 3128.0, 55.9285
24.992020515, 96.390, 3204.0, 56.6039
25.018281080, 96.390, 3171.0, 56.3116
25.044541646, 96.390, 3066.0, 55.3715
25.070802211, 96.390, 3292.0, 57.3760
25.097062776, 96.390, 3159.0, 56.2050
25.123323342, 96.390, 3063.0, 55.3444
25.149583907, 96.390, 3074.0, 55.4437
25.175844472, 96.390, 3089.0, 55.5788
25.202105038, 96.390, 3112.0, 55.7853
25.228365603, 96.390, 2997.0, 54.7449
25.254626168, 96.390, 3010.0, 54.8635
25.280886734, 96.390, 3095.0, 55.6327
25.307147299, 96.390, 3082.0, 55.5158
25.333407864, 96.390, 2996.0, 54.7357
25.359668430, 96.390, 3071.0, 55.4166
25.385928995, 96.390, 2998.0, 54.7540
25.412189561, 96.390, 3071.0, 55.4166
25.438450126, 96.390, 2977.0, 54.5619
25.464710691, 96.390, 2989.0, 54.6717
25.490971257, 96.390, 3021.0, 54.9636
25.517231822, 96.390, 2984.0, 54.6260
25.543492387, 96.390, 2893.0, 53.7866
25.569752953, 96.390, 2916.0, 54.0000
25.596013518, 96.390, 3025.0, 55.0000
25.622274083, 96.390, 2996.0, 54.7357
25.648534649, 96.390, 3012.0, 54.8817
25.674795214, 96.390, 3014.0, 54.8999
25.701055779, 96.390, 2894.0, 53.7959
25.727316345, 96.390, 2863.0, 53.5070
25.753576910, 96.390, 2856.0, 53.4416
25.779837476, 96.390, 2923.0, 54.0648
25.806098041, 96.390, 2831.0, 53.2071
25.832358606, 96.390, 2825.0, 53.1507
25.858619172, 96.390, 2950.0, 54.3139
25.884879737, 96.390, 2871.0, 53.5817
25.911140302, 96.390, 2793.0, 52.8488
25.937400868, 96.390, 2845.0, 53.3385
25.963661433, 96.390, 3007.0, 54.8361
25.989921998, 96.390, 2937.0, 54.1941
26.016182564, 96.390, 2830.0, 53.1977
26.042443129, 96.390, 2818.0, 53.0848
26.068703694, 96.390, 2821.0, 53.1131
26.094964260, 96.390, 2840.0, 53.2917
26.121224825, 96.390, 2756.0, 52.4976
26.147485390, 96.390, 2757.0, 52.5071
26.173745956, 96.390, 2740.0, 52.3450
26.200006521, 96.390, 2753.0, 52.4690
26.226267087, 96.390, 2763.0, 52.5642
26.252527652, 96.390, 2772.0, 52.6498
26.278788217, 96.390, 2796.0, 52.8772
26.305048783, 96.390, 2763.0, 52.5642
26.331309348, 96.390, 2711.0, 52.0673
26.357569913, 96.390, 2708.0, 52.0384
26.383830479, 96.390, 2712.0, 52.0769
26.410091044, 96.390, 2682.0, 51.7880
26.436351609, 96.390, 2709.0, 52.0481
26.462612175, 96.390, 2650.0, 51.4782
26.488872740, 96.390, 2718.0, 52.1344
26.515133305, 96.390, 2707.0, 52.0288
26.541393871, 96.390, 2702.0, 51.9808
26.567654436, 96.390, 2640.0, 51.3809
26.593915002, 96.390, 2619.0, 51.1762
26.620175567, 96.390, 2746.0, 52.4023
26.646436132, 96.390, 2628.0, 51.2640
26.672696698, 96.390, 2595.0, 50.9411
26.698957263, 96.390, 2582.0, 50.8134
26.725217828, 96.390, 2601.0, 51.0000
26.751478394, 96.390, 2632.0, 51.3030
26.777738959, 96.390, 2610.0, 51.0882
26.803999524, 96.390, 2666.0, 51.6333
26.830260090, 96.390, 2669.0, 51.6624
26.856520655, 96.390, 2561.0, 50.6063
26.882781220, 96.390, 2653.0, 51.5073
26.909041786, 96.390, 2615.0, 51.1371
26.935302351, 96.390, 2695.0, 51.9134
26.961562916, 96.390, 2595.0, 50.9411
26.987823482, 96.390, 2463.0, 49.6286
27.014084047, 96.390, 2540.0, 50.3984
27.040344613, 96.390, 2565.0, 50.6458
27.066605178, 96.390, 2549.0, 50.4876
27.092865743, 96.390, 2577.0, 50.7642
27.119126309, 96.390, 2641.0, 51.3907
27.145386874, 96.390, 2527.0, 50.2693
27.171647439, 96.390, 2607.0, 51.0588
27.197908005, 96.390, 2568.0, 50.6754
27.224168570, 96.390, 2551.0, 50.5074
27.250429135, 96.390, 2494.0, 49.9400
27.276689701, 96.390, 2524.0, 50.2394
27.302950266, 96.390, 2559.0, 50.5866
27.329210831, 96.390, 2538.0, 50.3786
27.355471397, 96.390, 2500.0, 50.0000
27.381731962, 96.390, 2484.0, 49.8397
27.407992528, 96.390, 2562.0, 50.6162
27.434253093, 96.390, 2539.0, 50.3885
27.460513658, 96.390, 2537.0, 50.3686
27.486774224, 96.390, 2420.0, 49.1935
27.513034789, 96.390, 2476.0, 49.7594
27.539295354, 96.390, 2526.0, 50.2593
27.565555920, 96.390, 2414.0, 49.1325
27.591816485, 96.390, 2382.0, 48.8057
27.618077050, 96.390, 2378.0, 48.7647
27.644337616, 96.390, 2422.0, 49.2138
27.670598181, 96.390, 2377.0, 48.7545
27.696858746, 96.390, 2462.0, 49.6185
27.723119312, 96.390, 2469.0, 49.6890
27.749379877, 96.390, 2456.0, 49.5580
27.775640442, 96.390, 2427.0, 49.2646
27.801901008, 96.390, 2379.0, 48.7750
27.828161573, 96.390, 2379.0, 48.7750
27.854422139, 96.390, 2407.0, 49.0612
27.880682704, 96.390, 2438.0, 49.3761
27.906943269, 96.390, 2429.0, 49.2849
27.933203835, 96.390, 2455.0, 49.5480
27.959464400, 96.390, 2351.0, 48.4871
27.985724965, 96.390, 2393.0, 48.9183
28.011985531, 96.390, 2354.0, 48.5180
28.038246096, 96.390, 2238.0, 47.3075
28.064506661, 96.390, 2305.0, 48.0104
28.090767227, 96.390, 2364.0, 48.6210
28.117027792, 96.390, 2436.0, 49.3559
28.143288357, 96.390, 2381.0, 48.7955
28.169548923, 96.390, 2397.0, 48.9592
28.195809488, 96.390, 2365.0, 48.6313
28.222070054, 96.390, 2323.0, 48.1975
28.248330619, 96.390, 2297.0, 47.9270
28.274591184, 96.390, 2361.0, 48.5901
28.300851750, 96.390, 2399.0, 48.9796
28.327112315, 96.390, 2299.0, 47.9479
28.353372880, 96.390, 2322.0, 48.1871
28.379633446, 96.390, 2364.0, 48.6210
28.405894011, 96.390, 2278.0, 47.7284
28.432154576, 96.390, 2259.0, 47.5289
28.458415142, 96.390, 2233.0, 47.2546
28.484675707, 96.390, 2279.0, 47.7389
28.510936272, 96.390, 2375.0, 48.7340
28.537196838, 96.390, 2310.0, 48.0625
28.563457403, 96.390, 2294.0, 47.8957
28.589717968, 96.390, 2290.0, 47.8539
28.615978534, 96.390, 2274.0, 47.6865
28.642239099, 96.390, 2290.0, 47.8539
28.668499665, 96.390, 2325.0, 48.2183
28.694760230, 96.390, 2193.0, 46.8295
28.721020795, 96.390, 2203.0, 46.9361
28.747281361, 96.390, 2228.0, 47.2017
28.773541926, 96.390, 2171.0, 46.5940
28.799802491, 96.390, 2315.0, 48.1144
28.826063057, 96.390, 2243.0, 47.3603
28.852323622, 96.390, 2269.0, 47.6340
28.878584187, 96.390, 2289.0, 47.8435
28.904844753, 96.390, 2188.0, 46.7761
28.931105318, 96.390, 2285.0, 47.8017
28.957365883, 96.390, 2264.0, 47.5815
28.983626449, 96.390, 2229.0, 47.2123
29.009887014, 96.390, 2290.0, 47.8539
29.036147579, 96.390, 2217.0, 47.0850
29.062408145, 96.390, 2245.0, 47.3814
29.088668710, 96.390, 2223.0, 47.1487
29.114929276, 96.390, 2195.0, 46.8508
29.141189841, 96.390, 2330.0, 48.2701
29.167450406, 96.390, 2268.0, 47.6235
29.193710972, 96.390, 2152.0, 46.3897
29.219971537, 96.390, 2242.0, 47.3498
29.246232102, 96.390, 2217.0, 47.0850
29.272492668, 96.390, 2163.0, 46.5081
29.298753233, 96.390, 2173.0, 46.6154
29.325013798, 96.390, 2238.0, 47.3075
29.351274364, 96.390, 2187.0, 46.7654
29.377534929, 96.390, 2145.0, 46.3141
29.403795494, 96.390, 2208.0, 46.9894
29.430056060, 96.390, 2243.0, 47.3603
29.456316625, 96.390, 2164.0, 46.5188
29.482577191, 96.390, 2067.0, 45.4643
29.508837756, 96.390, 2214.0, 47.0532
29.535098321, 96.390, 2189.0, 46.7868
29.561358887, 96.390, 2147.0, 46.3357
29.587619452, 96.390, 2195.0, 46.8508
29.613880017, 96.390, 2169.0, 46.5725
29.640140583, 96.390, 2106.0, 45.8912
29.666401148, 96.390, 2118.0, 46.0217
29.692661713, 96.390, 2172.0, 46.6047
29.718922279, 96.390, 2155.0, 46.4220
29.745182844, 96.390, 2094.0, 45.7602
29.771443409, 96.390, 2082.0, 45.6289
29.797703975, 96.390, 2169.0, 46.5725
29.823964540, 96.390, 2110.0, 45.9347
29.850225105, 96.390, 2232.0, 47.2440
29.876485671, 96.390, 2151.0, 46.3789
29.902746236, 96.390, 2194.0, 46.8402
29.929006802, 96.390, 2108.0, 45.9130
29.955267367, 96.390, 2221.0, 47.1275
29.981527932, 96.390, 2132.0, 46.1736
30.007788498, 96.390, 2151.0, 46.3789
30.034049063, 96.390, 2139.0, 46.2493
30.060309628, 96.390, 2047.0, 45.2438
30.086570194, 96.390, 2147.0, 46.3357
30.112830759, 96.390, 2052.0, 45.2990
30.139091324, 96.390, 2018.0, 44.9222
30.165351890, 96.390, 2112.0, 45.9565
30.191612455, 96.390, 2121.0, 46.0543
30.217873020, 96.390, 2093.0, 45.7493
30.244133586, 96.390, 2049.0, 45.2659
30.270394151, 96.390, 2137.0, 46.2277
30.296654717, 96.390, 2080.0, 45.6070
30.322915282, 96.390, 2089.0, 45.7056
30.349175847, 96.390, 2012.0, 44.8553
30.375436413, 96.390, 2014.0, 44.8776
30.401696978, 96.390, 1957.0, 44.2380
30.427957543, 96.390, 2006.0, 44.7884
30.454218109, 96.390, 2128.0, 46.1303
30.480478674, 96.390, 2036.0, 45.1221
30.506739239, 96.390, 2004.0, 44.7661
30.532999805, 96.390, 2007.0, 44.7996
30.559260370, 96.390, 1992.0, 44.6318
30.585520935, 96.390, 2038.0, 45.1442
30.611781501, 96.390, 1957.0, 44.2380
30.638042066, 96.390, 2033.0, 45.0888
30.664302631, 96.390, 1968.0, 44.3621
30.690563197, 96.390, 1990.0, 44.6094
30.716823762, 96.390, 2073.0, 45.5302
30.743084328, 96.390, 1967.0, 44.3509
30.769344893, 96.390, 1968.0, 44.3621
30.795605458, 96.390, 2072.0, 45.5192
30.821866024, 96.390, 1980.0, 44.4972
30.848126589, 96.390, 2054.0, 45.3211
30.874387154, 96.390, 2009.0, 44.8219
30.900647720, 96.390, 1990.0, 44.6094
30.926908285, 96.390, 1986.0, 44.5646
30.953168850, 96.390, 2069.0, 45.4863
30.979429416, 96.390, 1988.0, 44.5870
31.005689981, 96.390, 1971.0, 44.3959
31.031950546, 96.390, 2018.0, 44.9222
31.058211112, 96.390, 1996.0, 44.6766
31.084471677, 96.390, 1895.0, 43.5316
31.110732243, 96.390, 1978.0, 44.4747
31.136992808, 96.390, 2011.0, 44.8442
31.163253373, 96.390, 2000.0, 44.7214
31.189513939, 96.390, 1994.0, 44.6542
31.215774504, 96.390, 2031.0, 45.0666
31.242035069, 96.390, 2050.0, 45.2769
31.268295635, 96.390, 1910.0, 43.7035
31.294556200, 96.390, 1999.0, 44.7102
31.320816765, 96.390, 1949.0, 44.1475
31.347077331, 96.390, 1921.0, 43.8292
31.373337896, 96.390, 1979.0, 44.4860
31.399598461, 96.390, 1964.0, 44.3170
31.425859027, 96.390, 1901.0, 43.6005
31.452119592, 96.390, 1980.0, 44.4972
31.478380157, 96.390, 1989.0, 44.5982
31.504640723, 96.390, 1973.0, 44.4185
31.530901288, 96.390, 1885.0, 43.4166
31.557161854, 96.390, 1976.0, 44.4522
31.583422419, 96.390, 1936.0, 44.0000
31.609682984, 96.390, 1876.0, 43.3128
31.635943550, 96.390, 1950.0, 44.1588
31.662204115, 96.390, 1909.0, 43.6921
31.688464680, 96.390, 1976.0, 44.4522
31.714725246, 96.390, 1860.0, 43.1277
31.740985811, 96.390, 1946.0, 44.1135
31.767246376, 96.390, 1888.0, 43.4511
31.793506942, 96.390, 1911.0, 43.7150
31.819767507, 96.390, 1900.0, 43.5890
31.846028072, 96.390, 1977.0, 44.4635
31.872288638, 96.390, 1912.0, 43.7264
31.898549203, 96.390, 1839.0, 42.8836
31.924809769, 96.390, 1882.0, 43.3820
31.951070334, 96.390, 1913.0, 43.7379
31.977330899, 96.390, 1940.0, 44.0454
32.003591465, 96.390, 1937.0, 44.0114
32.029852030, 96.390, 1851.0, 43.0232
32.056112595, 96.390, 1860.0, 43.1277
32.082373161, 96.390, 1904.0, 43.6348
32.108633726, 96.390, 1911.0, 43.7150
32.134894291, 96.390, 1927.0, 43.8976
32.161154857, 96.390, 1848.0, 42.9884
32.187415422, 96.390, 1861.0, 43.1393
32.213675987, 96.390, 1884.0, 43.4051
32.239936553, 96.390, 1891.0, 43.4856
32.266197118, 96.390, 1917.0, 43.7836
32.292457683, 96.390, 1797.0, 42.3910
32.318718249, 96.390, 1842.0, 42.9185
32.344978814, 96.390, 1806.0, 42.4971
32.371239380, 96.390, 1909.0, 43.6921
32.397499945, 96.390, 1832.0, 42.8019
32.423760510, 96.390, 1891.0, 43.4856
32.450021076, 96.390, 1795.0, 42.3674
32.476281641, 96.390, 1820.0, 42.6615
32.502542206, 96.390, 1881.0, 43.3705
32.528802772, 96.390, 1868.0, 43.2204
32.555063337, 96.390, 1835.0, 42.8369
32.581323902, 96.390, 1876.0, 43.3128
32.607584468, 96.390, 1840.0, 42.8952
32.633845033, 96.390, 1820.0, 42.6615
32.660105598, 96.390, 1886.0, 43.4281
32.686366164, 96.390, 1843.0, 42.9302
32.712626729, 96.390, 1789.0, 42.2966
32.738887295, 96.390, 1735.0, 41.6533
32.765147860, 96.390, 1794.0, 42.3556
32.791408425, 96.390, 1766.0, 42.0238
32.817668991, 96.390, 1752.0, 41.8569
32.843929556, 96.390, 1838.0, 42.8719
32.870190121, 96.390, 1749.0, 41.8210
32.896450687, 96.390, 1824.0, 42.7083
32.922711252, 96.390, 1729.0, 41.5812
32.948971817, 96.390, 1868.0, 43.2204
32.975232383, 96.390, 1787.0, 42.2729
33.001492948, 96.390, 1820.0, 42.6615
33.027753513, 96.390, 1785.0, 42.2493
33.054014079, 96.390, 1756.0, 41.9047
33.080274644, 96.390, 1736.0, 41.6653
33.106535209, 96.390, 1791.0, 42.3202
33.132795775, 96.390, 1793.0, 42.3438
33.159056340, 96.390, 1704.0, 41.2795
33.185316906, 96.390, 1813.0, 42.5793
33.211577471, 96.390, 1787.0, 42.2729
33.237838036, 96.390, 1830.0, 42.7785
33.264098602, 96.390, 1753.0, 41.8688
33.290359167, 96.390, 1771.0, 42.0833
33.316619732, 96.390, 1755.0, 41.8927
33.342880298, 96.390, 1765.0, 42.0119
33.369140863, 96.390, 1755.0, 41.8927
33.395401428, 96.390, 1737.0, 41.6773
33.421661994, 96.390, 1690.0, 41.1096
33.447922559, 96.390, 1788.0, 42.2847
33.474183124, 96.390, 1749.0, 41.8210
33.500443690, 96.390, 1704.0, 41.2795
33.526704255, 96.390, 1840.0, 42.8952
33.552964820, 96.390, 1721.0, 41.4849
33.579225386, 96.390, 1724.0, 41.5211
33.605485951, 96.390, 1744.0, 41.7612
33.631746517, 96.390, 1744.0, 41.7612
33.658007082, 96.390, 1750.0, 41.8330
33.684267647, 96.390, 1791.0, 42.3202
33.710528213, 96.390, 1808.0, 42.5206
33.736788778, 96.390, 1758.0, 41.9285
33.763049343, 96.390, 1741.0, 41.7253
33.789309909, 96.390, 1721.0, 41.4849
33.815570474, 96.390, 1755.0, 41.8927
33.841831039, 96.390, 1738.0, 41.6893
33.868091605, 96.390, 1797.0, 42.3910
33.894352170, 96.390, 1838.0, 42.8719
33.920612735, 96.390, 1867.0, 43.2088
33.946873301, 96.390, 1742.0, 41.7373
33.973133866, 96.390, 1669.0, 40.8534
33.999394432, 96.390, 1753.0, 41.8688
34.025654997, 96.390, 1878.0, 43.3359
34.051915562, 96.390, 1775.0, 42.1307
34.078176128, 96.390, 1768.0, 42.0476
34.104436693, 96.390, 1728.0, 41.5692
34.130697258, 96.390, 1728.0, 41.5692
34.156957824, 96.390, 1721.0, 41.4849
34.183218389, 96.390, 1718.0, 41.4488
34.209478954, 96.390, 1780.0, 42.1900
34.235739520, 96.390, 1732.0, 41.6173
34.262000085, 96.390, 1724.0, 41.5211
34.288260650, 96.390, 1715.0, 41.4126
34.314521216, 96.390, 1774.0, 42.1189
34.340781781, 96.390, 1716.0, 41.4246
34.367042346, 96.390, 1796.0, 42.3792
34.393302912, 96.390, 1641.0, 40.5093
34.419563477, 96.390, 1841.0, 42.9069
34.445824043, 96.390, 1756.0, 41.9047
34.472084608, 96.390, 1711.0, 41.3642
34.498345173, 96.390, 1706.0, 41.3038
34.524605739, 96.390, 1740.0, 41.7133
34.550866304, 96.390, 1683.0, 41.0244
34.577126869, 96.390, 1714.0, 41.4005
34.603387435, 96.390, 1798.0, 42.4028
34.629648000, 96.390, 1784.0, 42.2374
34.655908565, 96.390, 1778.0, 42.1663
34.682169131, 96.390, 1800.0, 42.4264
34.708429696, 96.390, 1785.0, 42.2493
34.734690261, 96.390, 1812.0, 42.5676
34.760950827, 96.390, 1756.0, 41.9047
34.787211392, 96.390, 1782.0, 42.2137
34.813471958, 96.390, 1731.0, 41.6053
34.839732523, 96.390, 1811.0, 42.5558
34.865993088, 96.390, 1783.0, 42.2256
34.892253654, 96.390, 1785.0, 42.2493
34.918514219, 96.390, 1778.0, 42.1663
34.944774784, 96.390, 1759.0, 41.9404
34.971035350, 96.390, 1725.0, 41.5331
34.997295915, 96.390, 1724.0, 41.5211
35.023556480, 96.390, 1845.0, 42.9535
35.049817046, 96.390, 1821.0, 42.6732
35.076077611, 96.390, 1800.0, 42.4264
35.102338176, 96.390, 1699.0, 41.2189
35.128598742, 96.390, 1681.0, 41.0000
35.154859307, 96.390, 1722.0, 41.4970
35.181119872, 96.390, 1729.0, 41.5812
35.207380438, 96.390, 1773.0, 42.1070
35.233641003, 96.390, 1776.0, 42.1426
35.259901569, 96.390, 1689.0, 41.0974
35.286162134, 96.390, 1791.0, 42.3202
35.312422699, 96.390, 1717.0, 41.4367
35.338683265, 96.390, 1744.0, 41.7612
35.364943830, 96.390, 1725.0, 41.5331
35.391204395, 96.390, 1686.0, 41.0609
35.417464961, 96.390, 1745.0, 41.7732
35.443725526, 96.390, 1776.0, 42.1426
35.469986091, 96.390, 1752.0, 41.8569
35.496246657, 96.390, 1720.0, 41.4729
35.522507222, 96.390, 1679.0, 40.9756
35.548767787, 96.390, 1784.0, 42.2374
35.575028353, 96.390, 1636.0, 40.4475
35.601288918, 96.390, 1704.0, 41.2795
35.627549484, 96.390, 1721.0, 41.4849
35.653810049, 96.390, 1663.0, 40.7799
35.680070614, 96.390, 1728.0, 41.5692
35.706331180, 96.390, 1745.0, 41.7732
35.732591745, 96.390, 1686.0, 41.0609
35.758852310, 96.390, 1741.0, 41.7253
35.785112876, 96.390, 1620.0, 40.2492
35.811373441, 96.390, 1691.0, 41.1218
35.837634006, 96.390, 1763.0, 41.9881
35.863894572, 96.390, 1755.0, 41.8927
35.890155137, 96.390, 1672.0, 40.8901
35.916415702, 96.390, 1733.0, 41.6293
35.942676268, 96.390, 1658.0, 40.7185
35.968936833, 96.390, 1661.0, 40.7554
35.995197398, 96.390, 1721.0, 41.4849
36.021457964, 96.390, 1641.0, 40.5093
36.047718529, 96.390, 1593.0, 39.9124
36.073979095, 96.390, 1676.0, 40.9390
36.100239660, 96.390, 1633.0, 40.4104
36.126500225, 96.390, 1583.0, 39.7869
36.152760791, 96.390, 1656.0, 40.6940
36.179021356, 96.390, 1655.0, 40.6817
36.205281921, 96.390, 1701.0, 41.2432
36.231542487, 96.390, 1711.0, 41.3642
36.257803052, 96.390, 1726.0, 41.5452
36.284063617, 96.390, 1707.0, 41.3159
36.310324183, 96.390, 1639.0, 40.4846
36.336584748, 96.390, 1614.0, 40.1746
36.362845313, 96.390, 1672.0, 40.8901
36.389105879, 96.390, 1601.0, 40.0125
36.415366444, 96.390, 1637.0, 40.4599
36.441627010, 96.390, 1633.0, 40.4104
36.467887575, 96.390, 1642.0, 40.5216
36.494148140, 96.390, 1584.0, 39.7995
36.520408706, 96.390, 1605.0, 40.0625
36.546669271, 96.390, 1680.0, 40.9878
36.572929836, 96.390, 1633.0, 40.4104
36.599190402, 96.390, 1633.0, 40.4104
36.625450967, 96.390, 1611.0, 40.1373
36.651711532, 96.390, 1643.0, 40.5339
36.677972098, 96.390, 1607.0, 40.0874
36.704232663, 96.390, 1625.0, 40.3113
36.730493228, 96.390, 1551.0, 39.3827
36.756753794, 96.390, 1586.0, 39.8246
36.783014359, 96.390, 1555.0, 39.4335
36.809274924, 96.390, 1588.0, 39.8497
36.835535490, 96.390, 1577.0, 39.7115
36.861796055, 96.390, 1584.0, 39.7995
36.888056621, 96.390, 1599.0, 39.9875
36.914317186, 96.390, 1602.0, 40.0250
36.940577751, 96.390, 1569.0, 39.6106
36.966838317, 96.390, 1554.0, 39.4208
36.993098882, 96.390, 1529.0, 39.1024
37.019359447, 96.390, 1551.0, 39.3827
37.045620013, 96.390, 1589.0, 39.8623
37.071880578, 96.390, 1493.0, 38.6394
37.098141143, 96.390, 1635.0, 40.4351
37.124401709, 96.390, 1604.0, 40.0500
37.150662274, 96.390, 1478.0, 38.4448
37.176922839, 96.390, 1556.0, 39.4462
37.203183405, 96.390, 1515.0, 38.9230
37.229443970, 96.390, 1484.0, 38.5227
37.255704535, 96.390, 1511.0, 38.8716
37.281965101, 96.390, 1510.0, 38.8587
37.308225666, 96.390, 1439.0, 37.9342
37.334486232, 96.390, 1482.0, 38.4968
37.360746797, 96.390, 1536.0, 39.1918
37.387007362, 96.390, 1478.0, 38.4448
37.413267928, 96.390, 1546.0, 39.3192
37.439528493, 96.390, 1514.0, 38.9102
37.465789058, 96.390, 1481.0, 38.4838
37.492049624, 96.390, 1492.0, 38.6264
37.518310189, 96.390, 1480.0, 38.4708
37.544570754, 96.390, 1415.0, 37.6165
37.570831320, 96.390, 1474.0, 38.3927
37.597091885, 96.390, 1590.0, 39.8748
37.623352450, 96.390, 1504.0, 38.7814
37.649613016, 96.390, 1536.0, 39.1918
37.675873581, 96.390, 1520.0, 38.9872
37.702134147, 96.390, 1492.0, 38.6264
37.728394712, 96.390, 1489.0, 38.5876
37.754655277, 96.390, 1462.0, 38.2361
37.780915843, 96.390, 1440.0, 37.9473
37.807176408, 96.390, 1501.0, 38.7427
37.833436973, 96.390, 1503.0, 38.7685
37.859697539, 96.390, 1461.0, 38.2230
37.885958104, 96.390, 1408.0, 37.5233
37.912218669, 96.390, 1453.0, 38.1182
37.938479235, 96.390, 1444.0, 38.0000
37.964739800, 96.390, 1449.0, 38.0657
37.991000365, 96.390, 1413.0, 37.5899
38.017260931, 96.390, 1447.0, 38.0395
38.043521496, 96.390, 1376.0, 37.0945
38.069782061, 96.390, 1418.0, 37.6563
38.096042627, 96.390, 1395.0, 37.3497
38.122303192, 96.390, 1499.0, 38.7169
38.148563758, 96.390, 1383.0, 37.1887
38.174824323, 96.390, 1442.0, 37.9737
38.201084888, 96.390, 1405.0, 37.4833
38.227345454, 96.390, 1405.0, 37.4833
38.253606019, 96.390, 1472.0, 38.3667
38.279866584, 96.390, 1503.0, 38.7685
38.306127150, 96.390, 1395.0, 37.3497
38.332387715, 96.390, 1372.0, 37.0405
38.358648280, 96.390, 1437.0, 37.9078
38.384908846, 96.390, 1387.0, 37.2424
38.411169411, 96.390, 1423.0, 37.7227
38.437429976, 96.390, 1371.0, 37.0270
38.463690542, 96.390, 1398.0, 37.3898
38.489951107, 96.390, 1411.0, 37.5633
38.516211673, 96.390, 1432.0, 37.8418
38.542472238, 96.390, 1375.0, 37.0810
38.568732803, 96.390, 1335.0, 36.5377
38.594993369, 96.390, 1369.0, 37.0000
38.621253934, 96.390, 1421.0, 37.6962
38.647514499, 96.390, 1370.0, 37.0135
38.673775065, 96.390, 1430.0, 37.8153
38.700035630, 96.390, 1411.0, 37.5633
38.726296195, 96.390, 1295.0, 35.9861
38.752556761, 96.390, 1395.0, 37.3497
38.778817326, 96.390, 1355.0, 36.8103
38.805077891, 96.390, 1397.0, 37.3765
38.831338457, 96.390, 1333.0, 36.5103
38.857599022, 96.390, 1378.0, 37.1214
38.883859587, 96.390, 1363.0, 36.9188
38.910120153, 96.390, 1331.0, 36.4829
38.936380718, 96.390, 1415.0, 37.6165
38.962641284, 96.390, 1363.0, 36.9188
38.988901849, 96.390, 1332.0, 36.4966
39.015162414, 96.390, 1360.0, 36.8782
39.041422980, 96.390, 1354.0, 36.7967
39.067683545, 96.390, 1323.0, 36.3731
39.093944110, 96.390, 1346.0, 36.6879
39.120204676, 96.390, 1295.0, 35.9861
39.146465241, 96.390, 1341.0, 36.6197
39.172725806, 96.390, 1265.0, 35.5668
39.198986372, 96.390, 1334.0, 36.5240
39.225246937, 96.390, 1252.0, 35.3836
39.251507502, 96.390, 1315.0, 36.2629
39.277768068, 96.390, 1346.0, 36.6879
39.304028633, 96.390, 1364.0, 36.9324
39.330289199, 96.390, 1297.0, 36.0139
39.356549764, 96.390, 1306.0, 36.1386
39.382810329, 96.390, 1309.0, 36.1801
39.409070895, 96.390, 1332.0, 36.4966
39.435331460, 96.390, 1264.0, 35.5528
39.461592025, 96.390, 1327.0, 36.4280
39.487852591, 96.390, 1324.0, 36.3868
39.514113156, 96.390, 1408.0, 37.5233
39.540373721, 96.390, 1309.0, 36.1801
39.566634287, 96.390, 1288.0, 35.8887
39.592894852, 96.390, 1261.0, 35.5106
39.619155417, 96.390, 1265.0, 35.5668
39.645415983, 96.390, 1302.0, 36.0832
39.671676548, 96.390, 1302.0, 36.0832
39.697937113, 96.390, 1322.0, 36.3593
39.724197679, 96.390, 1318.0, 36.3043
39.750458244, 96.390, 1262.0, 35.5246
39.776718810, 96.390, 1315.0, 36.2629
39.802979375, 96.390, 1282.0, 35.8050
39.829239940, 96.390, 1346.0, 36.6879
39.855500506, 96.390, 1301.0, 36.0694
39.881761071, 96.390, 1273.0, 35.6791
39.908021636, 96.390, 1298.0, 36.0278
39.934282202, 96.390, 1247.0, 35.3129
39.960542767, 96.390, 1283.0, 35.8190
39.986803332, 96.390, 1230.0, 35.0714
40.013063898, 96.390, 1318.0, 36.3043
40.039324463, 96.390, 1268.0, 35.6090
40.065585028, 96.390, 1243.0, 35.2562
40.091845594, 96.390, 1260.0, 35.4965
40.118106159, 96.390, 1282.0, 35.8050
40.144366725, 96.390, 1317.0, 36.2905
40.170627290, 96.390, 1273.0, 35.6791
40.196887855, 96.390, 1233.0, 35.1141
40.223148421, 96.390, 1302.0, 36.0832
40.249408986, 96.390, 1318.0, 36.3043
40.275669551, 96.390, 1276.0, 35.7211
40.301930117, 96.390, 1255.0, 35.4260
40.328190682, 96.390, 1238.0, 35.1852
40.354451247, 96.390, 1217.0, 34.8855
40.380711813, 96.390, 1244.0, 35.2704
40.406972378, 96.390, 1230.0, 35.0714
40.433232943, 96.390, 1283.0, 35.8190
40.459493509, 96.390, 1201.0, 34.6554
40.485754074, 96.390, 1162.0, 34.0881
40.512014639, 96.390, 1246.0, 35.2987
40.538275205, 96.390, 1163.0, 34.1028
40.564535770, 96.390, 1281.0, 35.7911
40.590796336, 96.390, 1263.0, 35.5387
40.617056901, 96.390, 1244.0, 35.2704
40.643317466, 96.390, 1271.0, 35.6511
40.669578032, 96.390, 1190.0, 34.4964
40.695838597, 96.390, 1172.0, 34.2345
40.722099162, 96.390, 1217.0, 34.8855
40.748359728, 96.390, 1225.0, 35.0000
40.774620293, 96.390, 1244.0, 35.2704
40.800880858, 96.390, 1190.0, 34.4964
40.827141424, 96.390, 1284.0, 35.8329
40.853401989, 96.390, 1216.0, 34.8712
40.879662554, 96.390, 1238.0, 35.1852
40.905923120, 96.390, 1241.0, 35.2278
40.932183685, 96.390, 1243.0, 35.2562
40.958444251, 96.390, 1221.0, 34.9428
40.984704816, 96.390, 1217.0, 34.8855
41.010965381, 96.390, 1278.0, 35.7491
41.037225947, 96.390, 1159.0, 34.0441
41.063486512, 96.390, 1219.0, 34.9142
41.089747077, 96.390, 1214.0, 34.8425
41.116007643, 96.390, 1269.0, 35.6230
41.142268208, 96.390, 1224.0, 34.9857
41.168528773, 96.390, 1237.0, 35.1710
41.194789339, 96.390, 1246.0, 35.2987
41.221049904, 96.390, 1276.0, 35.7211
41.247310469, 96.390, 1191.0, 34.5109
41.273571035, 96.390, 1189.0, 34.4819
41.299831600, 96.390, 1200.0, 34.6410
41.326092165, 96.390, 1221.0, 34.9428
41.352352731, 96.390, 1257.0, 35.4542
41.378613296, 96.390, 1245.0, 35.2846
41.404873862, 96.390, 1257.0, 35.4542
41.431134427, 96.390, 1231.0, 35.0856
41.457394992, 96.390, 1235.0, 35.1426
41.483655558, 96.390, 1215.0, 34.8569
41.509916123, 96.390, 1218.0, 34.8999
41.536176688, 96.390, 1221.0, 34.9428
41.562437254, 96.390, 1232.0, 35.0999
41.588697819, 96.390, 1158.0, 34.0294
41.614958384, 96.390, 1185.0, 34.4238
41.641218950, 96.390, 1134.0, 33.6749
41.667479515, 96.390, 1243.0, 35.2562
41.693740080, 96.390, 1176.0, 34.2929
41.720000646, 96.390, 1262.0, 35.5246
41.746261211, 96.390, 1215.0, 34.8569
41.772521776, 96.390, 1165.0, 34.1321
41.798782342, 96.390, 1174.0, 34.2637
41.825042907, 96.390, 1252.0, 35.3836
41.851303473, 96.390, 1194.0, 34.5543
41.877564038, 96.390, 1196.0, 34.5832
41.903824603, 96.390, 1196.0, 34.5832
41.930085169, 96.390, 1273.0, 35.6791
41.956345734, 96.390, 1215.0, 34.8569
41.982606299, 96.390, 1192.0, 34.5254
42.008866865, 96.390, 1167.0, 34.1614
42.035127430, 96.390, 1187.0, 34.4529
42.061387995, 96.390, 1207.0, 34.7419
42.087648561, 96.390, 1233.0, 35.1141
42.113909126, 96.390, 1228.0, 35.0428
42.140169691, 96.390, 1169.0, 34.1906
42.166430257, 96.390, 1186.0, 34.4384
42.192690822, 96.390, 1121.0, 33.4813
42.218951388, 96.390, 1177.0, 34.3074
42.245211953, 96.390, 1193.0, 34.5398
42.271472518, 96.390, 1176.0, 34.2929
42.297733084, 96.390, 1213.0, 34.8281
42.323993649, 96.390, 1196.0, 34.5832
42.350254214, 96.390, 1215.0, 34.8569
42.376514780, 96.390, 1193.0, 34.5398
42.402775345, 96.390, 1220.0, 34.9285
42.429035910, 96.390, 1165.0, 34.1321
42.455296476, 96.390, 1203.0, 34.6843
42.481557041, 96.390, 1163.0, 34.1028
42.507817606, 96.390, 1201.0, 34.6554
42.534078172, 96.390, 1190.0, 34.4964
42.560338737, 96.390, 1250.0, 35.3553
42.586599302, 96.390, 1152.0, 33.9411
42.612859868, 96.390, 1185.0, 34.4238
42.639120433, 96.390, 1156.0, 34.0000
42.665380999, 96.390, 1187.0, 34.4529
42.691641564, 96.390, 1153.0, 33.9559
42.717902129, 96.390, 1170.0, 34.2053
42.744162695, 96.390, 1094.0, 33.0757
42.770423260, 96.390, 1187.0, 34.4529
42.796683825, 96.390, 1159.0, 34.0441
42.822944391, 96.390, 1130.0, 33.6155
42.849204956, 96.390, 1180.0, 34.3511
42.875465521, 96.390, 1180.0, 34.3511
42.901726087, 96.390, 1208.0, 34.7563
42.927986652, 96.390, 1224.0, 34.9857
42.954247217, 96.390, 1177.0, 34.3074
42.980507783, 96.390, 1218.0, 34.8999
43.006768348, 96.390, 1181.0, 34.3657
43.033028914, 96.390, 1227.0, 35.0286
43.059289479, 96.390, 1241.0, 35.2278
43.085550044, 96.390, 1153.0, 33.9559
43.111810610, 96.390, 1173.0, 34.2491
43.138071175, 96.390, 1191.0, 34.5109
43.164331740, 96.390, 1118.0, 33.4365
43.190592306, 96.390, 1153.0, 33.9559
43.216852871, 96.390, 1141.0, 33.7787
43.243113436, 96.390, 1144.0, 33.8231
43.269374002, 96.390, 1144.0, 33.8231
43.295634567, 96.390, 1231.0, 35.0856
43.321895132, 96.390, 1188.0, 34.4674
43.348155698, 96.390, 1170.0, 34.2053
43.374416263, 96.390, 1171.0, 34.2199
43.400676828, 96.390, 1262.0, 35.5246
43.426937394, 96.390, 1163.0, 34.1028
43.453197959, 96.390, 1204.0, 34.6987
43.479458525, 96.390, 1145.0, 33.8378
43.505719090, 96.390, 1170.0, 34.2053
43.531979655, 96.390, 1126.0, 33.5559
43.558240221, 96.390, 1118.0, 33.4365
43.584500786, 96.390, 1208.0, 34.7563
43.610761351, 96.390, 1132.0, 33.6452
43.637021917, 96.390, 1148.0, 33.8821
43.663282482, 96.390, 1188.0, 34.4674
43.689543047, 96.390, 1155.0, 33.9853
43.715803613, 96.390, 1252.0, 35.3836
43.742064178, 96.390, 1145.0, 33.8378
43.768324743, 96.390, 1148.0, 33.8821
43.794585309, 96.390, 1166.0, 34.1467
43.820845874, 96.390, 1185.0, 34.4238
43.847106440, 96.390, 1177.0, 34.3074
43.873367005, 96.390, 1110.0, 33.3167
43.899627570, 96.390, 1194.0, 34.5543
43.925888136, 96.390, 1172.0, 34.2345
43.952148701, 96.390, 1228.0, 35.0428
43.978409266, 96.390, 1196.0, 34.5832
44.004669832, 96.390, 1218.0, 34.8999
44.030930397, 96.390, 1212.0, 34.8138
44.057190962, 96.390, 1218.0, 34.8999
44.083451528, 96.390, 1187.0, 34.4529
44.109712093, 96.390, 1238.0, 35.1852
44.135972658, 96.390, 1197.0, 34.5977
44.162233224, 96.390, 1188.0, 34.4674
44.188493789, 96.390, 1207.0, 34.7419
44.214754354, 96.390, 1234.0, 35.1283
44.241014920, 96.390, 1194.0, 34.5543
44.267275485, 96.390, 1157.0, 34.0147
44.293536051, 96.390, 1132.0, 33.6452
44.319796616, 96.390, 1152.0, 33.9411
44.346057181, 96.390, 1172.0, 34.2345
44.372317747, 96.390, 1174.0, 34.2637
44.398578312, 96.390, 1249.0, 35.3412
44.424838877, 96.390, 1202.0, 34.6699
44.451099443, 96.390, 1180.0, 34.3511
44.477360008, 96.390, 1185.0, 34.4238
44.503620573, 96.390, 1224.0, 34.9857
44.529881139, 96.390, 1173.0, 34.2491
44.556141704, 96.390, 1156.0, 34.0000
44.582402269, 96.390, 1173.0, 34.2491
44.608662835, 96.390, 1185.0, 34.4238
44.634923400, 96.390, 1171.0, 34.2199
44.661183966, 96.390, 1150.0, 33.9116
44.687444531, 96.390, 1159.0, 34.0441
44.713705096, 96.390, 1143.0, 33.8083
44.739965662, 96.390, 1108.0, 33.2866
44.766226227, 96.390, 1129.0, 33.6006
44.792486792, 96.390, 1153.0, 33.9559
44.818747358, 96.390, 1119.0, 33.4515
44.845007923, 96.390, 1192.0, 34.5254
44.871268488, 96.390, 1221.0, 34.9428
44.897529054, 96.390, 1141.0, 33.7787
44.923789619, 96.390, 1101.0, 33.1813
44.950050184, 96.390, 1121.0, 33.4813
44.976310750, 96.390, 1161.0, 34.0735
45.002571315, 96.390, 1156.0, 34.0000
45.028831880, 96.390, 1199.0, 34.6266
45.055092446, 96.390, 1204.0, 34.6987
45.081353011, 96.390, 1130.0, 33.6155
45.107613577, 96.390, 1178.0, 34.3220
45.133874142, 96.390, 1143.0, 33.8083
45.160134707, 96.390, 1157.0, 34.0147
45.186395273, 96.390, 1145.0, 33.8378
45.212655838, 96.390, 1196.0, 34.5832
45.238916403, 96.390, 1150.0, 33.9116
45.265176969, 96.390, 1209.0, 34.7707
45.291437534, 96.390, 1187.0, 34.4529
45.317698099, 96.390, 1180.0, 34.3511
45.343958665, 96.390, 1164.0, 34.1174
45.370219230, 96.390, 1146.0, 33.8526
45.396479795, 96.390, 1171.0, 34.2199
45.422740361, 96.390, 1178.0, 34.3220
45.449000926, 96.390, 1128.0, 33.5857
45.475261492, 96.390, 1204.0, 34.6987
45.501522057, 96.390, 1101.0, 33.1813
45.527782622, 96.390, 1155.0, 33.9853
45.554043188, 96.390, 1096.0, 33.1059
45.580303753, 96.390, 1162.0, 34.0881
45.606564318, 96.390, 1127.0, 33.5708
45.632824884, 96.390, 1153.0, 33.9559
45.659085449, 96.390, 1183.0, 34.3948
45.685346014, 96.390, 1096.0, 33.1059
45.711606580, 96.390, 1154.0, 33.9706
45.737867145, 96.390, 1142.0, 33.7935
45.764127710, 96.390, 1119.0, 33.4515
45.790388276, 96.390, 1180.0, 34.3511
45.816648841, 96.390, 1127.0, 33.5708
45.842909406, 96.390, 1158.0, 34.0294
45.869169972, 96.390, 1123.0, 33.5112
45.895430537, 96.390, 1121.0, 33.4813
45.921691103, 96.390, 1126.0, 33.5559
45.947951668, 96.390, 1122.0, 33.4963
45.974212233, 96.390, 1154.0, 33.9706
46.000472799, 96.390, 1141.0, 33.7787
46.026733364, 96.390, 1179.0, 34.3366
46.052993929, 96.390, 1152.0, 33.9411
46.079254495, 96.390, 1149.0, 33.8969
46.105515060, 96.390, 1095.0, 33.0908
46.131775625, 96.390, 1116.0, 33.4066
46.158036191, 96.390, 1153.0, 33.9559
46.184296756, 96.390, 1100.0, 33.1662
46.210557321, 96.390, 1101.0, 33.1813
46.236817887, 96.390, 1160.0, 34.0588
46.263078452, 96.390, 1113.0, 33.3617
46.289339017, 96.390, 1128.0, 33.5857
46.315599583, 96.390, 1146.0, 33.8526
46.341860148, 96.390, 1102.0, 33.1964
46.368120714, 96.390, 1164.0, 34.1174
46.394381279, 96.390, 1130.0, 33.6155
46.420641844, 96.390, 1107.0, 33.2716
46.446902410, 96.390, 1125.0, 33.5410
46.473162975, 96.390, 1106.0, 33.2566
46.499423540, 96.390, 1125.0, 33.5410
46.525684106, 96.390, 1124.0, 33.5261
46.551944671, 96.390, 1135.0, 33.6898
46.578205236, 96.390, 1135.0, 33.6898
46.604465802, 96.390, 1121.0, 33.4813
46.630726367, 96.390, 1153.0, 33.9559
46.656986932, 96.390, 1141.0, 33.7787
46.683247498, 96.390, 1169.0, 34.1906
46.709508063, 96.390, 1190.0, 34.4964
46.735768629, 96.390, 1105.0, 33.2415
46.762029194, 96.390, 1122.0, 33.4963
46.788289759, 96.390, 1112.0, 33.3467
46.814550325, 96.390, 1146.0, 33.8526
46.840810890, 96.390, 1046.0, 32.3419
46.867071455, 96.390, 1064.0, 32.6190
46.893332021, 96.390, 1112.0, 33.3467
46.919592586, 96.390, 1131.0, 33.6303
46.945853151, 96.390, 1058.0, 32.5269
46.972113717, 96.390, 1077.0, 32.8177
46.998374282, 96.390, 1079.0, 32.8481
47.024634847, 96.390, 1093.0, 33.0606
47.050895413, 96.390, 1118.0, 33.4365
47.077155978, 96.390, 1088.0, 32.9848
47.103416543, 96.390, 1143.0, 33.8083
47.129677109, 96.390, 1188.0, 34.4674
47.155937674, 96.390, 1069.0, 32.6956
47.182198240, 96.390, 1128.0, 33.5857
47.208458805, 96.390, 1126.0, 33.5559
47.234719370, 96.390, 1099.0, 33.1512
47.260979936, 96.390, 1118.0, 33.4365
47.287240501, 96.390, 1116.0, 33.4066
47.313501066, 96.390, 1142.0, 33.7935
47.339761632, 96.390, 1131.0, 33.6303
47.366022197, 96.390, 1134.0, 33.6749
47.392282762, 96.390, 1029.0, 32.0780
47.418543328, 96.390, 1081.0, 32.8786
47.444803893, 96.390, 1040.0, 32.2490
47.471064458, 96.390, 1062.0, 32.5883
47.497325024, 96.390, 1063.0, 32.6037
47.523585589, 96.390, 1048.0, 32.3728
47.549846155, 96.390, 1073.0, 32.7567
47.576106720, 96.390, 1074.0, 32.7719
47.602367285, 96.390, 1055.0, 32.4808
47.628627851, 96.390, 1054.0, 32.4654
47.654888416, 96.390, 1054.0, 32.4654
47.681148981, 96.390, 1114.0, 33.3766
47.707409547, 96.390, 1073.0, 32.7567
47.733670112, 96.390, 1092.0, 33.0454
47.759930677, 96.390, 1111.0, 33.3317
47.786191243, 96.390, 1082.0, 32.8938
47.812451808, 96.390, 1129.0, 33.6006
47.838712373, 96.390, 1053.0, 32.4500
47.864972939, 96.390, 1082.0, 32.8938
47.891233504, 96.390, 1128.0, 33.5857
47.917494069, 96.390, 1065.0, 32.6343
47.943754635, 96.390, 1036.0, 32.1870
47.970015200, 96.390, 1071.0, 32.7261
47.996275766, 96.390, 1097.0, 33.1210
48.022536331, 96.390, 1068.0, 32.6803
48.048796896, 96.390, 1083.0, 32.9090
48.075057462, 96.390, 1067.0, 32.6650
48.101318027, 96.390, 1039.0, 32.2335
48.127578592, 96.390, 1064.0, 32.6190
48.153839158, 96.390, 1065.0, 32.6343
48.180099723, 96.390, 1047.0, 32.3574
48.206360288, 96.390, 1015.0, 31.8591
48.232620854, 96.390, 1044.0, 32.3110
48.258881419, 96.390, 1066.0, 32.6497
48.285141984, 96.390, 1069.0, 32.6956
48.311402550, 96.390, 1069.0, 32.6956
48.337663115, 96.390, 1056.0, 32.4962
48.363923681, 96.390, 992.0, 31.4960
48.390184246, 96.390, 1039.0, 32.2335
48.416444811, 96.390, 1009.0, 31.7648
48.442705377, 96.390, 1070.0, 32.7109
48.468965942, 96.390, 1048.0, 32.3728
48.495226507, 96.390, 1115.0, 33.3916
48.521487073, 96.390, 1010.0, 31.7805
48.547747638, 96.390, 1083.0, 32.9090
48.574008203, 96.390, 1045.0, 32.3265
48.600268769, 96.390, 1028.0, 32.0624
48.626529334, 96.390, 1120.0, 33.4664
48.652789899, 96.390, 1010.0, 31.7805
48.679050465, 96.390, 1036.0, 32.1870
48.705311030, 96.390, 1047.0, 32.3574
48.731571595, 96.390, 1064.0, 32.6190
48.757832161, 96.390, 1034.0, 32.1559
48.784092726, 96.390, 1073.0, 32.7567
48.810353292, 96.390, 994.0, 31.5278
48.836613857, 96.390, 1044.0, 32.3110
48.862874422, 96.390, 985.0, 31.3847
48.889134988, 96.390, 985.0, 31.3847
48.915395553, 96.390, 1051.0, 32.4191
48.941656118, 96.390, 1039.0, 32.2335
48.967916684, 96.390, 1034.0, 32.1559
48.994177249, 96.390, 1031.0, 32.1092
49.020437814, 96.390, 1048.0, 32.3728
49.046698380, 96.390, 1042.0, 32.2800
49.072958945, 96.390, 1041.0, 32.2645
49.099219510, 96.390, 1020.0, 31.9374
49.125480076, 96.390, 1069.0, 32.6956
49.151740641, 96.390, 1033.0, 32.1403
49.178001207, 96.390, 1027.0, 32.0468
49.204261772, 96.390, 1004.0, 31.6860
49.230522337, 96.390, 949.0, 30.8058
49.256782903, 96.390, 1029.0, 32.0780
49.283043468, 96.390, 1011.0, 31.7962
49.309304033, 96.390, 1056.0, 32.4962
49.335564599, 96.390, 944.0, 30.7246
49.361825164, 96.390, 1056.0, 32.4962
49.388085729, 96.390, 992.0, 31.4960
49.414346295, 96.390, 998.0, 31.5911
49.440606860, 96.390, 1008.0, 31.7490
49.466867425, 96.390, 973.0, 31.1929
49.493127991, 96.390, 1016.0, 31.8748
49.519388556, 96.390, 1009.0, 31.7648
49.545649121, 96.390, 879.0, 29.6479
49.571909687, 96.390, 1017.0, 31.8904
49.598170252, 96.390, 984.0, 31.3688
49.624430818, 96.390, 1042.0, 32.2800
49.650691383, 96.390, 1021.0, 31.9531
49.676951948, 96.390, 978.0, 31.2730
49.703212514, 96.390, 1034.0, 32.1559
49.729473079, 96.390, 959.0, 30.9677
49.755733644, 96.390, 1006.0, 31.7175
49.781994210, 96.390, 1051.0, 32.4191
49.808254775, 96.390, 980.0, 31.3050
49.834515340, 96.390, 993.0, 31.5119
49.860775906, 96.390, 1011.0, 31.7962
49.887036471, 96.390, 1004.0, 31.6860
49.913297036, 96.390, 984.0, 31.3688
49.939557602, 96.390, 915.0, 30.2490
49.965818167, 96.390, 1015.0, 31.8591
49.992078732, 96.390, 993.0, 31.5119
50.018339298, 96.390, 994.0, 31.5278
50.044599863, 96.390, 1042.0, 32.2800
50.070860429, 96.390, 1001.0, 31.6386
50.097120994, 96.390, 1020.0, 31.9374
50.123381559, 96.390, 964.0, 31.0483
50.149642125, 96.390, 992.0, 31.4960
50.175902690, 96.390, 964.0, 31.0483
50.202163255, 96.390, 1014.0, 31.8434
50.228423821, 96.390, 962.0, 31.0161
50.254684386, 96.390, 962.0, 31.0161
50.280944951, 96.390, 986.0, 31.4006
50.307205517, 96.390, 996.0, 31.5595
50.333466082, 96.390, 952.0, 30.8545
50.359726647, 96.390, 925.0, 30.4138
50.385987213, 96.390, 887.0, 29.7825
50.412247778, 96.390, 987.0, 31.4166
50.438508344, 96.390, 980.0, 31.3050
50.464768909, 96.390, 1012.0, 31.8119
50.491029474, 96.390, 975.0, 31.2250
50.517290040, 96.390, 950.0, 30.8221
50.543550605, 96.390, 988.0, 31.4325
50.569811170, 96.390, 1030.0, 32.0936
50.596071736, 96.390, 1000.0, 31.6228
50.622332301, 96.390, 987.0, 31.4166
50.648592866, 96.390, 952.0, 30.8545
50.674853432, 96.390, 979.0, 31.2890
50.701113997, 96.390, 925.0, 30.4138
50.727374562, 96.390, 946.0, 30.7571
50.753635128, 96.390, 939.0, 30.6431
50.779895693, 96.390, 983.0, 31.3528
50.806156258, 96.390, 973.0, 31.1929
50.832416824, 96.390, 931.0, 30.5123
50.858677389, 96.390, 1000.0, 31.6228
50.884937955, 96.390, 955.0, 30.9031
50.911198520, 96.390, 995.0, 31.5436
50.937459085, 96.390, 999.0, 31.6070
50.963719651, 96.390, 942.0, 30.6920
50.989980216, 96.390, 961.0, 31.0000
51.016240781, 96.390, 1006.0, 31.7175
51.042501347, 96.390, 889.0, 29.8161
51.068761912, 96.390, 959.0, 30.9677
51.095022477, 96.390, 946.0, 30.7571
51.121283043, 96.390, 990.0, 31.4643
51.147543608, 96.390, 904.0, 30.0666
51.173804173, 96.390, 1007.0, 31.7333
51.200064739, 96.390, 988.0, 31.4325
51.226325304, 96.390, 959.0, 30.9677
51.252585870, 96.390, 1019.0, 31.9218
51.278846435, 96.390, 1002.0, 31.6544
51.305107000, 96.390, 980.0, 31.3050
51.331367566, 96.390, 930.0, 30.4959
51.357628131, 96.390, 988.0, 31.4325
51.383888696, 96.390, 940.0, 30.6594
51.410149262, 96.390, 992.0, 31.4960
51.436409827, 96.390, 881.0, 29.6816
51.462670392, 96.390, 907.0, 30.1164
51.488930958, 96.390, 898.0, 29.9666
51.515191523, 96.390, 972.0, 31.1769
51.541452088, 96.390, 912.0, 30.1993
51.567712654, 96.390, 896.0, 29.9333
51.593973219, 96.390, 965.0, 31.0644
51.620233784, 96.390, 907.0, 30.1164
51.646494350, 96.390, 990.0, 31.4643
51.672754915, 96.390, 940.0, 30.6594
51.699015481, 96.390, 922.0, 30.3645
51.725276046, 96.390, 928.0, 30.4631
51.751536611, 96.390, 970.0, 31.1448
51.777797177, 96.390, 942.0, 30.6920
51.804057742, 96.390, 937.0, 30.6105
51.830318307, 96.390, 915.0, 30.2490
51.856578873, 96.390, 980.0, 31.3050
51.882839438, 96.390, 892.0, 29.8664
51.909100003, 96.390, 938.0, 30.6268
51.935360569, 96.390, 942.0, 30.6920
51.961621134, 96.390, 896.0, 29.9333
51.987881699, 96.390, 931.0, 30.5123
52.014142265, 96.390, 950.0, 30.8221
52.040402830, 96.390, 915.0, 30.2490
52.066663396, 96.390, 964.0, 31.0483
52.092923961, 96.390, 954.0, 30.8869
52.119184526, 96.390, 960.0, 30.9839
52.145445092, 96.390, 960.0, 30.9839
52.171705657, 96.390, 996.0, 31.5595
52.197966222, 96.390, 944.0, 30.7246
52.224226788, 96.390, 952.0, 30.8545
52.250487353, 96.390, 925.0, 30.4138
52.276747918, 96.390, 914.0, 30.2324
52.303008484, 96.390, 921.0, 30.3480
52.329269049, 96.390, 877.0, 29.6142
52.355529614, 96.390, 938.0, 30.6268
52.381790180, 96.390, 858.0, 29.2916
52.408050745, 96.390, 876.0, 29.5973
52.434311310, 96.390, 926.0, 30.4302
52.460571876, 96.390, 928.0, 30.4631
52.486832441, 96.390, 917.0, 30.2820
52.513093007, 96.390, 977.0, 31.2570
52.539353572, 96.390, 907.0, 30.1164
52.565614137, 96.390, 905.0, 30.0832
52.591874703, 96.390, 913.0, 30.2159
52.618135268, 96.390, 894.0, 29.8998
52.644395833, 96.390, 939.0, 30.6431
52.670656399, 96.390, 959.0, 30.9677
52.696916964, 96.390, 879.0, 29.6479
52.723177529, 96.390, 949.0, 30.8058
52.749438095, 96.390, 876.0, 29.5973
52.775698660, 96.390, 836.0, 28.9137
52.801959225, 96.390, 935.0, 30.5778
52.828219791, 96.390, 870.0, 29.4958
52.854480356, 96.390, 892.0, 29.8664
52.880740922, 96.390, 866.0, 29.4279
52.907001487, 96.390, 937.0, 30.6105
52.933262052, 96.390, 948.0, 30.7896
52.959522618, 96.390, 947.0, 30.7734
52.985783183, 96.390, 959.0, 30.9677
53.012043748, 96.390, 937.0, 30.6105
53.038304314, 96.390, 938.0, 30.6268
53.064564879, 96.390, 915.0, 30.2490
53.090825444, 96.390, 916.0, 30.2655
53.117086010, 96.390, 876.0, 29.5973
53.143346575, 96.390, 892.0, 29.8664
53.169607140, 96.390, 851.0, 29.1719
53.195867706, 96.390, 904.0, 30.0666
53.222128271, 96.390, 937.0, 30.6105
53.248388836, 96.390, 910.0, 30.1662
53.274649402, 96.390, 968.0, 31.1127
53.300909967, 96.390, 887.0, 29.7825
53.327170533, 96.390, 945.0, 30.7409
53.353431098, 96.390, 931.0, 30.5123
53.379691663, 96.390, 951.0, 30.8383
53.405952229, 96.390, 894.0, 29.8998
53.432212794, 96.390, 940.0, 30.6594
53.458473359, 96.390, 916.0, 30.2655
53.484733925, 96.390, 923.0, 30.3809
53.510994490, 96.390, 879.0, 29.6479
53.537255055, 96.390, 957.0, 30.9354
53.563515621, 96.390, 935.0, 30.5778
53.589776186, 96.390, 907.0, 30.1164
53.616036751, 96.390, 928.0, 30.4631
53.642297317, 96.390, 903.0, 30.0500
53.668557882, 96.390, 866.0, 29.4279
53.694818448, 96.390, 874.0, 29.5635
53.721079013, 96.390, 841.0, 29.0000
53.747339578, 96.390, 899.0, 29.9833
53.773600144, 96.390, 895.0, 29.9166
53.799860709, 96.390, 875.0, 29.5804
53.826121274, 96.390, 950.0, 30.8221
53.852381840, 96.390, 897.0, 29.9500
53.878642405, 96.390, 908.0, 30.1330
53.904902970, 96.390, 950.0, 30.8221
53.931163536, 96.390, 919.0, 30.3150
53.957424101, 96.390, 916.0, 30.2655
53.983684666, 96.390, 900.0, 30.0000
54.009945232, 96.390, 903.0, 30.0500
54.036205797, 96.390, 918.0, 30.2985
54.062466362, 96.390, 948.0, 30.7896
54.088726928, 96.390, 852.0, 29.1890
54.114987493, 96.390, 912.0, 30.1993
54.141248059, 96.390, 846.0, 29.0861
54.167508624, 96.390, 893.0, 29.8831
54.193769189, 96.390, 901.0, 30.0167
54.220029755, 96.390, 911.0, 30.1828
54.246290320, 96.390, 913.0, 30.2159
54.272550885, 96.390, 897.0, 29.9500
54.298811451, 96.390, 861.0, 29.3428
54.325072016, 96.390, 881.0, 29.6816
54.351332581, 96.390, 891.0, 29.8496
54.377593147, 96.390, 878.0, 29.6311
54.403853712, 96.390, 903.0, 30.0500
54.430114277, 96.390, 946.0, 30.7571
54.456374843, 96.390, 929.0, 30.4795
54.482635408, 96.390, 890.0, 29.8329
54.508895973, 96.390, 927.0, 30.4467
54.535156539, 96.390, 849.0, 29.1376
54.561417104, 96.390, 921.0, 30.3480
54.587677670, 96.390, 855.0, 29.2404
54.613938235, 96.390, 909.0, 30.1496
54.640198800, 96.390, 847.0, 29.1033
54.666459366, 96.390, 891.0, 29.8496
54.692719931, 96.390, 887.0, 29.7825
54.718980496, 96.390, 924.0, 30.3974
54.745241062, 96.390, 859.0, 29.3087
54.771501627, 96.390, 889.0, 29.8161
54.797762192, 96.390, 837.0, 28.9310
54.824022758, 96.390, 891.0, 29.8496
54.850283323, 96.390, 926.0, 30.4302
54.876543888, 96.390, 882.0, 29.6985
54.902804454, 96.390, 860.0, 29.3258
54.929065019, 96.390, 821.0, 28.6531
54.955325585, 96.390, 898.0, 29.9666
54.981586150, 96.390, 879.0, 29.6479
55.007846715, 96.390, 908.0, 30.1330
55.034107281, 96.390, 909.0, 30.1496
55.060367846, 96.390, 915.0, 30.2490
55.086628411, 96.390, 962.0, 31.0161
55.112888977, 96.390, 854.0, 29.2233
55.139149542, 96.390, 879.0, 29.6479
55.165410107, 96.390, 942.0, 30.6920
55.191670673, 96.390, 803.0, 28.3373
55.217931238, 96.390, 891.0, 29.8496
55.244191803, 96.390, 928.0, 30.4631
55.270452369, 96.390, 893.0, 29.8831
55.296712934, 96.390, 875.0, 29.5804
55.322973499, 96.390, 885.0, 29.7489
55.349234065, 96.390, 959.0, 30.9677
55.375494630, 96.390, 910.0, 30.1662
55.401755196, 96.390, 892.0, 29.8664
55.428015761, 96.390, 845.0, 29.0689
55.454276326, 96.390, 876.0, 29.5973
55.480536892, 96.390, 846.0, 29.0861
55.506797457, 96.390, 876.0, 29.5973
55.533058022, 96.390, 915.0, 30.2490
55.559318588, 96.390, 945.0, 30.7409
55.585579153, 96.390, 886.0, 29.7658
55.611839718, 96.390, 877.0, 29.6142
55.638100284, 96.390, 855.0, 29.2404
55.664360849, 96.390, 895.0, 29.9166
55.690621414, 96.390, 842.0, 29.0172
55.716881980, 96.390, 883.0, 29.7153
55.743142545, 96.390, 825.0, 28.7228
55.769403111, 96.390, 869.0, 29.4788
55.795663676, 96.390, 850.0, 29.1548
55.821924241, 96.390, 870.0, 29.4958
55.848184807, 96.390, 840.0, 28.9828
55.874445372, 96.390, 867.0, 29.4449
55.900705937, 96.390, 858.0, 29.2916
55.926966503, 96.390, 883.0, 29.7153
55.953227068, 96.390, 874.0, 29.5635
55.979487633, 96.390, 886.0, 29.7658
56.005748199, 96.390, 841.0, 29.0000
56.032008764, 96.390, 945.0, 30.7409
56.058269329, 96.390, 894.0, 29.8998
56.084529895, 96.390, 806.0, 28.3901
56.110790460, 96.390, 896.0, 29.9333
56.137051025, 96.390, 870.0, 29.4958
56.163311591, 96.390, 869.0, 29.4788
56.189572156, 96.390, 855.0, 29.2404
56.215832722, 96.390, 815.0, 28.5482
56.242093287, 96.390, 863.0, 29.3769
56.268353852, 96.390, 897.0, 29.9500
56.294614418, 96.390, 890.0, 29.8329
56.320874983, 96.390, 851.0, 29.1719
56.347135548, 96.390, 847.0, 29.1033
56.373396114, 96.390, 856.0, 29.2575
56.399656679, 96.390, 972.0, 31.1769
56.425917244, 96.390, 851.0, 29.1719
56.452177810, 96.390, 863.0, 29.3769
56.478438375, 96.390, 889.0, 29.8161
56.504698940, 96.390, 865.0, 29.4109
56.530959506, 96.390, 881.0, 29.6816
56.557220071, 96.390, 871.0, 29.5127
56.583480637, 96.390, 907.0, 30.1164
56.609741202, 96.390, 856.0, 29.2575
56.636001767, 96.390, 849.0, 29.1376
56.662262333, 96.390, 887.0, 29.7825
56.688522898, 96.390, 836.0, 28.9137
56.714783463, 96.390, 878.0, 29.6311
56.741044029, 96.390, 906.0, 30.0998
56.767304594, 96.390, 813.0, 28.5132
56.793565159, 96.390, 888.0, 29.7993
56.819825725, 96.390, 837.0, 28.9310
56.846086290, 96.390, 787.0, 28.0535
56.872346855, 96.390, 907.0, 30.1164
56.898607421, 96.390, 882.0, 29.6985
56.924867986, 96.390, 925.0, 30.4138
56.951128551, 96.390, 925.0, 30.4138
56.977389117, 96.390, 894.0, 29.8998
57.003649682, 96.390, 840.0, 28.9828
57.029910248, 96.390, 877.0, 29.6142
57.056170813, 96.390, 914.0, 30.2324
57.082431378, 96.390, 847.0, 29.1033
57.108691944, 96.390, 865.0, 29.4109
57.134952509, 96.390, 907.0, 30.1164
57.161213074, 96.390, 845.0, 29.0689
57.187473640, 96.390, 885.0, 29.7489
57.213734205, 96.390, 850.0, 29.1548
57.239994770, 96.390, 892.0, 29.8664
57.266255336, 96.390, 858.0, 29.2916
57.292515901, 96.390, 874.0, 29.5635
57.318776466, 96.390, 844.0, 29.0517
57.345037032, 96.390, 866.0, 29.4279
57.371297597, 96.390, 855.0, 29.2404
57.397558163, 96.390, 904.0, 30.0666
57.423818728, 96.390, 882.0, 29.6985
57.450079293, 96.390, 872.0, 29.5296
57.476339859, 96.390, 872.0, 29.5296
57.502600424, 96.390, 849.0, 29.1376
57.528860989, 96.390, 869.0, 29.4788
57.555121555, 96.390, 868.0, 29.4618
57.581382120, 96.390, 839.0, 28.9655
57.607642685, 96.390, 881.0, 29.6816
57.633903251, 96.390, 853.0, 29.2062
57.660163816, 96.390, 875.0, 29.5804
57.686424381, 96.390, 854.0, 29.2233
57.712684947, 96.390, 806.0, 28.3901
57.738945512, 96.390, 886.0, 29.7658
57.765206077, 96.390, 818.0, 28.6007
57.791466643, 96.390, 885.0, 29.7489
57.817727208, 96.390, 868.0, 29.4618
57.843987774, 96.390, 875.0, 29.5804
57.870248339, 96.390, 911.0, 30.1828
57.896508904, 96.390, 876.0, 29.5973
57.922769470, 96.390, 872.0, 29.5296
57.949030035, 96.390, 869.0, 29.4788
57.975290600, 96.390, 924.0, 30.3974
58.001551166, 96.390, 802.0, 28.3196
58.027811731, 96.390, 854.0, 29.2233
58.054072296, 96.390, 841.0, 29.0000
58.080332862, 96.390, 897.0, 29.9500
58.106593427, 96.390, 863.0, 29.3769
58.132853992, 96.390, 853.0, 29.2062
58.159114558, 96.390, 845.0, 29.0689
58.185375123, 96.390, 917.0, 30.2820
58.211635689, 96.390, 882.0, 29.6985
58.237896254, 96.390, 880.0, 29.6648
58.264156819, 96.390, 854.0, 29.2233
58.290417385, 96.390, 850.0, 29.1548
58.316677950, 96.390, 886.0, 29.7658
58.342938515, 96.390, 852.0, 29.1890
58.369199081, 96.390, 884.0, 29.7321
58.395459646, 96.390, 843.0, 29.0345
58.421720211, 96.390, 888.0, 29.7993
58.447980777, 96.390, 868.0, 29.4618
58.474241342, 96.390, 832.0, 28.8444
58.500501907, 96.390, 915.0, 30.2490
58.526762473, 96.390, 873.0, 29.5466
58.553023038, 96.390, 906.0, 30.0998
58.579283603, 96.390, 834.0, 28.8791
58.605544169, 96.390, 924.0, 30.3974
58.631804734, 96.390, 861.0, 29.3428
58.658065300, 96.390, 878.0, 29.6311
58.684325865, 96.390, 893.0, 29.8831
58.710586430, 96.390, 864.0, 29.3939
58.736846996, 96.390, 897.0, 29.9500
58.763107561, 96.390, 885.0, 29.7489
58.789368126, 96.390, 889.0, 29.8161
58.815628692, 96.390, 830.0, 28.8097
58.841889257, 96.390, 868.0, 29.4618
58.868149822, 96.390, 851.0, 29.1719
58.894410388, 96.390, 865.0, 29.4109
58.920670953, 96.390, 820.0, 28.6356
58.946931518, 96.390, 903.0, 30.0500
58.973192084, 96.390, 829.0, 28.7924
58.999452649, 96.390, 866.0, 29.4279
59.025713214, 96.390, 883.0, 29.7153
59.051973780, 96.390, 874.0, 29.5635
59.078234345, 96.390, 915.0, 30.2490
59.104494911, 96.390, 915.0, 30.2490
59.130755476, 96.390, 889.0, 29.8161
59.157016041, 96.390, 916.0, 30.2655
59.183276607, 96.390, 853.0, 29.2062
59.209537172, 96.390, 886.0, 29.7658
59.235797737, 96.390, 846.0, 29.0861
59.262058303, 96.390, 837.0, 28.9310
59.288318868, 96.390, 939.0, 30.6431
59.314579433, 96.390, 847.0, 29.1033
59.340839999, 96.390, 877.0, 29.6142
59.367100564, 96.390, 867.0, 29.4449
59.393361129, 96.390, 867.0, 29.4449
59.419621695, 96.390, 863.0, 29.3769
59.445882260, 96.390, 877.0, 29.6142
59.472142826, 96.390, 874.0, 29.5635
59.498403391, 96.390, 896.0, 29.9333
59.524663956, 96.390, 893.0, 29.8831
59.550924522, 96.390, 857.0, 29.2746
59.577185087, 96.390, 908.0, 30.1330
59.603445652, 96.390, 919.0, 30.3150
59.629706218, 96.390, 847.0, 29.1033
59.655966783, 96.390, 897.0, 29.9500
59.682227348, 96.390, 849.0, 29.1376
59.708487914, 96.390, 921.0, 30.3480
59.734748479, 96.390, 891.0, 29.8496
59.761009044, 96.390, 890.0, 29.8329
59.787269610, 96.390, 895.0, 29.9166
59.813530175, 96.390, 928.0, 30.4631
59.839790740, 96.390, 858.0, 29.2916
59.866051306, 96.390, 902.0, 30.0333
59.892311871, 96.390, 908.0, 30.1330
59.918572437, 96.390, 930.0, 30.4959
59.944833002, 96.390, 953.0, 30.8707
59.971093567, 96.390, 909.0, 30.1496
59.997354133, 96.390, 941.0, 30.6757
60.023614698, 96.390, 859.0, 29.3087
60.049875263, 96.390, 938.0, 30.6268
60.076135829, 96.390, 935.0, 30.5778
60.102396394, 96.390, 921.0, 30.3480
60.128656959, 96.390, 905.0, 30.0832
60.154917525, 96.390, 976.0, 31.2410
60.181178090, 96.390, 889.0, 29.8161
60.207438655, 96.390, 951.0, 30.8383
60.233699221, 96.390, 887.0, 29.7825
60.259959786, 96.390, 883.0, 29.7153
60.286220352, 96.390, 916.0, 30.2655
60.312480917, 96.390, 940.0, 30.6594
60.338741482, 96.390, 900.0, 30.0000
60.365002048, 96.390, 933.0, 30.5450
60.391262613, 96.390, 911.0, 30.1828
60.417523178, 96.390, 920.0, 30.3315
60.443783744, 96.390, 913.0, 30.2159
60.470044309, 96.390, 940.0, 30.6594
60.496304874, 96.390, 927.0, 30.4467
60.522565440, 96.390, 987.0, 31.4166
60.548826005, 96.390, 889.0, 29.8161
60.575086570, 96.390, 914.0, 30.2324
60.601347136, 96.390, 915.0, 30.2490
60.627607701, 96.390, 962.0, 31.0161
60.653868266, 96.390, 964.0, 31.0483
60.680128832, 96.390, 964.0, 31.0483
60.706389397, 96.390, 935.0, 30.5778
60.732649963, 96.390, 947.0, 30.7734
60.758910528, 96.390, 953.0, 30.8707
60.785171093, 96.390, 910.0, 30.1662
60.811431659, 96.390, 973.0, 31.1929
60.837692224, 96.390, 990.0, 31.4643
60.863952789, 96.390, 938.0, 30.6268
60.890213355, 96.390, 1005.0, 31.7017
60.916473920, 96.390, 941.0, 30.6757
60.942734485, 96.390, 969.0, 31.1288
60.968995051, 96.390, 998.0, 31.5911
60.995255616, 96.390, 1010.0, 31.7805
61.021516181, 96.390, 996.0, 31.5595
61.047776747, 96.390, 949.0, 30.8058
61.074037312, 96.390, 1011.0, 31.7962
61.100297878, 96.390, 971.0, 31.1609
61.126558443, 96.390, 1020.0, 31.9374
61.152819008, 96.390, 1056.0, 32.4962
61.179079574, 96.390, 947.0, 30.7734
61.205340139, 96.390, 1019.0, 31.9218
61.231600704, 96.390, 1005.0, 31.7017
61.257861270, 96.390, 1057.0, 32.5115
61.284121835, 96.390, 1090.0, 33.0151
61.310382400, 96.390, 1037.0, 32.2025
61.336642966, 96.390, 990.0, 31.4643
61.362903531, 96.390, 1045.0, 32.3265
61.389164096, 96.390, 1020.0, 31.9374
61.415424662, 96.390, 1007.0, 31.7333
61.441685227, 96.390, 1046.0, 32.3419
61.467945792, 96.390, 1066.0, 32.6497
61.494206358, 96.390, 1034.0, 32.1559
61.520466923, 96.390, 1029.0, 32.0780
61.546727489, 96.390, 1051.0, 32.4191
61.572988054, 96.390, 992.0, 31.4960
61.599248619, 96.390, 990.0, 31.4643
61.625509185, 96.390, 1042.0, 32.2800
61.651769750, 96.390, 1091.0, 33.0303
61.678030315, 96.390, 1116.0, 33.4066
61.704290881, 96.390, 1031.0, 32.1092
61.730551446, 96.390, 1005.0, 31.7017
61.756812011, 96.390, 996.0, 31.5595
61.783072577, 96.390, 969.0, 31.1288
61.809333142, 96.390, 1027.0, 32.0468
61.835593707, 96.390, 1014.0, 31.8434
61.861854273, 96.390, 1056.0, 32.4962
61.888114838, 96.390, 1044.0, 32.3110
61.914375404, 96.390, 991.0, 31.4802
61.940635969, 96.390, 1051.0, 32.4191
61.966896534, 96.390, 1000.0, 31.6228
61.993157100, 96.390, 1034.0, 32.1559
62.019417665, 96.390, 1007.0, 31.7333
62.045678230, 96.390, 1001.0, 31.6386
62.071938796, 96.390, 1001.0, 31.6386
62.098199361, 96.390, 1069.0, 32.6956
62.124459926, 96.390, 1040.0, 32.2490
62.150720492, 96.390, 958.0, 30.9516
62.176981057, 96.390, 1007.0, 31.7333
62.203241622, 96.390, 981.0, 31.3209
62.229502188, 96.390, 1004.0, 31.6860
62.255762753, 96.390, 950.0, 30.8221
62.282023318, 96.390, 1011.0, 31.7962
62.308283884, 96.390, 962.0, 31.0161
62.334544449, 96.390, 943.0, 30.7083
62.360805015, 96.390, 984.0, 31.3688
62.387065580, 96.390, 1004.0, 31.6860
62.413326145, 96.390, 937.0, 30.6105
62.439586711, 96.390, 982.0, 31.3369
62.465847276, 96.390, 1015.0, 31.8591
62.492107841, 96.390, 1009.0, 31.7648
62.518368407, 96.390, 954.0, 30.8869
62.544628972, 96.390, 956.0, 30.9192
62.570889537, 96.390, 954.0, 30.8869
62.597150103, 96.390, 933.0, 30.5450
62.623410668, 96.390, 990.0, 31.4643
62.649671233, 96.390, 921.0, 30.3480
62.675931799, 96.390, 970.0, 31.1448
62.702192364, 96.390, 949.0, 30.8058
62.728452930, 96.390, 961.0, 31.0000
62.754713495, 96.390, 893.0, 29.8831
62.780974060, 96.390, 983.0, 31.3528
62.807234626, 96.390, 904.0, 30.0666
62.833495191, 96.390, 1001.0, 31.6386
62.859755756, 96.390, 907.0, 30.1164
62.886016322, 96.390, 962.0, 31.0161
62.912276887, 96.390, 969.0, 31.1288
62.938537452, 96.390, 935.0, 30.5778
62.964798018, 96.390, 787.0, 28.0535
62.991058583, 96.390, 873.0, 29.5466
63.017319148, 96.390, 974.0, 31.2090
63.043579714, 96.390, 920.0, 30.3315
63.069840279, 96.390, 908.0, 30.1330
63.096100844, 96.390, 937.0, 30.6105
63.122361410, 96.390, 948.0, 30.7896
63.148621975, 96.390, 929.0, 30.4795
63.174882541, 96.390, 915.0, 30.2490
63.201143106, 96.390, 876.0, 29.5973
63.227403671, 96.390, 908.0, 30.1330
63.253664237, 96.390, 930.0, 30.4959
63.279924802, 96.390, 874.0, 29.5635
63.306185367, 96.390, 887.0, 29.7825
63.332445933, 96.390, 960.0, 30.9839
63.358706498, 96.390, 880.0, 29.6648
63.384967063, 96.390, 935.0, 30.5778
63.411227629, 96.390, 923.0, 30.3809
63.437488194, 96.390, 924.0, 30.3974
63.463748759, 96.390, 941.0, 30.6757
63.490009325, 96.390, 851.0, 29.1719
63.516269890, 96.390, 898.0, 29.9666
63.542530455, 96.390, 876.0, 29.5973
63.568791021, 96.390, 850.0, 29.1548
63.595051586, 96.390, 928.0, 30.4631
63.621312152, 96.390, 878.0, 29.6311
63.647572717, 96.390, 923.0, 30.3809
63.673833282, 96.390, 857.0, 29.2746
63.700093848, 96.390, 913.0, 30.2159
63.726354413, 96.390, 868.0, 29.4618
63.752614978, 96.390, 879.0, 29.6479
63.778875544, 96.390, 865.0, 29.4109
63.805136109, 96.390, 901.0, 30.0167
63.831396674, 96.390, 833.0, 28.8617
63.857657240, 96.390, 849.0, 29.1376
63.883917805, 96.390, 849.0, 29.1376
63.910178370, 96.390, 844.0, 29.0517
63.936438936, 96.390, 871.0, 29.5127
63.962699501, 96.390, 879.0, 29.6479
63.988960067, 96.390, 848.0, 29.1204
64.015220632, 96.390, 857.0, 29.2746
64.041481197, 96.390, 896.0, 29.9333
64.067741763, 96.390, 894.0, 29.8998
64.094002328, 96.390, 819.0, 28.6182
64.120262893, 96.390, 935.0, 30.5778
64.146523459, 96.390, 865.0, 29.4109
64.172784024, 96.390, 862.0, 29.3598
64.199044589, 96.390, 860.0, 29.3258
64.225305155, 96.390, 876.0, 29.5973
64.251565720, 96.390, 860.0, 29.3258
64.277826285, 96.390, 863.0, 29.3769
64.304086851, 96.390, 827.0, 28.7576
64.330347416, 96.390, 843.0, 29.0345
64.356607981, 96.390, 860.0, 29.3258
64.382868547, 96.390, 896.0, 29.9333
64.409129112, 96.390, 887.0, 29.7825
64.435389678, 96.390, 834.0, 28.8791
64.461650243, 96.390, 878.0, 29.6311
64.487910808, 96.390, 892.0, 29.8664
64.514171374, 96.390, 917.0, 30.2820
64.540431939, 96.390, 842.0, 29.0172
64.566692504, 96.390, 795.0, 28.1957
64.592953070, 96.390, 863.0, 29.3769
64.619213635, 96.390, 851.0, 29.1719
64.645474200, 96.390, 874.0, 29.5635
64.671734766, 96.390, 851.0, 29.1719
64.697995331, 96.390, 913.0, 30.2159
64.724255896, 96.390, 832.0, 28.8444
64.750516462, 96.390, 831.0, 28.8271
64.776777027, 96.390, 841.0, 29.0000
64.803037593, 96.390, 778.0, 27.8927
64.829298158, 96.390, 823.0, 28.6880
64.855558723, 96.390, 861.0, 29.3428
64.881819289, 96.390, 878.0, 29.6311
64.908079854, 96.390, 828.0, 28.7750
64.934340419, 96.390, 839.0, 28.9655
64.960600985, 96.390, 849.0, 29.1376
64.986861550, 96.390, 848.0, 29.1204
