[Measurement conditions]
Sample identification,XRD_PAxial22Nov21_Act23Jan22_B1_0307M_NaOH_LS0108_1
Comment - 1,"Configuration=Stage for Flat Samples/Holders, Owner=User-1, Creation date=7/1/2020 9:53:24 AM"
Comment - 2,"Goniometer=Theta/Theta; Minimum step size 2Theta:0.0001; Minimum step size Omega:0.0001"
Comment - 3,"Sample stage=Stage for flat samples/holders"
Comment - 4,"Diffractometer system=EMPYREAN"
Comment - 5,"Measurement program=C:\Users\ibo5034\OneDrive - The Pennsylvania State University\NEUP\Zerobackground scan.xrdmp, Identifier={98A3B11C-88F9-4AA6-982C-73314A311EF5}"
Anode material,Cu
K-Alpha1 wavelength,1.5405980
K-Alpha2 wavelength,1.5444260
Ratio K-Alpha2/K-Alpha1,0.500
Divergence slit,Fixed,0.25
Monochromator used,NO
Generator voltage, 45
Tube current, 40
File date and time,26/Jan/2022 12:01
Unit cell,
h k l, 0 0 0
Scan axis,Gonio
Scan range,4.994599997,64.999991833
Scan step size,0.0262606
No. of points, 2285
Scan type,CONTINUOUS
Time per step,96.390
[Scan points]
Angle, TimePerStep, Intensity, ESD
5.007730280, 96.390, 7040.0, 83.9047
5.033990845, 96.390, 7096.0, 84.2378
5.060251411, 96.390, 6898.0, 83.0542
5.086511976, 96.390, 6936.0, 83.2827
5.112772541, 96.390, 6718.0, 81.9634
5.139033107, 96.390, 6774.0, 82.3043
5.165293672, 96.390, 6818.0, 82.5712
5.191554237, 96.390, 6729.0, 82.0305
5.217814803, 96.390, 6582.0, 81.1295
5.244075368, 96.390, 6463.0, 80.3928
5.270335934, 96.390, 6497.0, 80.6040
5.296596499, 96.390, 6370.0, 79.8123
5.322857064, 96.390, 6381.0, 79.8812
5.349117630, 96.390, 6544.0, 80.8950
5.375378195, 96.390, 6110.0, 78.1665
5.401638760, 96.390, 6336.0, 79.5990
5.427899326, 96.390, 6263.0, 79.1391
5.454159891, 96.390, 6076.0, 77.9487
5.480420456, 96.390, 6048.0, 77.7689
5.506681022, 96.390, 6078.0, 77.9615
5.532941587, 96.390, 6031.0, 77.6595
5.559202152, 96.390, 6164.0, 78.5111
5.585462718, 96.390, 5834.0, 76.3806
5.611723283, 96.390, 5956.0, 77.1751
5.637983849, 96.390, 5762.0, 75.9078
5.664244414, 96.390, 5810.0, 76.2234
5.690504979, 96.390, 5767.0, 75.9408
5.716765545, 96.390, 5845.0, 76.4526
5.743026110, 96.390, 5830.0, 76.3544
5.769286675, 96.390, 5643.0, 75.1199
5.795547241, 96.390, 5649.0, 75.1598
5.821807806, 96.390, 5692.0, 75.4453
5.848068371, 96.390, 5569.0, 74.6257
5.874328937, 96.390, 5501.0, 74.1687
5.900589502, 96.390, 5397.0, 73.4643
5.926850067, 96.390, 5427.0, 73.6682
5.953110633, 96.390, 5401.0, 73.4915
5.979371198, 96.390, 5333.0, 73.0274
6.005631763, 96.390, 5360.0, 73.2120
6.031892329, 96.390, 5305.0, 72.8354
6.058152894, 96.390, 5372.0, 73.2939
6.084413460, 96.390, 5351.0, 73.1505
6.110674025, 96.390, 5245.0, 72.4224
6.136934590, 96.390, 5225.0, 72.2842
6.163195156, 96.390, 5092.0, 71.3583
6.189455721, 96.390, 5020.0, 70.8520
6.215716286, 96.390, 5177.0, 71.9514
6.241976852, 96.390, 5086.0, 71.3162
6.268237417, 96.390, 5196.0, 72.0833
6.294497982, 96.390, 5073.0, 71.2250
6.320758548, 96.390, 4980.0, 70.5691
6.347019113, 96.390, 5062.0, 71.1477
6.373279678, 96.390, 4963.0, 70.4486
6.399540244, 96.390, 4988.0, 70.6258
6.425800809, 96.390, 5006.0, 70.7531
6.452061375, 96.390, 5002.0, 70.7248
6.478321940, 96.390, 4841.0, 69.5773
6.504582505, 96.390, 4740.0, 68.8477
6.530843071, 96.390, 4951.0, 70.3633
6.557103636, 96.390, 4833.0, 69.5198
6.583364201, 96.390, 4865.0, 69.7496
6.609624767, 96.390, 4867.0, 69.7639
6.635885332, 96.390, 4833.0, 69.5198
6.662145897, 96.390, 4797.0, 69.2604
6.688406463, 96.390, 4767.0, 69.0435
6.714667028, 96.390, 4839.0, 69.5629
6.740927593, 96.390, 4720.0, 68.7023
6.767188159, 96.390, 4755.0, 68.9565
6.793448724, 96.390, 4735.0, 68.8113
6.819709289, 96.390, 4777.0, 69.1158
6.845969855, 96.390, 4678.0, 68.3959
6.872230420, 96.390, 4857.0, 69.6922
6.898490986, 96.390, 4804.0, 69.3109
6.924751551, 96.390, 4806.0, 69.3253
6.951012116, 96.390, 4788.0, 69.1954
6.977272682, 96.390, 4703.0, 68.5784
7.003533247, 96.390, 4640.0, 68.1175
7.029793812, 96.390, 4616.0, 67.9412
7.056054378, 96.390, 4719.0, 68.6950
7.082314943, 96.390, 4683.0, 68.4324
7.108575508, 96.390, 4628.0, 68.0294
7.134836074, 96.390, 4848.0, 69.6276
7.161096639, 96.390, 4752.0, 68.9348
7.187357204, 96.390, 4676.0, 68.3813
7.213617770, 96.390, 4750.0, 68.9202
7.239878335, 96.390, 4864.0, 69.7424
7.266138900, 96.390, 4767.0, 69.0435
7.292399466, 96.390, 4900.0, 70.0000
7.318660031, 96.390, 4906.0, 70.0428
7.344920597, 96.390, 4979.0, 70.5620
7.371181162, 96.390, 5114.0, 71.5122
7.397441727, 96.390, 5050.0, 71.0634
7.423702293, 96.390, 5073.0, 71.2250
7.449962858, 96.390, 5175.0, 71.9375
7.476223423, 96.390, 5257.0, 72.5052
7.502483989, 96.390, 5151.0, 71.7705
7.528744554, 96.390, 5274.0, 72.6223
7.555005119, 96.390, 5394.0, 73.4439
7.581265685, 96.390, 5318.0, 72.9246
7.607526250, 96.390, 5474.0, 73.9865
7.633786815, 96.390, 5491.0, 74.1013
7.660047381, 96.390, 5577.0, 74.6793
7.686307946, 96.390, 5707.0, 75.5447
7.712568512, 96.390, 5759.0, 75.8881
7.738829077, 96.390, 5748.0, 75.8156
7.765089642, 96.390, 5889.0, 76.7398
7.791350208, 96.390, 5702.0, 75.5116
7.817610773, 96.390, 5930.0, 77.0065
7.843871338, 96.390, 6070.0, 77.9102
7.870131904, 96.390, 6070.0, 77.9102
7.896392469, 96.390, 5986.0, 77.3692
7.922653034, 96.390, 6042.0, 77.7303
7.948913600, 96.390, 6184.0, 78.6384
7.975174165, 96.390, 6126.0, 78.2688
8.001434730, 96.390, 6344.0, 79.6492
8.027695296, 96.390, 6212.0, 78.8162
8.053955861, 96.390, 6172.0, 78.5621
8.080216426, 96.390, 6042.0, 77.7303
8.106476992, 96.390, 5977.0, 77.3111
8.132737557, 96.390, 5884.0, 76.7072
8.158998123, 96.390, 5812.0, 76.2365
8.185258688, 96.390, 5702.0, 75.5116
8.211519253, 96.390, 5557.0, 74.5453
8.237779819, 96.390, 5608.0, 74.8866
8.264040384, 96.390, 5522.0, 74.3102
8.290300949, 96.390, 5321.0, 72.9452
8.316561515, 96.390, 5121.0, 71.5612
8.342822080, 96.390, 4966.0, 70.4699
8.369082645, 96.390, 4812.0, 69.3686
8.395343211, 96.390, 4917.0, 70.1213
8.421603776, 96.390, 4738.0, 68.8331
8.447864341, 96.390, 4639.0, 68.1102
8.474124907, 96.390, 4407.0, 66.3852
8.500385472, 96.390, 4469.0, 66.8506
8.526646038, 96.390, 4373.0, 66.1287
8.552906603, 96.390, 4310.0, 65.6506
8.579167168, 96.390, 4185.0, 64.6916
8.605427734, 96.390, 4213.0, 64.9076
8.631688299, 96.390, 4071.0, 63.8044
8.657948864, 96.390, 3917.0, 62.5859
8.684209430, 96.390, 4019.0, 63.3956
8.710469995, 96.390, 4009.0, 63.3167
8.736730560, 96.390, 3896.0, 62.4179
8.762991126, 96.390, 3769.0, 61.3922
8.789251691, 96.390, 3782.0, 61.4980
8.815512256, 96.390, 3793.0, 61.5873
8.841772822, 96.390, 3694.0, 60.7783
8.868033387, 96.390, 3757.0, 61.2944
8.894293952, 96.390, 3682.0, 60.6795
8.920554518, 96.390, 3739.0, 61.1474
8.946815083, 96.390, 3703.0, 60.8523
8.973075649, 96.390, 3613.0, 60.1082
8.999336214, 96.390, 3582.0, 59.8498
9.025596779, 96.390, 3492.0, 59.0931
9.051857345, 96.390, 3591.0, 59.9250
9.078117910, 96.390, 3427.0, 58.5406
9.104378475, 96.390, 3440.0, 58.6515
9.130639041, 96.390, 3466.0, 58.8727
9.156899606, 96.390, 3533.0, 59.4390
9.183160171, 96.390, 3472.0, 58.9237
9.209420737, 96.390, 3439.0, 58.6430
9.235681302, 96.390, 3454.0, 58.7707
9.261941867, 96.390, 3482.0, 59.0085
9.288202433, 96.390, 3390.0, 58.2237
9.314462998, 96.390, 3356.0, 57.9310
9.340723564, 96.390, 3407.0, 58.3695
9.366984129, 96.390, 3386.0, 58.1893
9.393244694, 96.390, 3370.0, 58.0517
9.419505260, 96.390, 3288.0, 57.3411
9.445765825, 96.390, 3324.0, 57.6541
9.472026390, 96.390, 3249.0, 57.0000
9.498286956, 96.390, 3311.0, 57.5413
9.524547521, 96.390, 3257.0, 57.0701
9.550808086, 96.390, 3178.0, 56.3738
9.577068652, 96.390, 3387.0, 58.1979
9.603329217, 96.390, 3283.0, 57.2975
9.629589782, 96.390, 3260.0, 57.0964
9.655850348, 96.390, 3320.0, 57.6194
9.682110913, 96.390, 3274.0, 57.2189
9.708371478, 96.390, 3251.0, 57.0175
9.734632044, 96.390, 3306.0, 57.4978
9.760892609, 96.390, 3199.0, 56.5597
9.787153175, 96.390, 3238.0, 56.9034
9.813413740, 96.390, 3342.0, 57.8100
9.839674305, 96.390, 3225.0, 56.7891
9.865934871, 96.390, 3111.0, 55.7763
9.892195436, 96.390, 3162.0, 56.2317
9.918456001, 96.390, 3226.0, 56.7979
9.944716567, 96.390, 3154.0, 56.1605
9.970977132, 96.390, 3133.0, 55.9732
9.997237697, 96.390, 3128.0, 55.9285
10.023498263, 96.390, 3189.0, 56.4712
10.049758828, 96.390, 3140.0, 56.0357
10.076019393, 96.390, 3156.0, 56.1783
10.102279959, 96.390, 3045.0, 55.1815
10.128540524, 96.390, 3204.0, 56.6039
10.154801090, 96.390, 3080.0, 55.4977
10.181061655, 96.390, 3153.0, 56.1516
10.207322220, 96.390, 3086.0, 55.5518
10.233582786, 96.390, 3199.0, 56.5597
10.259843351, 96.390, 3072.0, 55.4256
10.286103916, 96.390, 2961.0, 54.4151
10.312364482, 96.390, 3092.0, 55.6058
10.338625047, 96.390, 3077.0, 55.4707
10.364885612, 96.390, 3054.0, 55.2630
10.391146178, 96.390, 3098.0, 55.6597
10.417406743, 96.390, 3133.0, 55.9732
10.443667308, 96.390, 2984.0, 54.6260
10.469927874, 96.390, 2991.0, 54.6900
10.496188439, 96.390, 3002.0, 54.7905
10.522449004, 96.390, 2962.0, 54.4243
10.548709570, 96.390, 2992.0, 54.6992
10.574970135, 96.390, 3055.0, 55.2721
10.601230701, 96.390, 3017.0, 54.9272
10.627491266, 96.390, 2987.0, 54.6535
10.653751831, 96.390, 3030.0, 55.0454
10.680012397, 96.390, 2988.0, 54.6626
10.706272962, 96.390, 2881.0, 53.6749
10.732533527, 96.390, 3004.0, 54.8088
10.758794093, 96.390, 2916.0, 54.0000
10.785054658, 96.390, 2972.0, 54.5161
10.811315223, 96.390, 2896.0, 53.8145
10.837575789, 96.390, 2943.0, 54.2494
10.863836354, 96.390, 2995.0, 54.7266
10.890096919, 96.390, 2848.0, 53.3667
10.916357485, 96.390, 2998.0, 54.7540
10.942618050, 96.390, 3019.0, 54.9454
10.968878616, 96.390, 2941.0, 54.2310
10.995139181, 96.390, 2927.0, 54.1018
11.021399746, 96.390, 2937.0, 54.1941
11.047660312, 96.390, 2924.0, 54.0740
11.073920877, 96.390, 2951.0, 54.3231
11.100181442, 96.390, 2917.0, 54.0093
11.126442008, 96.390, 2844.0, 53.3292
11.152702573, 96.390, 2915.0, 53.9907
11.178963138, 96.390, 2828.0, 53.1789
11.205223704, 96.390, 2943.0, 54.2494
11.231484269, 96.390, 2922.0, 54.0555
11.257744834, 96.390, 2793.0, 52.8488
11.284005400, 96.390, 2835.0, 53.2447
11.310265965, 96.390, 2844.0, 53.3292
11.336526530, 96.390, 2941.0, 54.2310
11.362787096, 96.390, 2815.0, 53.0566
11.389047661, 96.390, 2822.0, 53.1225
11.415308227, 96.390, 2838.0, 53.2729
11.441568792, 96.390, 2957.0, 54.3783
11.467829357, 96.390, 2830.0, 53.1977
11.494089923, 96.390, 2833.0, 53.2259
11.520350488, 96.390, 2797.0, 52.8867
11.546611053, 96.390, 2705.0, 52.0096
11.572871619, 96.390, 2804.0, 52.9528
11.599132184, 96.390, 2760.0, 52.5357
11.625392749, 96.390, 2849.0, 53.3760
11.651653315, 96.390, 2800.0, 52.9150
11.677913880, 96.390, 2805.0, 52.9623
11.704174445, 96.390, 2796.0, 52.8772
11.730435011, 96.390, 2844.0, 53.3292
11.756695576, 96.390, 2764.0, 52.5738
11.782956141, 96.390, 2834.0, 53.2353
11.809216707, 96.390, 2807.0, 52.9811
11.835477272, 96.390, 2819.0, 53.0943
11.861737838, 96.390, 2793.0, 52.8488
11.887998403, 96.390, 2756.0, 52.4976
11.914258968, 96.390, 2768.0, 52.6118
11.940519534, 96.390, 2770.0, 52.6308
11.966780099, 96.390, 2845.0, 53.3385
11.993040664, 96.390, 2765.0, 52.5833
12.019301230, 96.390, 2722.0, 52.1728
12.045561795, 96.390, 2776.0, 52.6878
12.071822360, 96.390, 2739.0, 52.3355
12.098082926, 96.390, 2802.0, 52.9339
12.124343491, 96.390, 2725.0, 52.2015
12.150604056, 96.390, 2697.0, 51.9326
12.176864622, 96.390, 2717.0, 52.1249
12.203125187, 96.390, 2670.0, 51.6720
12.229385753, 96.390, 2655.0, 51.5267
12.255646318, 96.390, 2727.0, 52.2207
12.281906883, 96.390, 2712.0, 52.0769
12.308167449, 96.390, 2722.0, 52.1728
12.334428014, 96.390, 2718.0, 52.1344
12.360688579, 96.390, 2706.0, 52.0192
12.386949145, 96.390, 2757.0, 52.5071
12.413209710, 96.390, 2722.0, 52.1728
12.439470275, 96.390, 2717.0, 52.1249
12.465730841, 96.390, 2720.0, 52.1536
12.491991406, 96.390, 2764.0, 52.5738
12.518251971, 96.390, 2702.0, 51.9808
12.544512537, 96.390, 2704.0, 52.0000
12.570773102, 96.390, 2788.0, 52.8015
12.597033667, 96.390, 2660.0, 51.5752
12.623294233, 96.390, 2716.0, 52.1153
12.649554798, 96.390, 2644.0, 51.4198
12.675815364, 96.390, 2666.0, 51.6333
12.702075929, 96.390, 2696.0, 51.9230
12.728336494, 96.390, 2716.0, 52.1153
12.754597060, 96.390, 2633.0, 51.3128
12.780857625, 96.390, 2571.0, 50.7050
12.807118190, 96.390, 2641.0, 51.3907
12.833378756, 96.390, 2558.0, 50.5767
12.859639321, 96.390, 2724.0, 52.1920
12.885899886, 96.390, 2681.0, 51.7784
12.912160452, 96.390, 2653.0, 51.5073
12.938421017, 96.390, 2687.0, 51.8363
12.964681582, 96.390, 2675.0, 51.7204
12.990942148, 96.390, 2683.0, 51.7977
13.017202713, 96.390, 2655.0, 51.5267
13.043463279, 96.390, 2608.0, 51.0686
13.069723844, 96.390, 2635.0, 51.3323
13.095984409, 96.390, 2610.0, 51.0882
13.122244975, 96.390, 2753.0, 52.4690
13.148505540, 96.390, 2612.0, 51.1077
13.174766105, 96.390, 2619.0, 51.1762
13.201026671, 96.390, 2621.0, 51.1957
13.227287236, 96.390, 2600.0, 50.9902
13.253547801, 96.390, 2720.0, 52.1536
13.279808367, 96.390, 2578.0, 50.7740
13.306068932, 96.390, 2625.0, 51.2348
13.332329497, 96.390, 2589.0, 50.8822
13.358590063, 96.390, 2535.0, 50.3488
13.384850628, 96.390, 2632.0, 51.3030
13.411111193, 96.390, 2585.0, 50.8429
13.437371759, 96.390, 2652.0, 51.4976
13.463632324, 96.390, 2591.0, 50.9019
13.489892890, 96.390, 2554.0, 50.5371
13.516153455, 96.390, 2578.0, 50.7740
13.542414020, 96.390, 2612.0, 51.1077
13.568674586, 96.390, 2513.0, 50.1298
13.594935151, 96.390, 2554.0, 50.5371
13.621195716, 96.390, 2550.0, 50.4975
13.647456282, 96.390, 2609.0, 51.0784
13.673716847, 96.390, 2591.0, 50.9019
13.699977412, 96.390, 2584.0, 50.8331
13.726237978, 96.390, 2558.0, 50.5767
13.752498543, 96.390, 2484.0, 49.8397
13.778759108, 96.390, 2463.0, 49.6286
13.805019674, 96.390, 2554.0, 50.5371
13.831280239, 96.390, 2492.0, 49.9199
13.857540805, 96.390, 2445.0, 49.4469
13.883801370, 96.390, 2497.0, 49.9700
13.910061935, 96.390, 2533.0, 50.3289
13.936322501, 96.390, 2481.0, 49.8096
13.962583066, 96.390, 2491.0, 49.9099
13.988843631, 96.390, 2491.0, 49.9099
14.015104197, 96.390, 2661.0, 51.5849
14.041364762, 96.390, 2524.0, 50.2394
14.067625327, 96.390, 2453.0, 49.5278
14.093885893, 96.390, 2471.0, 49.7092
14.120146458, 96.390, 2465.0, 49.6488
14.146407023, 96.390, 2469.0, 49.6890
14.172667589, 96.390, 2484.0, 49.8397
14.198928154, 96.390, 2528.0, 50.2792
14.225188719, 96.390, 2430.0, 49.2950
14.251449285, 96.390, 2481.0, 49.8096
14.277709850, 96.390, 2477.0, 49.7695
14.303970416, 96.390, 2542.0, 50.4183
14.330230981, 96.390, 2446.0, 49.4571
14.356491546, 96.390, 2530.0, 50.2991
14.382752112, 96.390, 2535.0, 50.3488
14.409012677, 96.390, 2505.0, 50.0500
14.435273242, 96.390, 2414.0, 49.1325
14.461533808, 96.390, 2640.0, 51.3809
14.487794373, 96.390, 2650.0, 51.4782
14.514054938, 96.390, 2680.0, 51.7687
14.540315504, 96.390, 2759.0, 52.5262
14.566576069, 96.390, 2739.0, 52.3355
14.592836634, 96.390, 2843.0, 53.3198
14.619097200, 96.390, 2863.0, 53.5070
14.645357765, 96.390, 2843.0, 53.3198
14.671618331, 96.390, 2811.0, 53.0189
14.697878896, 96.390, 2836.0, 53.2541
14.724139461, 96.390, 2770.0, 52.6308
14.750400027, 96.390, 2650.0, 51.4782
14.776660592, 96.390, 2607.0, 51.0588
14.802921157, 96.390, 2597.0, 50.9608
14.829181723, 96.390, 2633.0, 51.3128
14.855442288, 96.390, 2550.0, 50.4975
14.881702853, 96.390, 2540.0, 50.3984
14.907963419, 96.390, 2554.0, 50.5371
14.934223984, 96.390, 2525.0, 50.2494
14.960484549, 96.390, 2494.0, 49.9400
14.986745115, 96.390, 2561.0, 50.6063
15.013005680, 96.390, 2558.0, 50.5767
15.039266245, 96.390, 2474.0, 49.7393
15.065526811, 96.390, 2580.0, 50.7937
15.091787376, 96.390, 2512.0, 50.1199
15.118047942, 96.390, 2561.0, 50.6063
15.144308507, 96.390, 2625.0, 51.2348
15.170569072, 96.390, 2508.0, 50.0799
15.196829638, 96.390, 2530.0, 50.2991
15.223090203, 96.390, 2469.0, 49.6890
15.249350768, 96.390, 2494.0, 49.9400
15.275611334, 96.390, 2533.0, 50.3289
15.301871899, 96.390, 2594.0, 50.9313
15.328132464, 96.390, 2533.0, 50.3289
15.354393030, 96.390, 2565.0, 50.6458
15.380653595, 96.390, 2501.0, 50.0100
15.406914160, 96.390, 2467.0, 49.6689
15.433174726, 96.390, 2471.0, 49.7092
15.459435291, 96.390, 2476.0, 49.7594
15.485695857, 96.390, 2477.0, 49.7695
15.511956422, 96.390, 2472.0, 49.7192
15.538216987, 96.390, 2561.0, 50.6063
15.564477553, 96.390, 2429.0, 49.2849
15.590738118, 96.390, 2461.0, 49.6085
15.616998683, 96.390, 2491.0, 49.9099
15.643259249, 96.390, 2419.0, 49.1833
15.669519814, 96.390, 2484.0, 49.8397
15.695780379, 96.390, 2451.0, 49.5076
15.722040945, 96.390, 2489.0, 49.8899
15.748301510, 96.390, 2548.0, 50.4777
15.774562075, 96.390, 2528.0, 50.2792
15.800822641, 96.390, 2588.0, 50.8724
15.827083206, 96.390, 2593.0, 50.9215
15.853343771, 96.390, 2440.0, 49.3964
15.879604337, 96.390, 2484.0, 49.8397
15.905864902, 96.390, 2465.0, 49.6488
15.932125468, 96.390, 2568.0, 50.6754
15.958386033, 96.390, 2508.0, 50.0799
15.984646598, 96.390, 2530.0, 50.2991
16.010907164, 96.390, 2515.0, 50.1498
16.037167729, 96.390, 2603.0, 51.0196
16.063428294, 96.390, 2609.0, 51.0784
16.089688860, 96.390, 2534.0, 50.3389
16.115949425, 96.390, 2656.0, 51.5364
16.142209990, 96.390, 2548.0, 50.4777
16.168470556, 96.390, 2610.0, 51.0882
16.194731121, 96.390, 2646.0, 51.4393
16.220991686, 96.390, 2655.0, 51.5267
16.247252252, 96.390, 2653.0, 51.5073
16.273512817, 96.390, 2759.0, 52.5262
16.299773382, 96.390, 2783.0, 52.7541
16.326033948, 96.390, 2736.0, 52.3068
16.352294513, 96.390, 2691.0, 51.8748
16.378555079, 96.390, 2676.0, 51.7301
16.404815644, 96.390, 2748.0, 52.4214
16.431076209, 96.390, 2857.0, 53.4509
16.457336775, 96.390, 2882.0, 53.6843
16.483597340, 96.390, 2973.0, 54.5252
16.509857905, 96.390, 2847.0, 53.3573
16.536118471, 96.390, 2915.0, 53.9907
16.562379036, 96.390, 2914.0, 53.9815
16.588639601, 96.390, 2961.0, 54.4151
16.614900167, 96.390, 3029.0, 55.0364
16.641160732, 96.390, 3003.0, 54.7996
16.667421297, 96.390, 2991.0, 54.6900
16.693681863, 96.390, 2902.0, 53.8702
16.719942428, 96.390, 2984.0, 54.6260
16.746202994, 96.390, 3019.0, 54.9454
16.772463559, 96.390, 3044.0, 55.1725
16.798724124, 96.390, 3012.0, 54.8817
16.824984690, 96.390, 2973.0, 54.5252
16.851245255, 96.390, 2987.0, 54.6535
16.877505820, 96.390, 3024.0, 54.9909
16.903766386, 96.390, 2948.0, 54.2955
16.930026951, 96.390, 2961.0, 54.4151
16.956287516, 96.390, 2853.0, 53.4135
16.982548082, 96.390, 2809.0, 53.0000
17.008808647, 96.390, 2836.0, 53.2541
17.035069212, 96.390, 2892.0, 53.7773
17.061329778, 96.390, 2888.0, 53.7401
17.087590343, 96.390, 2750.0, 52.4404
17.113850908, 96.390, 2710.0, 52.0577
17.140111474, 96.390, 2856.0, 53.4416
17.166372039, 96.390, 2615.0, 51.1371
17.192632605, 96.390, 2697.0, 51.9326
17.218893170, 96.390, 2612.0, 51.1077
17.245153735, 96.390, 2621.0, 51.1957
17.271414301, 96.390, 2610.0, 51.0882
17.297674866, 96.390, 2584.0, 50.8331
17.323935431, 96.390, 2562.0, 50.6162
17.350195997, 96.390, 2569.0, 50.6853
17.376456562, 96.390, 2605.0, 51.0392
17.402717127, 96.390, 2573.0, 50.7247
17.428977693, 96.390, 2522.0, 50.2195
17.455238258, 96.390, 2512.0, 50.1199
17.481498823, 96.390, 2553.0, 50.5272
17.507759389, 96.390, 2553.0, 50.5272
17.534019954, 96.390, 2483.0, 49.8297
17.560280520, 96.390, 2548.0, 50.4777
17.586541085, 96.390, 2510.0, 50.0999
17.612801650, 96.390, 2427.0, 49.2646
17.639062216, 96.390, 2461.0, 49.6085
17.665322781, 96.390, 2504.0, 50.0400
17.691583346, 96.390, 2514.0, 50.1398
17.717843912, 96.390, 2454.0, 49.5379
17.744104477, 96.390, 2452.0, 49.5177
17.770365042, 96.390, 2459.0, 49.5883
17.796625608, 96.390, 2496.0, 49.9600
17.822886173, 96.390, 2362.0, 48.6004
17.849146738, 96.390, 2397.0, 48.9592
17.875407304, 96.390, 2408.0, 49.0714
17.901667869, 96.390, 2393.0, 48.9183
17.927928434, 96.390, 2445.0, 49.4469
17.954189000, 96.390, 2428.0, 49.2747
17.980449565, 96.390, 2418.0, 49.1732
18.006710131, 96.390, 2439.0, 49.3862
18.032970696, 96.390, 2388.0, 48.8672
18.059231261, 96.390, 2299.0, 47.9479
18.085491827, 96.390, 2414.0, 49.1325
18.111752392, 96.390, 2426.0, 49.2544
18.138012957, 96.390, 2473.0, 49.7293
18.164273523, 96.390, 2297.0, 47.9270
18.190534088, 96.390, 2423.0, 49.2240
18.216794653, 96.390, 2284.0, 47.7912
18.243055219, 96.390, 2311.0, 48.0729
18.269315784, 96.390, 2455.0, 49.5480
18.295576349, 96.390, 2398.0, 48.9694
18.321836915, 96.390, 2412.0, 49.1121
18.348097480, 96.390, 2414.0, 49.1325
18.374358046, 96.390, 2389.0, 48.8774
18.400618611, 96.390, 2397.0, 48.9592
18.426879176, 96.390, 2419.0, 49.1833
18.453139742, 96.390, 2413.0, 49.1223
18.479400307, 96.390, 2407.0, 49.0612
18.505660872, 96.390, 2408.0, 49.0714
18.531921438, 96.390, 2317.0, 48.1352
18.558182003, 96.390, 2461.0, 49.6085
18.584442568, 96.390, 2366.0, 48.6415
18.610703134, 96.390, 2318.0, 48.1456
18.636963699, 96.390, 2378.0, 48.7647
18.663224264, 96.390, 2313.0, 48.0937
18.689484830, 96.390, 2364.0, 48.6210
18.715745395, 96.390, 2366.0, 48.6415
18.742005960, 96.390, 2461.0, 49.6085
18.768266526, 96.390, 2368.0, 48.6621
18.794527091, 96.390, 2377.0, 48.7545
18.820787657, 96.390, 2416.0, 49.1528
18.847048222, 96.390, 2395.0, 48.9387
18.873308787, 96.390, 2386.0, 48.8467
18.899569353, 96.390, 2378.0, 48.7647
18.925829918, 96.390, 2448.0, 49.4773
18.952090483, 96.390, 2432.0, 49.3153
18.978351049, 96.390, 2405.0, 49.0408
19.004611614, 96.390, 2483.0, 49.8297
19.030872179, 96.390, 2439.0, 49.3862
19.057132745, 96.390, 2455.0, 49.5480
19.083393310, 96.390, 2480.0, 49.7996
19.109653875, 96.390, 2569.0, 50.6853
19.135914441, 96.390, 2531.0, 50.3090
19.162175006, 96.390, 2561.0, 50.6063
19.188435572, 96.390, 2575.0, 50.7445
19.214696137, 96.390, 2522.0, 50.2195
19.240956702, 96.390, 2567.0, 50.6656
19.267217268, 96.390, 2590.0, 50.8920
19.293477833, 96.390, 2554.0, 50.5371
19.319738398, 96.390, 2533.0, 50.3289
19.345998964, 96.390, 2438.0, 49.3761
19.372259529, 96.390, 2403.0, 49.0204
19.398520094, 96.390, 2407.0, 49.0612
19.424780660, 96.390, 2507.0, 50.0700
19.451041225, 96.390, 2517.0, 50.1697
19.477301790, 96.390, 2445.0, 49.4469
19.503562356, 96.390, 2392.0, 48.9081
19.529822921, 96.390, 2481.0, 49.8096
19.556083486, 96.390, 2413.0, 49.1223
19.582344052, 96.390, 2487.0, 49.8698
19.608604617, 96.390, 2368.0, 48.6621
19.634865183, 96.390, 2414.0, 49.1325
19.661125748, 96.390, 2443.0, 49.4267
19.687386313, 96.390, 2488.0, 49.8799
19.713646879, 96.390, 2476.0, 49.7594
19.739907444, 96.390, 2629.0, 51.2738
19.766168009, 96.390, 2556.0, 50.5569
19.792428575, 96.390, 2477.0, 49.7695
19.818689140, 96.390, 2416.0, 49.1528
19.844949705, 96.390, 2470.0, 49.6991
19.871210271, 96.390, 2583.0, 50.8232
19.897470836, 96.390, 2453.0, 49.5278
19.923731401, 96.390, 2505.0, 50.0500
19.949991967, 96.390, 2588.0, 50.8724
19.976252532, 96.390, 2583.0, 50.8232
20.002513097, 96.390, 2535.0, 50.3488
20.028773663, 96.390, 2561.0, 50.6063
20.055034228, 96.390, 2557.0, 50.5668
20.081294794, 96.390, 2626.0, 51.2445
20.107555359, 96.390, 2644.0, 51.4198
20.133815924, 96.390, 2690.0, 51.8652
20.160076490, 96.390, 2696.0, 51.9230
20.186337055, 96.390, 2641.0, 51.3907
20.212597620, 96.390, 2779.0, 52.7162
20.238858186, 96.390, 2813.0, 53.0377
20.265118751, 96.390, 2856.0, 53.4416
20.291379316, 96.390, 2829.0, 53.1883
20.317639882, 96.390, 2827.0, 53.1695
20.343900447, 96.390, 2905.0, 53.8981
20.370161012, 96.390, 2848.0, 53.3667
20.396421578, 96.390, 2977.0, 54.5619
20.422682143, 96.390, 2962.0, 54.4243
20.448942709, 96.390, 2851.0, 53.3948
20.475203274, 96.390, 2921.0, 54.0463
20.501463839, 96.390, 2951.0, 54.3231
20.527724405, 96.390, 2910.0, 53.9444
20.553984970, 96.390, 2863.0, 53.5070
20.580245535, 96.390, 2766.0, 52.5928
20.606506101, 96.390, 2901.0, 53.8609
20.632766666, 96.390, 2850.0, 53.3854
20.659027231, 96.390, 2759.0, 52.5262
20.685287797, 96.390, 2755.0, 52.4881
20.711548362, 96.390, 2808.0, 52.9906
20.737808927, 96.390, 2839.0, 53.2823
20.764069493, 96.390, 2847.0, 53.3573
20.790330058, 96.390, 2765.0, 52.5833
20.816590623, 96.390, 2816.0, 53.0660
20.842851189, 96.390, 2740.0, 52.3450
20.869111754, 96.390, 2815.0, 53.0566
20.895372320, 96.390, 2786.0, 52.7826
20.921632885, 96.390, 2795.0, 52.8678
20.947893450, 96.390, 2783.0, 52.7541
20.974154016, 96.390, 2704.0, 52.0000
21.000414581, 96.390, 2771.0, 52.6403
21.026675146, 96.390, 2732.0, 52.2685
21.052935712, 96.390, 2749.0, 52.4309
21.079196277, 96.390, 2786.0, 52.7826
21.105456842, 96.390, 2738.0, 52.3259
21.131717408, 96.390, 2796.0, 52.8772
21.157977973, 96.390, 2792.0, 52.8394
21.184238538, 96.390, 2764.0, 52.5738
21.210499104, 96.390, 2790.0, 52.8205
21.236759669, 96.390, 2873.0, 53.6004
21.263020235, 96.390, 2925.0, 54.0833
21.289280800, 96.390, 2904.0, 53.8888
21.315541365, 96.390, 3013.0, 54.8908
21.341801931, 96.390, 2959.0, 54.3967
21.368062496, 96.390, 2972.0, 54.5161
21.394323061, 96.390, 3000.0, 54.7723
21.420583627, 96.390, 3086.0, 55.5518
21.446844192, 96.390, 3029.0, 55.0364
21.473104757, 96.390, 3023.0, 54.9818
21.499365323, 96.390, 3063.0, 55.3444
21.525625888, 96.390, 3067.0, 55.3805
21.551886453, 96.390, 3013.0, 54.8908
21.578147019, 96.390, 2970.0, 54.4977
21.604407584, 96.390, 2947.0, 54.2863
21.630668149, 96.390, 2924.0, 54.0740
21.656928715, 96.390, 2864.0, 53.5164
21.683189280, 96.390, 2805.0, 52.9623
21.709449846, 96.390, 2829.0, 53.1883
21.735710411, 96.390, 2830.0, 53.1977
21.761970976, 96.390, 2706.0, 52.0192
21.788231542, 96.390, 2801.0, 52.9245
21.814492107, 96.390, 2738.0, 52.3259
21.840752672, 96.390, 2732.0, 52.2685
21.867013238, 96.390, 2649.0, 51.4684
21.893273803, 96.390, 2798.0, 52.8961
21.919534368, 96.390, 2897.0, 53.8238
21.945794934, 96.390, 2752.0, 52.4595
21.972055499, 96.390, 2746.0, 52.4023
21.998316064, 96.390, 2636.0, 51.3420
22.024576630, 96.390, 2742.0, 52.3641
22.050837195, 96.390, 2753.0, 52.4690
22.077097761, 96.390, 2733.0, 52.2781
22.103358326, 96.390, 2797.0, 52.8867
22.129618891, 96.390, 2810.0, 53.0094
22.155879457, 96.390, 2722.0, 52.1728
22.182140022, 96.390, 2832.0, 53.2165
22.208400587, 96.390, 2779.0, 52.7162
22.234661153, 96.390, 2782.0, 52.7447
22.260921718, 96.390, 2838.0, 53.2729
22.287182283, 96.390, 2741.0, 52.3546
22.313442849, 96.390, 2794.0, 52.8583
22.339703414, 96.390, 2711.0, 52.0673
22.365963979, 96.390, 2704.0, 52.0000
22.392224545, 96.390, 2725.0, 52.2015
22.418485110, 96.390, 2718.0, 52.1344
22.444745675, 96.390, 2601.0, 51.0000
22.471006241, 96.390, 2658.0, 51.5558
22.497266806, 96.390, 2641.0, 51.3907
22.523527372, 96.390, 2648.0, 51.4587
22.549787937, 96.390, 2708.0, 52.0384
22.576048502, 96.390, 2667.0, 51.6430
22.602309068, 96.390, 2711.0, 52.0673
22.628569633, 96.390, 2639.0, 51.3712
22.654830198, 96.390, 2627.0, 51.2543
22.681090764, 96.390, 2594.0, 50.9313
22.707351329, 96.390, 2588.0, 50.8724
22.733611894, 96.390, 2571.0, 50.7050
22.759872460, 96.390, 2606.0, 51.0490
22.786133025, 96.390, 2672.0, 51.6914
22.812393590, 96.390, 2625.0, 51.2348
22.838654156, 96.390, 2630.0, 51.2835
22.864914721, 96.390, 2630.0, 51.2835
22.891175287, 96.390, 2710.0, 52.0577
22.917435852, 96.390, 2673.0, 51.7011
22.943696417, 96.390, 2591.0, 50.9019
22.969956983, 96.390, 2613.0, 51.1175
22.996217548, 96.390, 2672.0, 51.6914
23.022478113, 96.390, 2591.0, 50.9019
23.048738679, 96.390, 2570.0, 50.6952
23.074999244, 96.390, 2612.0, 51.1077
23.101259809, 96.390, 2603.0, 51.0196
23.127520375, 96.390, 2515.0, 50.1498
23.153780940, 96.390, 2610.0, 51.0882
23.180041505, 96.390, 2622.0, 51.2055
23.206302071, 96.390, 2612.0, 51.1077
23.232562636, 96.390, 2552.0, 50.5173
23.258823201, 96.390, 2632.0, 51.3030
23.285083767, 96.390, 2613.0, 51.1175
23.311344332, 96.390, 2575.0, 50.7445
23.337604898, 96.390, 2537.0, 50.3686
23.363865463, 96.390, 2624.0, 51.2250
23.390126028, 96.390, 2539.0, 50.3885
23.416386594, 96.390, 2561.0, 50.6063
23.442647159, 96.390, 2539.0, 50.3885
23.468907724, 96.390, 2623.0, 51.2152
23.495168290, 96.390, 2684.0, 51.8073
23.521428855, 96.390, 2665.0, 51.6236
23.547689420, 96.390, 2632.0, 51.3030
23.573949986, 96.390, 2585.0, 50.8429
23.600210551, 96.390, 2567.0, 50.6656
23.626471116, 96.390, 2550.0, 50.4975
23.652731682, 96.390, 2618.0, 51.1664
23.678992247, 96.390, 2670.0, 51.6720
23.705252813, 96.390, 2650.0, 51.4782
23.731513378, 96.390, 2463.0, 49.6286
23.757773943, 96.390, 2467.0, 49.6689
23.784034509, 96.390, 2496.0, 49.9600
23.810295074, 96.390, 2523.0, 50.2295
23.836555639, 96.390, 2543.0, 50.4282
23.862816205, 96.390, 2477.0, 49.7695
23.889076770, 96.390, 2452.0, 49.5177
23.915337335, 96.390, 2605.0, 51.0392
23.941597901, 96.390, 2630.0, 51.2835
23.967858466, 96.390, 2446.0, 49.4571
23.994119031, 96.390, 2529.0, 50.2892
24.020379597, 96.390, 2452.0, 49.5177
24.046640162, 96.390, 2486.0, 49.8598
24.072900727, 96.390, 2518.0, 50.1797
24.099161293, 96.390, 2499.0, 49.9900
24.125421858, 96.390, 2360.0, 48.5798
24.151682424, 96.390, 2448.0, 49.4773
24.177942989, 96.390, 2507.0, 50.0700
24.204203554, 96.390, 2417.0, 49.1630
24.230464120, 96.390, 2346.0, 48.4355
24.256724685, 96.390, 2467.0, 49.6689
24.282985250, 96.390, 2380.0, 48.7852
24.309245816, 96.390, 2364.0, 48.6210
24.335506381, 96.390, 2396.0, 48.9490
24.361766946, 96.390, 2415.0, 49.1426
24.388027512, 96.390, 2427.0, 49.2646
24.414288077, 96.390, 2393.0, 48.9183
24.440548642, 96.390, 2512.0, 50.1199
24.466809208, 96.390, 2483.0, 49.8297
24.493069773, 96.390, 2411.0, 49.1019
24.519330338, 96.390, 2432.0, 49.3153
24.545590904, 96.390, 2489.0, 49.8899
24.571851469, 96.390, 2363.0, 48.6107
24.598112035, 96.390, 2440.0, 49.3964
24.624372600, 96.390, 2413.0, 49.1223
24.650633165, 96.390, 2432.0, 49.3153
24.676893731, 96.390, 2535.0, 50.3488
24.703154296, 96.390, 2511.0, 50.1099
24.729414861, 96.390, 2498.0, 49.9800
24.755675427, 96.390, 2573.0, 50.7247
24.781935992, 96.390, 2468.0, 49.6790
24.808196557, 96.390, 2559.0, 50.5866
24.834457123, 96.390, 2476.0, 49.7594
24.860717688, 96.390, 2426.0, 49.2544
24.886978253, 96.390, 2469.0, 49.6890
24.913238819, 96.390, 2613.0, 51.1175
24.939499384, 96.390, 2509.0, 50.0899
24.965759950, 96.390, 2535.0, 50.3488
24.992020515, 96.390, 2520.0, 50.1996
25.018281080, 96.390, 2566.0, 50.6557
25.044541646, 96.390, 2460.0, 49.5984
25.070802211, 96.390, 2559.0, 50.5866
25.097062776, 96.390, 2448.0, 49.4773
25.123323342, 96.390, 2547.0, 50.4678
25.149583907, 96.390, 2470.0, 49.6991
25.175844472, 96.390, 2504.0, 50.0400
25.202105038, 96.390, 2538.0, 50.3786
25.228365603, 96.390, 2556.0, 50.5569
25.254626168, 96.390, 2543.0, 50.4282
25.280886734, 96.390, 2493.0, 49.9300
25.307147299, 96.390, 2514.0, 50.1398
25.333407864, 96.390, 2376.0, 48.7442
25.359668430, 96.390, 2457.0, 49.5681
25.385928995, 96.390, 2397.0, 48.9592
25.412189561, 96.390, 2510.0, 50.0999
25.438450126, 96.390, 2479.0, 49.7896
25.464710691, 96.390, 2440.0, 49.3964
25.490971257, 96.390, 2455.0, 49.5480
25.517231822, 96.390, 2382.0, 48.8057
25.543492387, 96.390, 2423.0, 49.2240
25.569752953, 96.390, 2486.0, 49.8598
25.596013518, 96.390, 2448.0, 49.4773
25.622274083, 96.390, 2404.0, 49.0306
25.648534649, 96.390, 2380.0, 48.7852
25.674795214, 96.390, 2369.0, 48.6724
25.701055779, 96.390, 2381.0, 48.7955
25.727316345, 96.390, 2309.0, 48.0521
25.753576910, 96.390, 2328.0, 48.2494
25.779837476, 96.390, 2262.0, 47.5605
25.806098041, 96.390, 2432.0, 49.3153
25.832358606, 96.390, 2337.0, 48.3425
25.858619172, 96.390, 2396.0, 48.9490
25.884879737, 96.390, 2316.0, 48.1248
25.911140302, 96.390, 2351.0, 48.4871
25.937400868, 96.390, 2362.0, 48.6004
25.963661433, 96.390, 2385.0, 48.8365
25.989921998, 96.390, 2478.0, 49.7795
26.016182564, 96.390, 2305.0, 48.0104
26.042443129, 96.390, 2378.0, 48.7647
26.068703694, 96.390, 2224.0, 47.1593
26.094964260, 96.390, 2350.0, 48.4768
26.121224825, 96.390, 2356.0, 48.5386
26.147485390, 96.390, 2437.0, 49.3660
26.173745956, 96.390, 2297.0, 47.9270
26.200006521, 96.390, 2294.0, 47.8957
26.226267087, 96.390, 2297.0, 47.9270
26.252527652, 96.390, 2377.0, 48.7545
26.278788217, 96.390, 2266.0, 47.6025
26.305048783, 96.390, 2385.0, 48.8365
26.331309348, 96.390, 2319.0, 48.1560
26.357569913, 96.390, 2305.0, 48.0104
26.383830479, 96.390, 2423.0, 49.2240
26.410091044, 96.390, 2397.0, 48.9592
26.436351609, 96.390, 2363.0, 48.6107
26.462612175, 96.390, 2331.0, 48.2804
26.488872740, 96.390, 2322.0, 48.1871
26.515133305, 96.390, 2288.0, 47.8330
26.541393871, 96.390, 2476.0, 49.7594
26.567654436, 96.390, 2395.0, 48.9387
26.593915002, 96.390, 2355.0, 48.5283
26.620175567, 96.390, 2389.0, 48.8774
26.646436132, 96.390, 2407.0, 49.0612
26.672696698, 96.390, 2404.0, 49.0306
26.698957263, 96.390, 2409.0, 49.0816
26.725217828, 96.390, 2455.0, 49.5480
26.751478394, 96.390, 2357.0, 48.5489
26.777738959, 96.390, 2445.0, 49.4469
26.803999524, 96.390, 2452.0, 49.5177
26.830260090, 96.390, 2485.0, 49.8498
26.856520655, 96.390, 2444.0, 49.4368
26.882781220, 96.390, 2397.0, 48.9592
26.909041786, 96.390, 2500.0, 50.0000
26.935302351, 96.390, 2413.0, 49.1223
26.961562916, 96.390, 2510.0, 50.0999
26.987823482, 96.390, 2511.0, 50.1099
27.014084047, 96.390, 2481.0, 49.8096
27.040344613, 96.390, 2399.0, 48.9796
27.066605178, 96.390, 2529.0, 50.2892
27.092865743, 96.390, 2440.0, 49.3964
27.119126309, 96.390, 2462.0, 49.6185
27.145386874, 96.390, 2521.0, 50.2096
27.171647439, 96.390, 2539.0, 50.3885
27.197908005, 96.390, 2488.0, 49.8799
27.224168570, 96.390, 2551.0, 50.5074
27.250429135, 96.390, 2573.0, 50.7247
27.276689701, 96.390, 2642.0, 51.4004
27.302950266, 96.390, 2589.0, 50.8822
27.329210831, 96.390, 2599.0, 50.9804
27.355471397, 96.390, 2605.0, 51.0392
27.381731962, 96.390, 2596.0, 50.9510
27.407992528, 96.390, 2643.0, 51.4101
27.434253093, 96.390, 2581.0, 50.8035
27.460513658, 96.390, 2616.0, 51.1468
27.486774224, 96.390, 2668.0, 51.6527
27.513034789, 96.390, 2759.0, 52.5262
27.539295354, 96.390, 2643.0, 51.4101
27.565555920, 96.390, 2803.0, 52.9434
27.591816485, 96.390, 2753.0, 52.4690
27.618077050, 96.390, 2816.0, 53.0660
27.644337616, 96.390, 2792.0, 52.8394
27.670598181, 96.390, 2685.0, 51.8170
27.696858746, 96.390, 2681.0, 51.7784
27.723119312, 96.390, 2834.0, 53.2353
27.749379877, 96.390, 2684.0, 51.8073
27.775640442, 96.390, 2665.0, 51.6236
27.801901008, 96.390, 2780.0, 52.7257
27.828161573, 96.390, 2687.0, 51.8363
27.854422139, 96.390, 2743.0, 52.3737
27.880682704, 96.390, 2715.0, 52.1057
27.906943269, 96.390, 2713.0, 52.0865
27.933203835, 96.390, 2675.0, 51.7204
27.959464400, 96.390, 2694.0, 51.9038
27.985724965, 96.390, 2646.0, 51.4393
28.011985531, 96.390, 2636.0, 51.3420
28.038246096, 96.390, 2703.0, 51.9904
28.064506661, 96.390, 2615.0, 51.1371
28.090767227, 96.390, 2634.0, 51.3225
28.117027792, 96.390, 2622.0, 51.2055
28.143288357, 96.390, 2595.0, 50.9411
28.169548923, 96.390, 2610.0, 51.0882
28.195809488, 96.390, 2716.0, 52.1153
28.222070054, 96.390, 2707.0, 52.0288
28.248330619, 96.390, 2570.0, 50.6952
28.274591184, 96.390, 2725.0, 52.2015
28.300851750, 96.390, 2677.0, 51.7397
28.327112315, 96.390, 2631.0, 51.2933
28.353372880, 96.390, 2595.0, 50.9411
28.379633446, 96.390, 2520.0, 50.1996
28.405894011, 96.390, 2632.0, 51.3030
28.432154576, 96.390, 2582.0, 50.8134
28.458415142, 96.390, 2569.0, 50.6853
28.484675707, 96.390, 2674.0, 51.7107
28.510936272, 96.390, 2710.0, 52.0577
28.537196838, 96.390, 2569.0, 50.6853
28.563457403, 96.390, 2545.0, 50.4480
28.589717968, 96.390, 2670.0, 51.6720
28.615978534, 96.390, 2591.0, 50.9019
28.642239099, 96.390, 2477.0, 49.7695
28.668499665, 96.390, 2638.0, 51.3615
28.694760230, 96.390, 2685.0, 51.8170
28.721020795, 96.390, 2611.0, 51.0979
28.747281361, 96.390, 2551.0, 50.5074
28.773541926, 96.390, 2603.0, 51.0196
28.799802491, 96.390, 2550.0, 50.4975
28.826063057, 96.390, 2655.0, 51.5267
28.852323622, 96.390, 2737.0, 52.3163
28.878584187, 96.390, 2609.0, 51.0784
28.904844753, 96.390, 2631.0, 51.2933
28.931105318, 96.390, 2641.0, 51.3907
28.957365883, 96.390, 2665.0, 51.6236
28.983626449, 96.390, 2695.0, 51.9134
29.009887014, 96.390, 2655.0, 51.5267
29.036147579, 96.390, 2668.0, 51.6527
29.062408145, 96.390, 2704.0, 52.0000
29.088668710, 96.390, 2725.0, 52.2015
29.114929276, 96.390, 2723.0, 52.1824
29.141189841, 96.390, 2655.0, 51.5267
29.167450406, 96.390, 2673.0, 51.7011
29.193710972, 96.390, 2726.0, 52.2111
29.219971537, 96.390, 2660.0, 51.5752
29.246232102, 96.390, 2801.0, 52.9245
29.272492668, 96.390, 2779.0, 52.7162
29.298753233, 96.390, 2736.0, 52.3068
29.325013798, 96.390, 2733.0, 52.2781
29.351274364, 96.390, 2792.0, 52.8394
29.377534929, 96.390, 2849.0, 53.3760
29.403795494, 96.390, 2794.0, 52.8583
29.430056060, 96.390, 2843.0, 53.3198
29.456316625, 96.390, 2854.0, 53.4228
29.482577191, 96.390, 2755.0, 52.4881
29.508837756, 96.390, 2884.0, 53.7029
29.535098321, 96.390, 2849.0, 53.3760
29.561358887, 96.390, 2743.0, 52.3737
29.587619452, 96.390, 2747.0, 52.4118
29.613880017, 96.390, 2664.0, 51.6140
29.640140583, 96.390, 2786.0, 52.7826
29.666401148, 96.390, 2733.0, 52.2781
29.692661713, 96.390, 2578.0, 50.7740
29.718922279, 96.390, 2619.0, 51.1762
29.745182844, 96.390, 2547.0, 50.4678
29.771443409, 96.390, 2530.0, 50.2991
29.797703975, 96.390, 2628.0, 51.2640
29.823964540, 96.390, 2533.0, 50.3289
29.850225105, 96.390, 2571.0, 50.7050
29.876485671, 96.390, 2556.0, 50.5569
29.902746236, 96.390, 2587.0, 50.8626
29.929006802, 96.390, 2524.0, 50.2394
29.955267367, 96.390, 2687.0, 51.8363
29.981527932, 96.390, 2534.0, 50.3389
30.007788498, 96.390, 2668.0, 51.6527
30.034049063, 96.390, 2617.0, 51.1566
30.060309628, 96.390, 2654.0, 51.5170
30.086570194, 96.390, 2666.0, 51.6333
30.112830759, 96.390, 2703.0, 51.9904
30.139091324, 96.390, 2593.0, 50.9215
30.165351890, 96.390, 2646.0, 51.4393
30.191612455, 96.390, 2659.0, 51.5655
30.217873020, 96.390, 2747.0, 52.4118
30.244133586, 96.390, 2692.0, 51.8845
30.270394151, 96.390, 2730.0, 52.2494
30.296654717, 96.390, 2631.0, 51.2933
30.322915282, 96.390, 2701.0, 51.9711
30.349175847, 96.390, 2722.0, 52.1728
30.375436413, 96.390, 2741.0, 52.3546
30.401696978, 96.390, 2851.0, 53.3948
30.427957543, 96.390, 2859.0, 53.4696
30.454218109, 96.390, 2816.0, 53.0660
30.480478674, 96.390, 2909.0, 53.9351
30.506739239, 96.390, 2819.0, 53.0943
30.532999805, 96.390, 2832.0, 53.2165
30.559260370, 96.390, 2839.0, 53.2823
30.585520935, 96.390, 2913.0, 53.9722
30.611781501, 96.390, 2771.0, 52.6403
30.638042066, 96.390, 2789.0, 52.8110
30.664302631, 96.390, 2782.0, 52.7447
30.690563197, 96.390, 2717.0, 52.1249
30.716823762, 96.390, 2752.0, 52.4595
30.743084328, 96.390, 2663.0, 51.6043
30.769344893, 96.390, 2653.0, 51.5073
30.795605458, 96.390, 2701.0, 51.9711
30.821866024, 96.390, 2633.0, 51.3128
30.848126589, 96.390, 2719.0, 52.1440
30.874387154, 96.390, 2623.0, 51.2152
30.900647720, 96.390, 2661.0, 51.5849
30.926908285, 96.390, 2652.0, 51.4976
30.953168850, 96.390, 2558.0, 50.5767
30.979429416, 96.390, 2519.0, 50.1896
31.005689981, 96.390, 2583.0, 50.8232
31.031950546, 96.390, 2565.0, 50.6458
31.058211112, 96.390, 2635.0, 51.3323
31.084471677, 96.390, 2535.0, 50.3488
31.110732243, 96.390, 2476.0, 49.7594
31.136992808, 96.390, 2519.0, 50.1896
31.163253373, 96.390, 2503.0, 50.0300
31.189513939, 96.390, 2491.0, 49.9099
31.215774504, 96.390, 2464.0, 49.6387
31.242035069, 96.390, 2337.0, 48.3425
31.268295635, 96.390, 2383.0, 48.8160
31.294556200, 96.390, 2353.0, 48.5077
31.320816765, 96.390, 2394.0, 48.9285
31.347077331, 96.390, 2316.0, 48.1248
31.373337896, 96.390, 2334.0, 48.3115
31.399598461, 96.390, 2324.0, 48.2079
31.425859027, 96.390, 2347.0, 48.4458
31.452119592, 96.390, 2379.0, 48.7750
31.478380157, 96.390, 2284.0, 47.7912
31.504640723, 96.390, 2322.0, 48.1871
31.530901288, 96.390, 2398.0, 48.9694
31.557161854, 96.390, 2376.0, 48.7442
31.583422419, 96.390, 2245.0, 47.3814
31.609682984, 96.390, 2270.0, 47.6445
31.635943550, 96.390, 2311.0, 48.0729
31.662204115, 96.390, 2276.0, 47.7074
31.688464680, 96.390, 2300.0, 47.9583
31.714725246, 96.390, 2348.0, 48.4562
31.740985811, 96.390, 2301.0, 47.9687
31.767246376, 96.390, 2288.0, 47.8330
31.793506942, 96.390, 2310.0, 48.0625
31.819767507, 96.390, 2246.0, 47.3920
31.846028072, 96.390, 2119.0, 46.0326
31.872288638, 96.390, 2199.0, 46.8935
31.898549203, 96.390, 2263.0, 47.5710
31.924809769, 96.390, 2226.0, 47.1805
31.951070334, 96.390, 2254.0, 47.4763
31.977330899, 96.390, 2226.0, 47.1805
32.003591465, 96.390, 2201.0, 46.9148
32.029852030, 96.390, 2237.0, 47.2969
32.056112595, 96.390, 2196.0, 46.8615
32.082373161, 96.390, 2210.0, 47.0106
32.108633726, 96.390, 2205.0, 46.9574
32.134894291, 96.390, 2140.0, 46.2601
32.161154857, 96.390, 2167.0, 46.5510
32.187415422, 96.390, 2131.0, 46.1628
32.213675987, 96.390, 2130.0, 46.1519
32.239936553, 96.390, 2122.0, 46.0652
32.266197118, 96.390, 2214.0, 47.0532
32.292457683, 96.390, 2183.0, 46.7226
32.318718249, 96.390, 2129.0, 46.1411
32.344978814, 96.390, 2162.0, 46.4973
32.371239380, 96.390, 2147.0, 46.3357
32.397499945, 96.390, 2133.0, 46.1844
32.423760510, 96.390, 2032.0, 45.0777
32.450021076, 96.390, 2077.0, 45.5741
32.476281641, 96.390, 2115.0, 45.9891
32.502542206, 96.390, 2107.0, 45.9021
32.528802772, 96.390, 2144.0, 46.3033
32.555063337, 96.390, 2177.0, 46.6583
32.581323902, 96.390, 2102.0, 45.8476
32.607584468, 96.390, 2154.0, 46.4112
32.633845033, 96.390, 2113.0, 45.9674
32.660105598, 96.390, 2091.0, 45.7275
32.686366164, 96.390, 2149.0, 46.3573
32.712626729, 96.390, 2078.0, 45.5851
32.738887295, 96.390, 2208.0, 46.9894
32.765147860, 96.390, 2103.0, 45.8585
32.791408425, 96.390, 2102.0, 45.8476
32.817668991, 96.390, 2066.0, 45.4533
32.843929556, 96.390, 1990.0, 44.6094
32.870190121, 96.390, 2091.0, 45.7275
32.896450687, 96.390, 2090.0, 45.7165
32.922711252, 96.390, 2121.0, 46.0543
32.948971817, 96.390, 2125.0, 46.0977
32.975232383, 96.390, 2147.0, 46.3357
33.001492948, 96.390, 2128.0, 46.1303
33.027753513, 96.390, 2195.0, 46.8508
33.054014079, 96.390, 2176.0, 46.6476
33.080274644, 96.390, 2071.0, 45.5082
33.106535209, 96.390, 2048.0, 45.2548
33.132795775, 96.390, 2147.0, 46.3357
33.159056340, 96.390, 2127.0, 46.1194
33.185316906, 96.390, 2042.0, 45.1885
33.211577471, 96.390, 2109.0, 45.9239
33.237838036, 96.390, 2038.0, 45.1442
33.264098602, 96.390, 2093.0, 45.7493
33.290359167, 96.390, 2038.0, 45.1442
33.316619732, 96.390, 2013.0, 44.8665
33.342880298, 96.390, 2147.0, 46.3357
33.369140863, 96.390, 2078.0, 45.5851
33.395401428, 96.390, 2185.0, 46.7440
33.421661994, 96.390, 2147.0, 46.3357
33.447922559, 96.390, 2130.0, 46.1519
33.474183124, 96.390, 2059.0, 45.3762
33.500443690, 96.390, 2194.0, 46.8402
33.526704255, 96.390, 2143.0, 46.2925
33.552964820, 96.390, 2061.0, 45.3982
33.579225386, 96.390, 2027.0, 45.0222
33.605485951, 96.390, 2043.0, 45.1996
33.631746517, 96.390, 2091.0, 45.7275
33.658007082, 96.390, 2090.0, 45.7165
33.684267647, 96.390, 2101.0, 45.8367
33.710528213, 96.390, 2095.0, 45.7712
33.736788778, 96.390, 2015.0, 44.8888
33.763049343, 96.390, 1965.0, 44.3283
33.789309909, 96.390, 2061.0, 45.3982
33.815570474, 96.390, 2022.0, 44.9667
33.841831039, 96.390, 1990.0, 44.6094
33.868091605, 96.390, 1978.0, 44.4747
33.894352170, 96.390, 1981.0, 44.5084
33.920612735, 96.390, 1962.0, 44.2945
33.946873301, 96.390, 2052.0, 45.2990
33.973133866, 96.390, 1889.0, 43.4626
33.999394432, 96.390, 1891.0, 43.4856
34.025654997, 96.390, 1889.0, 43.4626
34.051915562, 96.390, 2020.0, 44.9444
34.078176128, 96.390, 2008.0, 44.8107
34.104436693, 96.390, 1958.0, 44.2493
34.130697258, 96.390, 1839.0, 42.8836
34.156957824, 96.390, 1991.0, 44.6206
34.183218389, 96.390, 1907.0, 43.6692
34.209478954, 96.390, 1931.0, 43.9431
34.235739520, 96.390, 1893.0, 43.5086
34.262000085, 96.390, 1853.0, 43.0465
34.288260650, 96.390, 2019.0, 44.9333
34.314521216, 96.390, 1917.0, 43.7836
34.340781781, 96.390, 1951.0, 44.1701
34.367042346, 96.390, 1874.0, 43.2897
34.393302912, 96.390, 1927.0, 43.8976
34.419563477, 96.390, 1877.0, 43.3244
34.445824043, 96.390, 1939.0, 44.0341
34.472084608, 96.390, 1873.0, 43.2782
34.498345173, 96.390, 1863.0, 43.1625
34.524605739, 96.390, 1855.0, 43.0697
34.550866304, 96.390, 1838.0, 42.8719
34.577126869, 96.390, 1845.0, 42.9535
34.603387435, 96.390, 1807.0, 42.5088
34.629648000, 96.390, 1823.0, 42.6966
34.655908565, 96.390, 1776.0, 42.1426
34.682169131, 96.390, 1735.0, 41.6533
34.708429696, 96.390, 1829.0, 42.7668
34.734690261, 96.390, 1761.0, 41.9643
34.760950827, 96.390, 1843.0, 42.9302
34.787211392, 96.390, 1830.0, 42.7785
34.813471958, 96.390, 1755.0, 41.8927
34.839732523, 96.390, 1714.0, 41.4005
34.865993088, 96.390, 1586.0, 39.8246
34.892253654, 96.390, 1787.0, 42.2729
34.918514219, 96.390, 1758.0, 41.9285
34.944774784, 96.390, 1777.0, 42.1545
34.971035350, 96.390, 1729.0, 41.5812
34.997295915, 96.390, 1694.0, 41.1582
35.023556480, 96.390, 1700.0, 41.2311
35.049817046, 96.390, 1724.0, 41.5211
35.076077611, 96.390, 1782.0, 42.2137
35.102338176, 96.390, 1751.0, 41.8450
35.128598742, 96.390, 1730.0, 41.5933
35.154859307, 96.390, 1783.0, 42.2256
35.181119872, 96.390, 1746.0, 41.7852
35.207380438, 96.390, 1707.0, 41.3159
35.233641003, 96.390, 1776.0, 42.1426
35.259901569, 96.390, 1752.0, 41.8569
35.286162134, 96.390, 1700.0, 41.2311
35.312422699, 96.390, 1679.0, 40.9756
35.338683265, 96.390, 1714.0, 41.4005
35.364943830, 96.390, 1778.0, 42.1663
35.391204395, 96.390, 1730.0, 41.5933
35.417464961, 96.390, 1744.0, 41.7612
35.443725526, 96.390, 1732.0, 41.6173
35.469986091, 96.390, 1730.0, 41.5933
35.496246657, 96.390, 1692.0, 41.1339
35.522507222, 96.390, 1618.0, 40.2244
35.548767787, 96.390, 1699.0, 41.2189
35.575028353, 96.390, 1702.0, 41.2553
35.601288918, 96.390, 1715.0, 41.4126
35.627549484, 96.390, 1711.0, 41.3642
35.653810049, 96.390, 1704.0, 41.2795
35.680070614, 96.390, 1686.0, 41.0609
35.706331180, 96.390, 1752.0, 41.8569
35.732591745, 96.390, 1715.0, 41.4126
35.758852310, 96.390, 1705.0, 41.2916
35.785112876, 96.390, 1660.0, 40.7431
35.811373441, 96.390, 1611.0, 40.1373
35.837634006, 96.390, 1665.0, 40.8044
35.863894572, 96.390, 1605.0, 40.0625
35.890155137, 96.390, 1670.0, 40.8656
35.916415702, 96.390, 1671.0, 40.8779
35.942676268, 96.390, 1648.0, 40.5956
35.968936833, 96.390, 1560.0, 39.4968
35.995197398, 96.390, 1591.0, 39.8873
36.021457964, 96.390, 1536.0, 39.1918
36.047718529, 96.390, 1517.0, 38.9487
36.073979095, 96.390, 1620.0, 40.2492
36.100239660, 96.390, 1591.0, 39.8873
36.126500225, 96.390, 1576.0, 39.6989
36.152760791, 96.390, 1510.0, 38.8587
36.179021356, 96.390, 1472.0, 38.3667
36.205281921, 96.390, 1514.0, 38.9102
36.231542487, 96.390, 1482.0, 38.4968
36.257803052, 96.390, 1499.0, 38.7169
36.284063617, 96.390, 1509.0, 38.8458
36.310324183, 96.390, 1451.0, 38.0920
36.336584748, 96.390, 1583.0, 39.7869
36.362845313, 96.390, 1529.0, 39.1024
36.389105879, 96.390, 1459.0, 38.1969
36.415366444, 96.390, 1483.0, 38.5097
36.441627010, 96.390, 1464.0, 38.2623
36.467887575, 96.390, 1562.0, 39.5221
36.494148140, 96.390, 1441.0, 37.9605
36.520408706, 96.390, 1503.0, 38.7685
36.546669271, 96.390, 1485.0, 38.5357
36.572929836, 96.390, 1488.0, 38.5746
36.599190402, 96.390, 1507.0, 38.8201
36.625450967, 96.390, 1474.0, 38.3927
36.651711532, 96.390, 1572.0, 39.6485
36.677972098, 96.390, 1573.0, 39.6611
36.704232663, 96.390, 1562.0, 39.5221
36.730493228, 96.390, 1600.0, 40.0000
36.756753794, 96.390, 1568.0, 39.5980
36.783014359, 96.390, 1477.0, 38.4318
36.809274924, 96.390, 1539.0, 39.2301
36.835535490, 96.390, 1555.0, 39.4335
36.861796055, 96.390, 1487.0, 38.5616
36.888056621, 96.390, 1498.0, 38.7040
36.914317186, 96.390, 1505.0, 38.7943
36.940577751, 96.390, 1475.0, 38.4057
36.966838317, 96.390, 1429.0, 37.8021
36.993098882, 96.390, 1423.0, 37.7227
37.019359447, 96.390, 1411.0, 37.5633
37.045620013, 96.390, 1426.0, 37.7624
37.071880578, 96.390, 1421.0, 37.6962
37.098141143, 96.390, 1325.0, 36.4005
37.124401709, 96.390, 1430.0, 37.8153
37.150662274, 96.390, 1415.0, 37.6165
37.176922839, 96.390, 1410.0, 37.5500
37.203183405, 96.390, 1316.0, 36.2767
37.229443970, 96.390, 1368.0, 36.9865
37.255704535, 96.390, 1334.0, 36.5240
37.281965101, 96.390, 1412.0, 37.5766
37.308225666, 96.390, 1373.0, 37.0540
37.334486232, 96.390, 1360.0, 36.8782
37.360746797, 96.390, 1364.0, 36.9324
37.387007362, 96.390, 1356.0, 36.8239
37.413267928, 96.390, 1375.0, 37.0810
37.439528493, 96.390, 1354.0, 36.7967
37.465789058, 96.390, 1332.0, 36.4966
37.492049624, 96.390, 1304.0, 36.1109
37.518310189, 96.390, 1316.0, 36.2767
37.544570754, 96.390, 1336.0, 36.5513
37.570831320, 96.390, 1188.0, 34.4674
37.597091885, 96.390, 1377.0, 37.1080
37.623352450, 96.390, 1278.0, 35.7491
37.649613016, 96.390, 1381.0, 37.1618
37.675873581, 96.390, 1340.0, 36.6060
37.702134147, 96.390, 1368.0, 36.9865
37.728394712, 96.390, 1294.0, 35.9722
37.754655277, 96.390, 1313.0, 36.2353
37.780915843, 96.390, 1367.0, 36.9730
37.807176408, 96.390, 1263.0, 35.5387
37.833436973, 96.390, 1422.0, 37.7094
37.859697539, 96.390, 1248.0, 35.3270
37.885958104, 96.390, 1322.0, 36.3593
37.912218669, 96.390, 1300.0, 36.0555
37.938479235, 96.390, 1303.0, 36.0971
37.964739800, 96.390, 1275.0, 35.7071
37.991000365, 96.390, 1307.0, 36.1525
38.017260931, 96.390, 1337.0, 36.5650
38.043521496, 96.390, 1368.0, 36.9865
38.069782061, 96.390, 1239.0, 35.1994
38.096042627, 96.390, 1407.0, 37.5100
38.122303192, 96.390, 1318.0, 36.3043
38.148563758, 96.390, 1254.0, 35.4119
38.174824323, 96.390, 1228.0, 35.0428
38.201084888, 96.390, 1349.0, 36.7287
38.227345454, 96.390, 1341.0, 36.6197
38.253606019, 96.390, 1318.0, 36.3043
38.279866584, 96.390, 1316.0, 36.2767
38.306127150, 96.390, 1332.0, 36.4966
38.332387715, 96.390, 1334.0, 36.5240
38.358648280, 96.390, 1392.0, 37.3095
38.384908846, 96.390, 1349.0, 36.7287
38.411169411, 96.390, 1347.0, 36.7015
38.437429976, 96.390, 1383.0, 37.1887
38.463690542, 96.390, 1398.0, 37.3898
38.489951107, 96.390, 1360.0, 36.8782
38.516211673, 96.390, 1395.0, 37.3497
38.542472238, 96.390, 1404.0, 37.4700
38.568732803, 96.390, 1356.0, 36.8239
38.594993369, 96.390, 1331.0, 36.4829
38.621253934, 96.390, 1477.0, 38.4318
38.647514499, 96.390, 1411.0, 37.5633
38.673775065, 96.390, 1482.0, 38.4968
38.700035630, 96.390, 1439.0, 37.9342
38.726296195, 96.390, 1556.0, 39.4462
38.752556761, 96.390, 1471.0, 38.3536
38.778817326, 96.390, 1475.0, 38.4057
38.805077891, 96.390, 1593.0, 39.9124
38.831338457, 96.390, 1569.0, 39.6106
38.857599022, 96.390, 1583.0, 39.7869
38.883859587, 96.390, 1572.0, 39.6485
38.910120153, 96.390, 1607.0, 40.0874
38.936380718, 96.390, 1517.0, 38.9487
38.962641284, 96.390, 1489.0, 38.5876
38.988901849, 96.390, 1478.0, 38.4448
39.015162414, 96.390, 1482.0, 38.4968
39.041422980, 96.390, 1455.0, 38.1445
39.067683545, 96.390, 1445.0, 38.0132
39.093944110, 96.390, 1421.0, 37.6962
39.120204676, 96.390, 1411.0, 37.5633
39.146465241, 96.390, 1382.0, 37.1753
39.172725806, 96.390, 1384.0, 37.2022
39.198986372, 96.390, 1384.0, 37.2022
39.225246937, 96.390, 1347.0, 36.7015
39.251507502, 96.390, 1349.0, 36.7287
39.277768068, 96.390, 1451.0, 38.0920
39.304028633, 96.390, 1342.0, 36.6333
39.330289199, 96.390, 1337.0, 36.5650
39.356549764, 96.390, 1325.0, 36.4005
39.382810329, 96.390, 1379.0, 37.1349
39.409070895, 96.390, 1340.0, 36.6060
39.435331460, 96.390, 1327.0, 36.4280
39.461592025, 96.390, 1334.0, 36.5240
39.487852591, 96.390, 1325.0, 36.4005
39.514113156, 96.390, 1307.0, 36.1525
39.540373721, 96.390, 1234.0, 35.1283
39.566634287, 96.390, 1356.0, 36.8239
39.592894852, 96.390, 1380.0, 37.1484
39.619155417, 96.390, 1323.0, 36.3731
39.645415983, 96.390, 1291.0, 35.9305
39.671676548, 96.390, 1293.0, 35.9583
39.697937113, 96.390, 1324.0, 36.3868
39.724197679, 96.390, 1336.0, 36.5513
39.750458244, 96.390, 1360.0, 36.8782
39.776718810, 96.390, 1379.0, 37.1349
39.802979375, 96.390, 1353.0, 36.7831
39.829239940, 96.390, 1399.0, 37.4032
39.855500506, 96.390, 1324.0, 36.3868
39.881761071, 96.390, 1283.0, 35.8190
39.908021636, 96.390, 1392.0, 37.3095
39.934282202, 96.390, 1293.0, 35.9583
39.960542767, 96.390, 1346.0, 36.6879
39.986803332, 96.390, 1319.0, 36.3180
40.013063898, 96.390, 1374.0, 37.0675
40.039324463, 96.390, 1308.0, 36.1663
40.065585028, 96.390, 1349.0, 36.7287
40.091845594, 96.390, 1373.0, 37.0540
40.118106159, 96.390, 1329.0, 36.4555
40.144366725, 96.390, 1334.0, 36.5240
40.170627290, 96.390, 1278.0, 35.7491
40.196887855, 96.390, 1295.0, 35.9861
40.223148421, 96.390, 1274.0, 35.6931
40.249408986, 96.390, 1309.0, 36.1801
40.275669551, 96.390, 1283.0, 35.8190
40.301930117, 96.390, 1271.0, 35.6511
40.328190682, 96.390, 1343.0, 36.6470
40.354451247, 96.390, 1245.0, 35.2846
40.380711813, 96.390, 1239.0, 35.1994
40.406972378, 96.390, 1243.0, 35.2562
40.433232943, 96.390, 1295.0, 35.9861
40.459493509, 96.390, 1255.0, 35.4260
40.485754074, 96.390, 1262.0, 35.5246
40.512014639, 96.390, 1217.0, 34.8855
40.538275205, 96.390, 1262.0, 35.5246
40.564535770, 96.390, 1137.0, 33.7194
40.590796336, 96.390, 1175.0, 34.2783
40.617056901, 96.390, 1203.0, 34.6843
40.643317466, 96.390, 1183.0, 34.3948
40.669578032, 96.390, 1210.0, 34.7851
40.695838597, 96.390, 1167.0, 34.1614
40.722099162, 96.390, 1265.0, 35.5668
40.748359728, 96.390, 1215.0, 34.8569
40.774620293, 96.390, 1203.0, 34.6843
40.800880858, 96.390, 1194.0, 34.5543
40.827141424, 96.390, 1184.0, 34.4093
40.853401989, 96.390, 1192.0, 34.5254
40.879662554, 96.390, 1135.0, 33.6898
40.905923120, 96.390, 1144.0, 33.8231
40.932183685, 96.390, 1183.0, 34.3948
40.958444251, 96.390, 1150.0, 33.9116
40.984704816, 96.390, 1105.0, 33.2415
41.010965381, 96.390, 1249.0, 35.3412
41.037225947, 96.390, 1163.0, 34.1028
41.063486512, 96.390, 1226.0, 35.0143
41.089747077, 96.390, 1241.0, 35.2278
41.116007643, 96.390, 1150.0, 33.9116
41.142268208, 96.390, 1153.0, 33.9559
41.168528773, 96.390, 1247.0, 35.3129
41.194789339, 96.390, 1179.0, 34.3366
41.221049904, 96.390, 1226.0, 35.0143
41.247310469, 96.390, 1181.0, 34.3657
41.273571035, 96.390, 1219.0, 34.9142
41.299831600, 96.390, 1215.0, 34.8569
41.326092165, 96.390, 1162.0, 34.0881
41.352352731, 96.390, 1199.0, 34.6266
41.378613296, 96.390, 1194.0, 34.5543
41.404873862, 96.390, 1192.0, 34.5254
41.431134427, 96.390, 1155.0, 33.9853
41.457394992, 96.390, 1139.0, 33.7491
41.483655558, 96.390, 1119.0, 33.4515
41.509916123, 96.390, 1125.0, 33.5410
41.536176688, 96.390, 1121.0, 33.4813
41.562437254, 96.390, 1170.0, 34.2053
41.588697819, 96.390, 1067.0, 32.6650
41.614958384, 96.390, 1130.0, 33.6155
41.641218950, 96.390, 1145.0, 33.8378
41.667479515, 96.390, 1067.0, 32.6650
41.693740080, 96.390, 1141.0, 33.7787
41.720000646, 96.390, 1079.0, 32.8481
41.746261211, 96.390, 1115.0, 33.3916
41.772521776, 96.390, 1140.0, 33.7639
41.798782342, 96.390, 1114.0, 33.3766
41.825042907, 96.390, 1163.0, 34.1028
41.851303473, 96.390, 1117.0, 33.4215
41.877564038, 96.390, 1057.0, 32.5115
41.903824603, 96.390, 1145.0, 33.8378
41.930085169, 96.390, 1092.0, 33.0454
41.956345734, 96.390, 1115.0, 33.3916
41.982606299, 96.390, 1122.0, 33.4963
42.008866865, 96.390, 1082.0, 32.8938
42.035127430, 96.390, 1072.0, 32.7414
42.061387995, 96.390, 1122.0, 33.4963
42.087648561, 96.390, 1098.0, 33.1361
42.113909126, 96.390, 1050.0, 32.4037
42.140169691, 96.390, 1146.0, 33.8526
42.166430257, 96.390, 1097.0, 33.1210
42.192690822, 96.390, 1100.0, 33.1662
42.218951388, 96.390, 1195.0, 34.5688
42.245211953, 96.390, 1140.0, 33.7639
42.271472518, 96.390, 1053.0, 32.4500
42.297733084, 96.390, 1060.0, 32.5576
42.323993649, 96.390, 1086.0, 32.9545
42.350254214, 96.390, 1062.0, 32.5883
42.376514780, 96.390, 1166.0, 34.1467
42.402775345, 96.390, 1080.0, 32.8634
42.429035910, 96.390, 1120.0, 33.4664
42.455296476, 96.390, 1101.0, 33.1813
42.481557041, 96.390, 1149.0, 33.8969
42.507817606, 96.390, 1157.0, 34.0147
42.534078172, 96.390, 1161.0, 34.0735
42.560338737, 96.390, 1067.0, 32.6650
42.586599302, 96.390, 1089.0, 33.0000
42.612859868, 96.390, 1111.0, 33.3317
42.639120433, 96.390, 1111.0, 33.3317
42.665380999, 96.390, 1090.0, 33.0151
42.691641564, 96.390, 1121.0, 33.4813
42.717902129, 96.390, 1092.0, 33.0454
42.744162695, 96.390, 1120.0, 33.4664
42.770423260, 96.390, 1118.0, 33.4365
42.796683825, 96.390, 1108.0, 33.2866
42.822944391, 96.390, 1105.0, 33.2415
42.849204956, 96.390, 1143.0, 33.8083
42.875465521, 96.390, 1095.0, 33.0908
42.901726087, 96.390, 1125.0, 33.5410
42.927986652, 96.390, 1057.0, 32.5115
42.954247217, 96.390, 1205.0, 34.7131
42.980507783, 96.390, 1149.0, 33.8969
43.006768348, 96.390, 1098.0, 33.1361
43.033028914, 96.390, 1035.0, 32.1714
43.059289479, 96.390, 1071.0, 32.7261
43.085550044, 96.390, 1124.0, 33.5261
43.111810610, 96.390, 1103.0, 33.2114
43.138071175, 96.390, 1100.0, 33.1662
43.164331740, 96.390, 1069.0, 32.6956
43.190592306, 96.390, 1107.0, 33.2716
43.216852871, 96.390, 1151.0, 33.9264
43.243113436, 96.390, 1100.0, 33.1662
43.269374002, 96.390, 1046.0, 32.3419
43.295634567, 96.390, 1026.0, 32.0312
43.321895132, 96.390, 1072.0, 32.7414
43.348155698, 96.390, 1081.0, 32.8786
43.374416263, 96.390, 1068.0, 32.6803
43.400676828, 96.390, 1106.0, 33.2566
43.426937394, 96.390, 1041.0, 32.2645
43.453197959, 96.390, 1084.0, 32.9242
43.479458525, 96.390, 1053.0, 32.4500
43.505719090, 96.390, 1115.0, 33.3916
43.531979655, 96.390, 1092.0, 33.0454
43.558240221, 96.390, 1025.0, 32.0156
43.584500786, 96.390, 1096.0, 33.1059
43.610761351, 96.390, 1075.0, 32.7872
43.637021917, 96.390, 1063.0, 32.6037
43.663282482, 96.390, 1088.0, 32.9848
43.689543047, 96.390, 1117.0, 33.4215
43.715803613, 96.390, 1152.0, 33.9411
43.742064178, 96.390, 1104.0, 33.2265
43.768324743, 96.390, 1073.0, 32.7567
43.794585309, 96.390, 1083.0, 32.9090
43.820845874, 96.390, 1114.0, 33.3766
43.847106440, 96.390, 1139.0, 33.7491
43.873367005, 96.390, 1098.0, 33.1361
43.899627570, 96.390, 1125.0, 33.5410
43.925888136, 96.390, 1084.0, 32.9242
43.952148701, 96.390, 1150.0, 33.9116
43.978409266, 96.390, 1082.0, 32.8938
44.004669832, 96.390, 1081.0, 32.8786
44.030930397, 96.390, 1139.0, 33.7491
44.057190962, 96.390, 1156.0, 34.0000
44.083451528, 96.390, 1126.0, 33.5559
44.109712093, 96.390, 1105.0, 33.2415
44.135972658, 96.390, 1097.0, 33.1210
44.162233224, 96.390, 1077.0, 32.8177
44.188493789, 96.390, 1114.0, 33.3766
44.214754354, 96.390, 1136.0, 33.7046
44.241014920, 96.390, 1116.0, 33.4066
44.267275485, 96.390, 1084.0, 32.9242
44.293536051, 96.390, 1149.0, 33.8969
44.319796616, 96.390, 1063.0, 32.6037
44.346057181, 96.390, 1131.0, 33.6303
44.372317747, 96.390, 1058.0, 32.5269
44.398578312, 96.390, 1138.0, 33.7343
44.424838877, 96.390, 1138.0, 33.7343
44.451099443, 96.390, 1074.0, 32.7719
44.477360008, 96.390, 1123.0, 33.5112
44.503620573, 96.390, 1205.0, 34.7131
44.529881139, 96.390, 1113.0, 33.3617
44.556141704, 96.390, 1150.0, 33.9116
44.582402269, 96.390, 1139.0, 33.7491
44.608662835, 96.390, 1135.0, 33.6898
44.634923400, 96.390, 1139.0, 33.7491
44.661183966, 96.390, 1132.0, 33.6452
44.687444531, 96.390, 1167.0, 34.1614
44.713705096, 96.390, 1218.0, 34.8999
44.739965662, 96.390, 1163.0, 34.1028
44.766226227, 96.390, 1200.0, 34.6410
44.792486792, 96.390, 1192.0, 34.5254
44.818747358, 96.390, 1163.0, 34.1028
44.845007923, 96.390, 1178.0, 34.3220
44.871268488, 96.390, 1143.0, 33.8083
44.897529054, 96.390, 1172.0, 34.2345
44.923789619, 96.390, 1175.0, 34.2783
44.950050184, 96.390, 1145.0, 33.8378
44.976310750, 96.390, 1166.0, 34.1467
45.002571315, 96.390, 1134.0, 33.6749
45.028831880, 96.390, 1174.0, 34.2637
45.055092446, 96.390, 1205.0, 34.7131
45.081353011, 96.390, 1085.0, 32.9393
45.107613577, 96.390, 1112.0, 33.3467
45.133874142, 96.390, 1129.0, 33.6006
45.160134707, 96.390, 1162.0, 34.0881
45.186395273, 96.390, 1127.0, 33.5708
45.212655838, 96.390, 1158.0, 34.0294
45.238916403, 96.390, 1127.0, 33.5708
45.265176969, 96.390, 1121.0, 33.4813
45.291437534, 96.390, 1121.0, 33.4813
45.317698099, 96.390, 1121.0, 33.4813
45.343958665, 96.390, 1128.0, 33.5857
45.370219230, 96.390, 1090.0, 33.0151
45.396479795, 96.390, 1105.0, 33.2415
45.422740361, 96.390, 1118.0, 33.4365
45.449000926, 96.390, 1051.0, 32.4191
45.475261492, 96.390, 1141.0, 33.7787
45.501522057, 96.390, 1135.0, 33.6898
45.527782622, 96.390, 1101.0, 33.1813
45.554043188, 96.390, 1088.0, 32.9848
45.580303753, 96.390, 1105.0, 33.2415
45.606564318, 96.390, 1105.0, 33.2415
45.632824884, 96.390, 1056.0, 32.4962
45.659085449, 96.390, 1070.0, 32.7109
45.685346014, 96.390, 1068.0, 32.6803
45.711606580, 96.390, 1087.0, 32.9697
45.737867145, 96.390, 1100.0, 33.1662
45.764127710, 96.390, 1110.0, 33.3167
45.790388276, 96.390, 1144.0, 33.8231
45.816648841, 96.390, 1093.0, 33.0606
45.842909406, 96.390, 1115.0, 33.3916
45.869169972, 96.390, 1086.0, 32.9545
45.895430537, 96.390, 1076.0, 32.8024
45.921691103, 96.390, 1164.0, 34.1174
45.947951668, 96.390, 1144.0, 33.8231
45.974212233, 96.390, 1090.0, 33.0151
46.000472799, 96.390, 1090.0, 33.0151
46.026733364, 96.390, 1099.0, 33.1512
46.052993929, 96.390, 1115.0, 33.3916
46.079254495, 96.390, 1136.0, 33.7046
46.105515060, 96.390, 1153.0, 33.9559
46.131775625, 96.390, 1099.0, 33.1512
46.158036191, 96.390, 1061.0, 32.5730
46.184296756, 96.390, 1153.0, 33.9559
46.210557321, 96.390, 1090.0, 33.0151
46.236817887, 96.390, 1054.0, 32.4654
46.263078452, 96.390, 1122.0, 33.4963
46.289339017, 96.390, 1051.0, 32.4191
46.315599583, 96.390, 1073.0, 32.7567
46.341860148, 96.390, 1050.0, 32.4037
46.368120714, 96.390, 1141.0, 33.7787
46.394381279, 96.390, 1104.0, 33.2265
46.420641844, 96.390, 1067.0, 32.6650
46.446902410, 96.390, 1089.0, 33.0000
46.473162975, 96.390, 1068.0, 32.6803
46.499423540, 96.390, 1033.0, 32.1403
46.525684106, 96.390, 1082.0, 32.8938
46.551944671, 96.390, 1059.0, 32.5423
46.578205236, 96.390, 1045.0, 32.3265
46.604465802, 96.390, 1069.0, 32.6956
46.630726367, 96.390, 1107.0, 33.2716
46.656986932, 96.390, 1061.0, 32.5730
46.683247498, 96.390, 1061.0, 32.5730
46.709508063, 96.390, 1106.0, 33.2566
46.735768629, 96.390, 1067.0, 32.6650
46.762029194, 96.390, 1040.0, 32.2490
46.788289759, 96.390, 1078.0, 32.8329
46.814550325, 96.390, 1009.0, 31.7648
46.840810890, 96.390, 1037.0, 32.2025
46.867071455, 96.390, 965.0, 31.0644
46.893332021, 96.390, 977.0, 31.2570
46.919592586, 96.390, 1073.0, 32.7567
46.945853151, 96.390, 1095.0, 33.0908
46.972113717, 96.390, 1012.0, 31.8119
46.998374282, 96.390, 1045.0, 32.3265
47.024634847, 96.390, 1036.0, 32.1870
47.050895413, 96.390, 1053.0, 32.4500
47.077155978, 96.390, 1023.0, 31.9844
47.103416543, 96.390, 1035.0, 32.1714
47.129677109, 96.390, 1012.0, 31.8119
47.155937674, 96.390, 1019.0, 31.9218
47.182198240, 96.390, 1068.0, 32.6803
47.208458805, 96.390, 1057.0, 32.5115
47.234719370, 96.390, 1061.0, 32.5730
47.260979936, 96.390, 1017.0, 31.8904
47.287240501, 96.390, 1040.0, 32.2490
47.313501066, 96.390, 1009.0, 31.7648
47.339761632, 96.390, 987.0, 31.4166
47.366022197, 96.390, 977.0, 31.2570
47.392282762, 96.390, 1011.0, 31.7962
47.418543328, 96.390, 1000.0, 31.6228
47.444803893, 96.390, 1039.0, 32.2335
47.471064458, 96.390, 993.0, 31.5119
47.497325024, 96.390, 1021.0, 31.9531
47.523585589, 96.390, 986.0, 31.4006
47.549846155, 96.390, 1025.0, 32.0156
47.576106720, 96.390, 946.0, 30.7571
47.602367285, 96.390, 990.0, 31.4643
47.628627851, 96.390, 1020.0, 31.9374
47.654888416, 96.390, 1073.0, 32.7567
47.681148981, 96.390, 1060.0, 32.5576
47.707409547, 96.390, 1081.0, 32.8786
47.733670112, 96.390, 1018.0, 31.9061
47.759930677, 96.390, 1051.0, 32.4191
47.786191243, 96.390, 1037.0, 32.2025
47.812451808, 96.390, 1008.0, 31.7490
47.838712373, 96.390, 1005.0, 31.7017
47.864972939, 96.390, 1026.0, 32.0312
47.891233504, 96.390, 923.0, 30.3809
47.917494069, 96.390, 1029.0, 32.0780
47.943754635, 96.390, 999.0, 31.6070
47.970015200, 96.390, 1055.0, 32.4808
47.996275766, 96.390, 1053.0, 32.4500
48.022536331, 96.390, 1044.0, 32.3110
48.048796896, 96.390, 1011.0, 31.7962
48.075057462, 96.390, 1046.0, 32.3419
48.101318027, 96.390, 1018.0, 31.9061
48.127578592, 96.390, 1005.0, 31.7017
48.153839158, 96.390, 1072.0, 32.7414
48.180099723, 96.390, 1050.0, 32.4037
48.206360288, 96.390, 1039.0, 32.2335
48.232620854, 96.390, 978.0, 31.2730
48.258881419, 96.390, 983.0, 31.3528
48.285141984, 96.390, 953.0, 30.8707
48.311402550, 96.390, 951.0, 30.8383
48.337663115, 96.390, 1006.0, 31.7175
48.363923681, 96.390, 1013.0, 31.8277
48.390184246, 96.390, 1016.0, 31.8748
48.416444811, 96.390, 1001.0, 31.6386
48.442705377, 96.390, 980.0, 31.3050
48.468965942, 96.390, 952.0, 30.8545
48.495226507, 96.390, 1024.0, 32.0000
48.521487073, 96.390, 985.0, 31.3847
48.547747638, 96.390, 963.0, 31.0322
48.574008203, 96.390, 956.0, 30.9192
48.600268769, 96.390, 920.0, 30.3315
48.626529334, 96.390, 953.0, 30.8707
48.652789899, 96.390, 977.0, 31.2570
48.679050465, 96.390, 928.0, 30.4631
48.705311030, 96.390, 943.0, 30.7083
48.731571595, 96.390, 927.0, 30.4467
48.757832161, 96.390, 963.0, 31.0322
48.784092726, 96.390, 910.0, 30.1662
48.810353292, 96.390, 934.0, 30.5614
48.836613857, 96.390, 913.0, 30.2159
48.862874422, 96.390, 919.0, 30.3150
48.889134988, 96.390, 912.0, 30.1993
48.915395553, 96.390, 886.0, 29.7658
48.941656118, 96.390, 935.0, 30.5778
48.967916684, 96.390, 921.0, 30.3480
48.994177249, 96.390, 906.0, 30.0998
49.020437814, 96.390, 972.0, 31.1769
49.046698380, 96.390, 950.0, 30.8221
49.072958945, 96.390, 917.0, 30.2820
49.099219510, 96.390, 933.0, 30.5450
49.125480076, 96.390, 916.0, 30.2655
49.151740641, 96.390, 895.0, 29.9166
49.178001207, 96.390, 889.0, 29.8161
49.204261772, 96.390, 934.0, 30.5614
49.230522337, 96.390, 896.0, 29.9333
49.256782903, 96.390, 985.0, 31.3847
49.283043468, 96.390, 933.0, 30.5450
49.309304033, 96.390, 935.0, 30.5778
49.335564599, 96.390, 924.0, 30.3974
49.361825164, 96.390, 942.0, 30.6920
49.388085729, 96.390, 916.0, 30.2655
49.414346295, 96.390, 971.0, 31.1609
49.440606860, 96.390, 914.0, 30.2324
49.466867425, 96.390, 920.0, 30.3315
49.493127991, 96.390, 989.0, 31.4484
49.519388556, 96.390, 896.0, 29.9333
49.545649121, 96.390, 918.0, 30.2985
49.571909687, 96.390, 950.0, 30.8221
49.598170252, 96.390, 922.0, 30.3645
49.624430818, 96.390, 920.0, 30.3315
49.650691383, 96.390, 964.0, 31.0483
49.676951948, 96.390, 918.0, 30.2985
49.703212514, 96.390, 952.0, 30.8545
49.729473079, 96.390, 979.0, 31.2890
49.755733644, 96.390, 974.0, 31.2090
49.781994210, 96.390, 922.0, 30.3645
49.808254775, 96.390, 956.0, 30.9192
49.834515340, 96.390, 900.0, 30.0000
49.860775906, 96.390, 943.0, 30.7083
49.887036471, 96.390, 946.0, 30.7571
49.913297036, 96.390, 906.0, 30.0998
49.939557602, 96.390, 920.0, 30.3315
49.965818167, 96.390, 972.0, 31.1769
49.992078732, 96.390, 930.0, 30.4959
50.018339298, 96.390, 906.0, 30.0998
50.044599863, 96.390, 897.0, 29.9500
50.070860429, 96.390, 884.0, 29.7321
50.097120994, 96.390, 879.0, 29.6479
50.123381559, 96.390, 943.0, 30.7083
50.149642125, 96.390, 921.0, 30.3480
50.175902690, 96.390, 894.0, 29.8998
50.202163255, 96.390, 895.0, 29.9166
50.228423821, 96.390, 922.0, 30.3645
50.254684386, 96.390, 933.0, 30.5450
50.280944951, 96.390, 928.0, 30.4631
50.307205517, 96.390, 876.0, 29.5973
50.333466082, 96.390, 902.0, 30.0333
50.359726647, 96.390, 901.0, 30.0167
50.385987213, 96.390, 883.0, 29.7153
50.412247778, 96.390, 945.0, 30.7409
50.438508344, 96.390, 906.0, 30.0998
50.464768909, 96.390, 900.0, 30.0000
50.491029474, 96.390, 860.0, 29.3258
50.517290040, 96.390, 943.0, 30.7083
50.543550605, 96.390, 909.0, 30.1496
50.569811170, 96.390, 896.0, 29.9333
50.596071736, 96.390, 894.0, 29.8998
50.622332301, 96.390, 859.0, 29.3087
50.648592866, 96.390, 886.0, 29.7658
50.674853432, 96.390, 939.0, 30.6431
50.701113997, 96.390, 890.0, 29.8329
50.727374562, 96.390, 900.0, 30.0000
50.753635128, 96.390, 871.0, 29.5127
50.779895693, 96.390, 838.0, 28.9482
50.806156258, 96.390, 898.0, 29.9666
50.832416824, 96.390, 883.0, 29.7153
50.858677389, 96.390, 878.0, 29.6311
50.884937955, 96.390, 871.0, 29.5127
50.911198520, 96.390, 823.0, 28.6880
50.937459085, 96.390, 883.0, 29.7153
50.963719651, 96.390, 921.0, 30.3480
50.989980216, 96.390, 909.0, 30.1496
51.016240781, 96.390, 944.0, 30.7246
51.042501347, 96.390, 823.0, 28.6880
51.068761912, 96.390, 892.0, 29.8664
51.095022477, 96.390, 871.0, 29.5127
51.121283043, 96.390, 922.0, 30.3645
51.147543608, 96.390, 869.0, 29.4788
51.173804173, 96.390, 896.0, 29.9333
51.200064739, 96.390, 854.0, 29.2233
51.226325304, 96.390, 883.0, 29.7153
51.252585870, 96.390, 850.0, 29.1548
51.278846435, 96.390, 867.0, 29.4449
51.305107000, 96.390, 842.0, 29.0172
51.331367566, 96.390, 875.0, 29.5804
51.357628131, 96.390, 860.0, 29.3258
51.383888696, 96.390, 892.0, 29.8664
51.410149262, 96.390, 828.0, 28.7750
51.436409827, 96.390, 833.0, 28.8617
51.462670392, 96.390, 913.0, 30.2159
51.488930958, 96.390, 884.0, 29.7321
51.515191523, 96.390, 897.0, 29.9500
51.541452088, 96.390, 869.0, 29.4788
51.567712654, 96.390, 855.0, 29.2404
51.593973219, 96.390, 841.0, 29.0000
51.620233784, 96.390, 861.0, 29.3428
51.646494350, 96.390, 836.0, 28.9137
51.672754915, 96.390, 846.0, 29.0861
51.699015481, 96.390, 854.0, 29.2233
51.725276046, 96.390, 867.0, 29.4449
51.751536611, 96.390, 911.0, 30.1828
51.777797177, 96.390, 861.0, 29.3428
51.804057742, 96.390, 849.0, 29.1376
51.830318307, 96.390, 865.0, 29.4109
51.856578873, 96.390, 830.0, 28.8097
51.882839438, 96.390, 850.0, 29.1548
51.909100003, 96.390, 864.0, 29.3939
51.935360569, 96.390, 935.0, 30.5778
51.961621134, 96.390, 882.0, 29.6985
51.987881699, 96.390, 837.0, 28.9310
52.014142265, 96.390, 940.0, 30.6594
52.040402830, 96.390, 908.0, 30.1330
52.066663396, 96.390, 857.0, 29.2746
52.092923961, 96.390, 829.0, 28.7924
52.119184526, 96.390, 899.0, 29.9833
52.145445092, 96.390, 792.0, 28.1425
52.171705657, 96.390, 854.0, 29.2233
52.197966222, 96.390, 847.0, 29.1033
52.224226788, 96.390, 841.0, 29.0000
52.250487353, 96.390, 849.0, 29.1376
52.276747918, 96.390, 873.0, 29.5466
52.303008484, 96.390, 865.0, 29.4109
52.329269049, 96.390, 880.0, 29.6648
52.355529614, 96.390, 879.0, 29.6479
52.381790180, 96.390, 860.0, 29.3258
52.408050745, 96.390, 831.0, 28.8271
52.434311310, 96.390, 916.0, 30.2655
52.460571876, 96.390, 865.0, 29.4109
52.486832441, 96.390, 839.0, 28.9655
52.513093007, 96.390, 892.0, 29.8664
52.539353572, 96.390, 863.0, 29.3769
52.565614137, 96.390, 838.0, 28.9482
52.591874703, 96.390, 779.0, 27.9106
52.618135268, 96.390, 844.0, 29.0517
52.644395833, 96.390, 844.0, 29.0517
52.670656399, 96.390, 889.0, 29.8161
52.696916964, 96.390, 819.0, 28.6182
52.723177529, 96.390, 854.0, 29.2233
52.749438095, 96.390, 821.0, 28.6531
52.775698660, 96.390, 892.0, 29.8664
52.801959225, 96.390, 852.0, 29.1890
52.828219791, 96.390, 845.0, 29.0689
52.854480356, 96.390, 822.0, 28.6705
52.880740922, 96.390, 842.0, 29.0172
52.907001487, 96.390, 824.0, 28.7054
52.933262052, 96.390, 892.0, 29.8664
52.959522618, 96.390, 874.0, 29.5635
52.985783183, 96.390, 893.0, 29.8831
53.012043748, 96.390, 866.0, 29.4279
53.038304314, 96.390, 847.0, 29.1033
53.064564879, 96.390, 814.0, 28.5307
53.090825444, 96.390, 850.0, 29.1548
53.117086010, 96.390, 786.0, 28.0357
53.143346575, 96.390, 904.0, 30.0666
53.169607140, 96.390, 853.0, 29.2062
53.195867706, 96.390, 877.0, 29.6142
53.222128271, 96.390, 881.0, 29.6816
53.248388836, 96.390, 854.0, 29.2233
53.274649402, 96.390, 828.0, 28.7750
53.300909967, 96.390, 866.0, 29.4279
53.327170533, 96.390, 874.0, 29.5635
53.353431098, 96.390, 861.0, 29.3428
53.379691663, 96.390, 815.0, 28.5482
53.405952229, 96.390, 806.0, 28.3901
53.432212794, 96.390, 803.0, 28.3373
53.458473359, 96.390, 861.0, 29.3428
53.484733925, 96.390, 813.0, 28.5132
53.510994490, 96.390, 844.0, 29.0517
53.537255055, 96.390, 831.0, 28.8271
53.563515621, 96.390, 814.0, 28.5307
53.589776186, 96.390, 852.0, 29.1890
53.616036751, 96.390, 866.0, 29.4279
53.642297317, 96.390, 855.0, 29.2404
53.668557882, 96.390, 824.0, 28.7054
53.694818448, 96.390, 830.0, 28.8097
53.721079013, 96.390, 835.0, 28.8964
53.747339578, 96.390, 792.0, 28.1425
53.773600144, 96.390, 856.0, 29.2575
53.799860709, 96.390, 858.0, 29.2916
53.826121274, 96.390, 826.0, 28.7402
53.852381840, 96.390, 895.0, 29.9166
53.878642405, 96.390, 776.0, 27.8568
53.904902970, 96.390, 825.0, 28.7228
53.931163536, 96.390, 736.0, 27.1293
53.957424101, 96.390, 836.0, 28.9137
53.983684666, 96.390, 848.0, 29.1204
54.009945232, 96.390, 866.0, 29.4279
54.036205797, 96.390, 894.0, 29.8998
54.062466362, 96.390, 836.0, 28.9137
54.088726928, 96.390, 849.0, 29.1376
54.114987493, 96.390, 873.0, 29.5466
54.141248059, 96.390, 837.0, 28.9310
54.167508624, 96.390, 848.0, 29.1204
54.193769189, 96.390, 821.0, 28.6531
54.220029755, 96.390, 837.0, 28.9310
54.246290320, 96.390, 836.0, 28.9137
54.272550885, 96.390, 829.0, 28.7924
54.298811451, 96.390, 848.0, 29.1204
54.325072016, 96.390, 878.0, 29.6311
54.351332581, 96.390, 870.0, 29.4958
54.377593147, 96.390, 856.0, 29.2575
54.403853712, 96.390, 867.0, 29.4449
54.430114277, 96.390, 863.0, 29.3769
54.456374843, 96.390, 910.0, 30.1662
54.482635408, 96.390, 853.0, 29.2062
54.508895973, 96.390, 908.0, 30.1330
54.535156539, 96.390, 823.0, 28.6880
54.561417104, 96.390, 935.0, 30.5778
54.587677670, 96.390, 813.0, 28.5132
54.613938235, 96.390, 897.0, 29.9500
54.640198800, 96.390, 836.0, 28.9137
54.666459366, 96.390, 884.0, 29.7321
54.692719931, 96.390, 878.0, 29.6311
54.718980496, 96.390, 833.0, 28.8617
54.745241062, 96.390, 876.0, 29.5973
54.771501627, 96.390, 926.0, 30.4302
54.797762192, 96.390, 894.0, 29.8998
54.824022758, 96.390, 876.0, 29.5973
54.850283323, 96.390, 887.0, 29.7825
54.876543888, 96.390, 846.0, 29.0861
54.902804454, 96.390, 857.0, 29.2746
54.929065019, 96.390, 874.0, 29.5635
54.955325585, 96.390, 878.0, 29.6311
54.981586150, 96.390, 855.0, 29.2404
55.007846715, 96.390, 844.0, 29.0517
55.034107281, 96.390, 926.0, 30.4302
55.060367846, 96.390, 854.0, 29.2233
55.086628411, 96.390, 868.0, 29.4618
55.112888977, 96.390, 898.0, 29.9666
55.139149542, 96.390, 879.0, 29.6479
55.165410107, 96.390, 902.0, 30.0333
55.191670673, 96.390, 864.0, 29.3939
55.217931238, 96.390, 841.0, 29.0000
55.244191803, 96.390, 888.0, 29.7993
55.270452369, 96.390, 878.0, 29.6311
55.296712934, 96.390, 850.0, 29.1548
55.322973499, 96.390, 848.0, 29.1204
55.349234065, 96.390, 898.0, 29.9666
55.375494630, 96.390, 833.0, 28.8617
55.401755196, 96.390, 916.0, 30.2655
55.428015761, 96.390, 839.0, 28.9655
55.454276326, 96.390, 846.0, 29.0861
55.480536892, 96.390, 818.0, 28.6007
55.506797457, 96.390, 848.0, 29.1204
55.533058022, 96.390, 862.0, 29.3598
55.559318588, 96.390, 893.0, 29.8831
55.585579153, 96.390, 899.0, 29.9833
55.611839718, 96.390, 846.0, 29.0861
55.638100284, 96.390, 832.0, 28.8444
55.664360849, 96.390, 851.0, 29.1719
55.690621414, 96.390, 856.0, 29.2575
55.716881980, 96.390, 871.0, 29.5127
55.743142545, 96.390, 810.0, 28.4605
55.769403111, 96.390, 832.0, 28.8444
55.795663676, 96.390, 797.0, 28.2312
55.821924241, 96.390, 842.0, 29.0172
55.848184807, 96.390, 892.0, 29.8664
55.874445372, 96.390, 817.0, 28.5832
55.900705937, 96.390, 842.0, 29.0172
55.926966503, 96.390, 815.0, 28.5482
55.953227068, 96.390, 838.0, 28.9482
55.979487633, 96.390, 867.0, 29.4449
56.005748199, 96.390, 821.0, 28.6531
56.032008764, 96.390, 876.0, 29.5973
56.058269329, 96.390, 829.0, 28.7924
56.084529895, 96.390, 879.0, 29.6479
56.110790460, 96.390, 793.0, 28.1603
56.137051025, 96.390, 817.0, 28.5832
56.163311591, 96.390, 793.0, 28.1603
56.189572156, 96.390, 823.0, 28.6880
56.215832722, 96.390, 803.0, 28.3373
56.242093287, 96.390, 847.0, 29.1033
56.268353852, 96.390, 833.0, 28.8617
56.294614418, 96.390, 804.0, 28.3549
56.320874983, 96.390, 863.0, 29.3769
56.347135548, 96.390, 808.0, 28.4253
56.373396114, 96.390, 855.0, 29.2404
56.399656679, 96.390, 832.0, 28.8444
56.425917244, 96.390, 843.0, 29.0345
56.452177810, 96.390, 847.0, 29.1033
56.478438375, 96.390, 840.0, 28.9828
56.504698940, 96.390, 832.0, 28.8444
56.530959506, 96.390, 862.0, 29.3598
56.557220071, 96.390, 835.0, 28.8964
56.583480637, 96.390, 897.0, 29.9500
56.609741202, 96.390, 818.0, 28.6007
56.636001767, 96.390, 829.0, 28.7924
56.662262333, 96.390, 835.0, 28.8964
56.688522898, 96.390, 814.0, 28.5307
56.714783463, 96.390, 865.0, 29.4109
56.741044029, 96.390, 818.0, 28.6007
56.767304594, 96.390, 819.0, 28.6182
56.793565159, 96.390, 848.0, 29.1204
56.819825725, 96.390, 850.0, 29.1548
56.846086290, 96.390, 878.0, 29.6311
56.872346855, 96.390, 826.0, 28.7402
56.898607421, 96.390, 830.0, 28.8097
56.924867986, 96.390, 840.0, 28.9828
56.951128551, 96.390, 834.0, 28.8791
56.977389117, 96.390, 811.0, 28.4781
57.003649682, 96.390, 877.0, 29.6142
57.029910248, 96.390, 870.0, 29.4958
57.056170813, 96.390, 850.0, 29.1548
57.082431378, 96.390, 858.0, 29.2916
57.108691944, 96.390, 894.0, 29.8998
57.134952509, 96.390, 856.0, 29.2575
57.161213074, 96.390, 855.0, 29.2404
57.187473640, 96.390, 856.0, 29.2575
57.213734205, 96.390, 869.0, 29.4788
57.239994770, 96.390, 890.0, 29.8329
57.266255336, 96.390, 862.0, 29.3598
57.292515901, 96.390, 841.0, 29.0000
57.318776466, 96.390, 791.0, 28.1247
57.345037032, 96.390, 866.0, 29.4279
57.371297597, 96.390, 817.0, 28.5832
57.397558163, 96.390, 864.0, 29.3939
57.423818728, 96.390, 880.0, 29.6648
57.450079293, 96.390, 809.0, 28.4429
57.476339859, 96.390, 800.0, 28.2843
57.502600424, 96.390, 845.0, 29.0689
57.528860989, 96.390, 771.0, 27.7669
57.555121555, 96.390, 856.0, 29.2575
57.581382120, 96.390, 811.0, 28.4781
57.607642685, 96.390, 799.0, 28.2666
57.633903251, 96.390, 789.0, 28.0891
57.660163816, 96.390, 894.0, 29.8998
57.686424381, 96.390, 836.0, 28.9137
57.712684947, 96.390, 824.0, 28.7054
57.738945512, 96.390, 860.0, 29.3258
57.765206077, 96.390, 860.0, 29.3258
57.791466643, 96.390, 824.0, 28.7054
57.817727208, 96.390, 810.0, 28.4605
57.843987774, 96.390, 853.0, 29.2062
57.870248339, 96.390, 825.0, 28.7228
57.896508904, 96.390, 788.0, 28.0713
57.922769470, 96.390, 794.0, 28.1780
57.949030035, 96.390, 863.0, 29.3769
57.975290600, 96.390, 776.0, 27.8568
58.001551166, 96.390, 828.0, 28.7750
58.027811731, 96.390, 849.0, 29.1376
58.054072296, 96.390, 804.0, 28.3549
58.080332862, 96.390, 846.0, 29.0861
58.106593427, 96.390, 797.0, 28.2312
58.132853992, 96.390, 817.0, 28.5832
58.159114558, 96.390, 828.0, 28.7750
58.185375123, 96.390, 841.0, 29.0000
58.211635689, 96.390, 767.0, 27.6948
58.237896254, 96.390, 820.0, 28.6356
58.264156819, 96.390, 793.0, 28.1603
58.290417385, 96.390, 847.0, 29.1033
58.316677950, 96.390, 782.0, 27.9643
58.342938515, 96.390, 772.0, 27.7849
58.369199081, 96.390, 784.0, 28.0000
58.395459646, 96.390, 836.0, 28.9137
58.421720211, 96.390, 829.0, 28.7924
58.447980777, 96.390, 827.0, 28.7576
58.474241342, 96.390, 852.0, 29.1890
58.500501907, 96.390, 820.0, 28.6356
58.526762473, 96.390, 813.0, 28.5132
58.553023038, 96.390, 822.0, 28.6705
58.579283603, 96.390, 767.0, 27.6948
58.605544169, 96.390, 839.0, 28.9655
58.631804734, 96.390, 785.0, 28.0179
58.658065300, 96.390, 810.0, 28.4605
58.684325865, 96.390, 749.0, 27.3679
58.710586430, 96.390, 813.0, 28.5132
58.736846996, 96.390, 819.0, 28.6182
58.763107561, 96.390, 791.0, 28.1247
58.789368126, 96.390, 830.0, 28.8097
58.815628692, 96.390, 835.0, 28.8964
58.841889257, 96.390, 807.0, 28.4077
58.868149822, 96.390, 824.0, 28.7054
58.894410388, 96.390, 801.0, 28.3019
58.920670953, 96.390, 819.0, 28.6182
58.946931518, 96.390, 835.0, 28.8964
58.973192084, 96.390, 874.0, 29.5635
58.999452649, 96.390, 812.0, 28.4956
59.025713214, 96.390, 854.0, 29.2233
59.051973780, 96.390, 865.0, 29.4109
59.078234345, 96.390, 855.0, 29.2404
59.104494911, 96.390, 791.0, 28.1247
59.130755476, 96.390, 841.0, 29.0000
59.157016041, 96.390, 797.0, 28.2312
59.183276607, 96.390, 844.0, 29.0517
59.209537172, 96.390, 793.0, 28.1603
59.235797737, 96.390, 795.0, 28.1957
59.262058303, 96.390, 825.0, 28.7228
59.288318868, 96.390, 742.0, 27.2397
59.314579433, 96.390, 843.0, 29.0345
59.340839999, 96.390, 854.0, 29.2233
59.367100564, 96.390, 864.0, 29.3939
59.393361129, 96.390, 797.0, 28.2312
59.419621695, 96.390, 826.0, 28.7402
59.445882260, 96.390, 838.0, 28.9482
59.472142826, 96.390, 764.0, 27.6405
59.498403391, 96.390, 876.0, 29.5973
59.524663956, 96.390, 776.0, 27.8568
59.550924522, 96.390, 806.0, 28.3901
59.577185087, 96.390, 865.0, 29.4109
59.603445652, 96.390, 837.0, 28.9310
59.629706218, 96.390, 809.0, 28.4429
59.655966783, 96.390, 820.0, 28.6356
59.682227348, 96.390, 854.0, 29.2233
59.708487914, 96.390, 861.0, 29.3428
59.734748479, 96.390, 827.0, 28.7576
59.761009044, 96.390, 830.0, 28.8097
59.787269610, 96.390, 788.0, 28.0713
59.813530175, 96.390, 864.0, 29.3939
59.839790740, 96.390, 812.0, 28.4956
59.866051306, 96.390, 857.0, 29.2746
59.892311871, 96.390, 842.0, 29.0172
59.918572437, 96.390, 873.0, 29.5466
59.944833002, 96.390, 854.0, 29.2233
59.971093567, 96.390, 840.0, 28.9828
59.997354133, 96.390, 885.0, 29.7489
60.023614698, 96.390, 825.0, 28.7228
60.049875263, 96.390, 877.0, 29.6142
60.076135829, 96.390, 793.0, 28.1603
60.102396394, 96.390, 885.0, 29.7489
60.128656959, 96.390, 808.0, 28.4253
60.154917525, 96.390, 882.0, 29.6985
60.181178090, 96.390, 860.0, 29.3258
60.207438655, 96.390, 846.0, 29.0861
60.233699221, 96.390, 842.0, 29.0172
60.259959786, 96.390, 862.0, 29.3598
60.286220352, 96.390, 881.0, 29.6816
60.312480917, 96.390, 850.0, 29.1548
60.338741482, 96.390, 835.0, 28.8964
60.365002048, 96.390, 870.0, 29.4958
60.391262613, 96.390, 800.0, 28.2843
60.417523178, 96.390, 916.0, 30.2655
60.443783744, 96.390, 803.0, 28.3373
60.470044309, 96.390, 813.0, 28.5132
60.496304874, 96.390, 890.0, 29.8329
60.522565440, 96.390, 857.0, 29.2746
60.548826005, 96.390, 839.0, 28.9655
60.575086570, 96.390, 903.0, 30.0500
60.601347136, 96.390, 860.0, 29.3258
60.627607701, 96.390, 891.0, 29.8496
60.653868266, 96.390, 961.0, 31.0000
60.680128832, 96.390, 923.0, 30.3809
60.706389397, 96.390, 973.0, 31.1929
60.732649963, 96.390, 933.0, 30.5450
60.758910528, 96.390, 866.0, 29.4279
60.785171093, 96.390, 914.0, 30.2324
60.811431659, 96.390, 903.0, 30.0500
60.837692224, 96.390, 951.0, 30.8383
60.863952789, 96.390, 889.0, 29.8161
60.890213355, 96.390, 918.0, 30.2985
60.916473920, 96.390, 900.0, 30.0000
60.942734485, 96.390, 913.0, 30.2159
60.968995051, 96.390, 908.0, 30.1330
60.995255616, 96.390, 925.0, 30.4138
61.021516181, 96.390, 911.0, 30.1828
61.047776747, 96.390, 916.0, 30.2655
61.074037312, 96.390, 901.0, 30.0167
61.100297878, 96.390, 930.0, 30.4959
61.126558443, 96.390, 897.0, 29.9500
61.152819008, 96.390, 930.0, 30.4959
61.179079574, 96.390, 893.0, 29.8831
61.205340139, 96.390, 932.0, 30.5287
61.231600704, 96.390, 947.0, 30.7734
61.257861270, 96.390, 903.0, 30.0500
61.284121835, 96.390, 945.0, 30.7409
61.310382400, 96.390, 892.0, 29.8664
61.336642966, 96.390, 938.0, 30.6268
61.362903531, 96.390, 847.0, 29.1033
61.389164096, 96.390, 963.0, 31.0322
61.415424662, 96.390, 926.0, 30.4302
61.441685227, 96.390, 922.0, 30.3645
61.467945792, 96.390, 912.0, 30.1993
61.494206358, 96.390, 891.0, 29.8496
61.520466923, 96.390, 885.0, 29.7489
61.546727489, 96.390, 854.0, 29.2233
61.572988054, 96.390, 851.0, 29.1719
61.599248619, 96.390, 872.0, 29.5296
61.625509185, 96.390, 904.0, 30.0666
61.651769750, 96.390, 881.0, 29.6816
61.678030315, 96.390, 883.0, 29.7153
61.704290881, 96.390, 920.0, 30.3315
61.730551446, 96.390, 877.0, 29.6142
61.756812011, 96.390, 869.0, 29.4788
61.783072577, 96.390, 869.0, 29.4788
61.809333142, 96.390, 767.0, 27.6948
61.835593707, 96.390, 880.0, 29.6648
61.861854273, 96.390, 822.0, 28.6705
61.888114838, 96.390, 842.0, 29.0172
61.914375404, 96.390, 840.0, 28.9828
61.940635969, 96.390, 804.0, 28.3549
61.966896534, 96.390, 830.0, 28.8097
61.993157100, 96.390, 855.0, 29.2404
62.019417665, 96.390, 841.0, 29.0000
62.045678230, 96.390, 856.0, 29.2575
62.071938796, 96.390, 853.0, 29.2062
62.098199361, 96.390, 832.0, 28.8444
62.124459926, 96.390, 842.0, 29.0172
62.150720492, 96.390, 855.0, 29.2404
62.176981057, 96.390, 784.0, 28.0000
62.203241622, 96.390, 823.0, 28.6880
62.229502188, 96.390, 840.0, 28.9828
62.255762753, 96.390, 836.0, 28.9137
62.282023318, 96.390, 796.0, 28.2135
62.308283884, 96.390, 858.0, 29.2916
62.334544449, 96.390, 824.0, 28.7054
62.360805015, 96.390, 774.0, 27.8209
62.387065580, 96.390, 840.0, 28.9828
62.413326145, 96.390, 803.0, 28.3373
62.439586711, 96.390, 816.0, 28.5657
62.465847276, 96.390, 776.0, 27.8568
62.492107841, 96.390, 807.0, 28.4077
62.518368407, 96.390, 785.0, 28.0179
62.544628972, 96.390, 792.0, 28.1425
62.570889537, 96.390, 777.0, 27.8747
62.597150103, 96.390, 792.0, 28.1425
62.623410668, 96.390, 816.0, 28.5657
62.649671233, 96.390, 816.0, 28.5657
62.675931799, 96.390, 822.0, 28.6705
62.702192364, 96.390, 850.0, 29.1548
62.728452930, 96.390, 772.0, 27.7849
62.754713495, 96.390, 842.0, 29.0172
62.780974060, 96.390, 839.0, 28.9655
62.807234626, 96.390, 822.0, 28.6705
62.833495191, 96.390, 818.0, 28.6007
62.859755756, 96.390, 810.0, 28.4605
62.886016322, 96.390, 804.0, 28.3549
62.912276887, 96.390, 802.0, 28.3196
62.938537452, 96.390, 803.0, 28.3373
62.964798018, 96.390, 814.0, 28.5307
62.991058583, 96.390, 769.0, 27.7308
63.017319148, 96.390, 757.0, 27.5136
63.043579714, 96.390, 808.0, 28.4253
63.069840279, 96.390, 828.0, 28.7750
63.096100844, 96.390, 775.0, 27.8388
63.122361410, 96.390, 793.0, 28.1603
63.148621975, 96.390, 834.0, 28.8791
63.174882541, 96.390, 824.0, 28.7054
63.201143106, 96.390, 836.0, 28.9137
63.227403671, 96.390, 818.0, 28.6007
63.253664237, 96.390, 785.0, 28.0179
63.279924802, 96.390, 734.0, 27.0924
63.306185367, 96.390, 788.0, 28.0713
63.332445933, 96.390, 829.0, 28.7924
63.358706498, 96.390, 790.0, 28.1069
63.384967063, 96.390, 778.0, 27.8927
63.411227629, 96.390, 848.0, 29.1204
63.437488194, 96.390, 826.0, 28.7402
63.463748759, 96.390, 832.0, 28.8444
63.490009325, 96.390, 811.0, 28.4781
63.516269890, 96.390, 821.0, 28.6531
63.542530455, 96.390, 794.0, 28.1780
63.568791021, 96.390, 772.0, 27.7849
63.595051586, 96.390, 792.0, 28.1425
63.621312152, 96.390, 839.0, 28.9655
63.647572717, 96.390, 822.0, 28.6705
63.673833282, 96.390, 811.0, 28.4781
63.700093848, 96.390, 858.0, 29.2916
63.726354413, 96.390, 720.0, 26.8328
63.752614978, 96.390, 763.0, 27.6225
63.778875544, 96.390, 803.0, 28.3373
63.805136109, 96.390, 771.0, 27.7669
63.831396674, 96.390, 787.0, 28.0535
63.857657240, 96.390, 774.0, 27.8209
63.883917805, 96.390, 803.0, 28.3373
63.910178370, 96.390, 802.0, 28.3196
63.936438936, 96.390, 805.0, 28.3725
63.962699501, 96.390, 785.0, 28.0179
63.988960067, 96.390, 764.0, 27.6405
64.015220632, 96.390, 851.0, 29.1719
64.041481197, 96.390, 755.0, 27.4773
64.067741763, 96.390, 810.0, 28.4605
64.094002328, 96.390, 773.0, 27.8029
64.120262893, 96.390, 751.0, 27.4044
64.146523459, 96.390, 782.0, 27.9643
64.172784024, 96.390, 752.0, 27.4226
64.199044589, 96.390, 763.0, 27.6225
64.225305155, 96.390, 753.0, 27.4408
64.251565720, 96.390, 748.0, 27.3496
64.277826285, 96.390, 783.0, 27.9821
64.304086851, 96.390, 798.0, 28.2489
64.330347416, 96.390, 757.0, 27.5136
64.356607981, 96.390, 756.0, 27.4955
64.382868547, 96.390, 779.0, 27.9106
64.409129112, 96.390, 757.0, 27.5136
64.435389678, 96.390, 734.0, 27.0924
64.461650243, 96.390, 760.0, 27.5681
64.487910808, 96.390, 829.0, 28.7924
64.514171374, 96.390, 719.0, 26.8142
64.540431939, 96.390, 735.0, 27.1109
64.566692504, 96.390, 772.0, 27.7849
64.592953070, 96.390, 764.0, 27.6405
64.619213635, 96.390, 787.0, 28.0535
64.645474200, 96.390, 728.0, 26.9815
64.671734766, 96.390, 732.0, 27.0555
64.697995331, 96.390, 775.0, 27.8388
64.724255896, 96.390, 714.0, 26.7208
64.750516462, 96.390, 730.0, 27.0185
64.776777027, 96.390, 723.0, 26.8887
64.803037593, 96.390, 735.0, 27.1109
64.829298158, 96.390, 708.0, 26.6083
64.855558723, 96.390, 712.0, 26.6833
64.881819289, 96.390, 730.0, 27.0185
64.908079854, 96.390, 704.0, 26.5330
64.934340419, 96.390, 756.0, 27.4955
64.960600985, 96.390, 755.0, 27.4773
64.986861550, 96.390, 733.0, 27.0740
