[Measurement conditions]
Sample identification,29_AlAxial01Nov21_Act07Jan22_B2_1000M_NaOH_LS0132_SolventExchange
Comment - 1,"Configuration=Stage for Flat Samples/Holders, Owner=User-1, Creation date=7/1/2020 9:53:24 AM"
Comment - 2,"Goniometer=Theta/Theta; Minimum step size 2Theta:0.0001; Minimum step size Omega:0.0001"
Comment - 3,"Sample stage=Stage for flat samples/holders"
Comment - 4,"Diffractometer system=EMPYREAN"
Comment - 5,"Measurement program=C:\Users\tmr79\OneDrive - The Pennsylvania State University\Documents\NEUP\XRD\Cement\Zerobackground scan.xrdmp, Identifier={98A3B11C-88F9-4AA6-982C-73314A311EF5}"
Anode material,Cu
K-Alpha1 wavelength,1.5405980
K-Alpha2 wavelength,1.5444260
Ratio K-Alpha2/K-Alpha1,0.500
Divergence slit,Fixed,0.25
Monochromator used,NO
Generator voltage, 45
Tube current, 40
File date and time,25/Apr/2023 16:03
Unit cell,
h k l, 0 0 0
Scan axis,Gonio
Scan range,4.994599997,64.999991833
Scan step size,0.0262606
No. of points, 2285
Scan type,CONTINUOUS
Time per step,96.390
[Scan points]
Angle, TimePerStep, Intensity, ESD
5.007730280, 96.390, 3091.0, 55.5968
5.033990845, 96.390, 3063.0, 55.3444
5.060251411, 96.390, 3153.0, 56.1516
5.086511976, 96.390, 3114.0, 55.8032
5.112772541, 96.390, 3031.0, 55.0545
5.139033107, 96.390, 2970.0, 54.4977
5.165293672, 96.390, 2933.0, 54.1572
5.191554237, 96.390, 3039.0, 55.1271
5.217814803, 96.390, 2908.0, 53.9259
5.244075368, 96.390, 2939.0, 54.2125
5.270335934, 96.390, 2964.0, 54.4426
5.296596499, 96.390, 2883.0, 53.6936
5.322857064, 96.390, 2925.0, 54.0833
5.349117630, 96.390, 2815.0, 53.0566
5.375378195, 96.390, 2895.0, 53.8052
5.401638760, 96.390, 2890.0, 53.7587
5.427899326, 96.390, 2938.0, 54.2033
5.454159891, 96.390, 2930.0, 54.1295
5.480420456, 96.390, 2799.0, 52.9056
5.506681022, 96.390, 2836.0, 53.2541
5.532941587, 96.390, 3017.0, 54.9272
5.559202152, 96.390, 2798.0, 52.8961
5.585462718, 96.390, 2814.0, 53.0471
5.611723283, 96.390, 2857.0, 53.4509
5.637983849, 96.390, 2875.0, 53.6190
5.664244414, 96.390, 2889.0, 53.7494
5.690504979, 96.390, 2827.0, 53.1695
5.716765545, 96.390, 2838.0, 53.2729
5.743026110, 96.390, 2868.0, 53.5537
5.769286675, 96.390, 2861.0, 53.4883
5.795547241, 96.390, 2891.0, 53.7680
5.821807806, 96.390, 2898.0, 53.8331
5.848068371, 96.390, 2787.0, 52.7920
5.874328937, 96.390, 2820.0, 53.1037
5.900589502, 96.390, 2902.0, 53.8702
5.926850067, 96.390, 2864.0, 53.5164
5.953110633, 96.390, 2896.0, 53.8145
5.979371198, 96.390, 2968.0, 54.4794
6.005631763, 96.390, 2960.0, 54.4059
6.031892329, 96.390, 3023.0, 54.9818
6.058152894, 96.390, 2979.0, 54.5802
6.084413460, 96.390, 3101.0, 55.6866
6.110674025, 96.390, 3052.0, 55.2449
6.136934590, 96.390, 2984.0, 54.6260
6.163195156, 96.390, 2839.0, 53.2823
6.189455721, 96.390, 2876.0, 53.6284
6.215716286, 96.390, 2850.0, 53.3854
6.241976852, 96.390, 2660.0, 51.5752
6.268237417, 96.390, 2715.0, 52.1057
6.294497982, 96.390, 2697.0, 51.9326
6.320758548, 96.390, 2608.0, 51.0686
6.347019113, 96.390, 2638.0, 51.3615
6.373279678, 96.390, 2607.0, 51.0588
6.399540244, 96.390, 2646.0, 51.4393
6.425800809, 96.390, 2716.0, 52.1153
6.452061375, 96.390, 2649.0, 51.4684
6.478321940, 96.390, 2799.0, 52.9056
6.504582505, 96.390, 2683.0, 51.7977
6.530843071, 96.390, 2662.0, 51.5946
6.557103636, 96.390, 2657.0, 51.5461
6.583364201, 96.390, 2684.0, 51.8073
6.609624767, 96.390, 2678.0, 51.7494
6.635885332, 96.390, 2629.0, 51.2738
6.662145897, 96.390, 2670.0, 51.6720
6.688406463, 96.390, 2653.0, 51.5073
6.714667028, 96.390, 2784.0, 52.7636
6.740927593, 96.390, 2684.0, 51.8073
6.767188159, 96.390, 2802.0, 52.9339
6.793448724, 96.390, 2681.0, 51.7784
6.819709289, 96.390, 2694.0, 51.9038
6.845969855, 96.390, 2753.0, 52.4690
6.872230420, 96.390, 2741.0, 52.3546
6.898490986, 96.390, 2938.0, 54.2033
6.924751551, 96.390, 2851.0, 53.3948
6.951012116, 96.390, 2996.0, 54.7357
6.977272682, 96.390, 3119.0, 55.8480
7.003533247, 96.390, 3131.0, 55.9553
7.029793812, 96.390, 3193.0, 56.5066
7.056054378, 96.390, 3389.0, 58.2151
7.082314943, 96.390, 3635.0, 60.2910
7.108575508, 96.390, 3912.0, 62.5460
7.134836074, 96.390, 4275.0, 65.3835
7.161096639, 96.390, 4735.0, 68.8113
7.187357204, 96.390, 5287.0, 72.7118
7.213617770, 96.390, 4982.0, 70.5833
7.239878335, 96.390, 3793.0, 61.5873
7.266138900, 96.390, 3039.0, 55.1271
7.292399466, 96.390, 2750.0, 52.4404
7.318660031, 96.390, 2741.0, 52.3546
7.344920597, 96.390, 2601.0, 51.0000
7.371181162, 96.390, 2541.0, 50.4083
7.397441727, 96.390, 2629.0, 51.2738
7.423702293, 96.390, 2500.0, 50.0000
7.449962858, 96.390, 2530.0, 50.2991
7.476223423, 96.390, 2605.0, 51.0392
7.502483989, 96.390, 2561.0, 50.6063
7.528744554, 96.390, 2466.0, 49.6588
7.555005119, 96.390, 2426.0, 49.2544
7.581265685, 96.390, 2586.0, 50.8527
7.607526250, 96.390, 2466.0, 49.6588
7.633786815, 96.390, 2489.0, 49.8899
7.660047381, 96.390, 2579.0, 50.7839
7.686307946, 96.390, 2535.0, 50.3488
7.712568512, 96.390, 2459.0, 49.5883
7.738829077, 96.390, 2591.0, 50.9019
7.765089642, 96.390, 2627.0, 51.2543
7.791350208, 96.390, 2423.0, 49.2240
7.817610773, 96.390, 2452.0, 49.5177
7.843871338, 96.390, 2581.0, 50.8035
7.870131904, 96.390, 2464.0, 49.6387
7.896392469, 96.390, 2516.0, 50.1597
7.922653034, 96.390, 2506.0, 50.0600
7.948913600, 96.390, 2481.0, 49.8096
7.975174165, 96.390, 2544.0, 50.4381
8.001434730, 96.390, 2567.0, 50.6656
8.027695296, 96.390, 2541.0, 50.4083
8.053955861, 96.390, 2633.0, 51.3128
8.080216426, 96.390, 2693.0, 51.8941
8.106476992, 96.390, 2831.0, 53.2071
8.132737557, 96.390, 2835.0, 53.2447
8.158998123, 96.390, 2828.0, 53.1789
8.185258688, 96.390, 2747.0, 52.4118
8.211519253, 96.390, 2588.0, 50.8724
8.237779819, 96.390, 2414.0, 49.1325
8.264040384, 96.390, 2393.0, 48.9183
8.290300949, 96.390, 2507.0, 50.0700
8.316561515, 96.390, 2498.0, 49.9800
8.342822080, 96.390, 2510.0, 50.0999
8.369082645, 96.390, 2503.0, 50.0300
8.395343211, 96.390, 2547.0, 50.4678
8.421603776, 96.390, 2558.0, 50.5767
8.447864341, 96.390, 2486.0, 49.8598
8.474124907, 96.390, 2465.0, 49.6488
8.500385472, 96.390, 2500.0, 50.0000
8.526646038, 96.390, 2510.0, 50.0999
8.552906603, 96.390, 2452.0, 49.5177
8.579167168, 96.390, 2546.0, 50.4579
8.605427734, 96.390, 2494.0, 49.9400
8.631688299, 96.390, 2546.0, 50.4579
8.657948864, 96.390, 2457.0, 49.5681
8.684209430, 96.390, 2498.0, 49.9800
8.710469995, 96.390, 2522.0, 50.2195
8.736730560, 96.390, 2542.0, 50.4183
8.762991126, 96.390, 2524.0, 50.2394
8.789251691, 96.390, 2459.0, 49.5883
8.815512256, 96.390, 2484.0, 49.8397
8.841772822, 96.390, 2497.0, 49.9700
8.868033387, 96.390, 2486.0, 49.8598
8.894293952, 96.390, 2544.0, 50.4381
8.920554518, 96.390, 2549.0, 50.4876
8.946815083, 96.390, 2547.0, 50.4678
8.973075649, 96.390, 2494.0, 49.9400
8.999336214, 96.390, 2544.0, 50.4381
9.025596779, 96.390, 2587.0, 50.8626
9.051857345, 96.390, 2592.0, 50.9117
9.078117910, 96.390, 2509.0, 50.0899
9.104378475, 96.390, 2568.0, 50.6754
9.130639041, 96.390, 2509.0, 50.0899
9.156899606, 96.390, 2632.0, 51.3030
9.183160171, 96.390, 2644.0, 51.4198
9.209420737, 96.390, 2529.0, 50.2892
9.235681302, 96.390, 2668.0, 51.6527
9.261941867, 96.390, 2614.0, 51.1273
9.288202433, 96.390, 2672.0, 51.6914
9.314462998, 96.390, 2731.0, 52.2590
9.340723564, 96.390, 2591.0, 50.9019
9.366984129, 96.390, 2686.0, 51.8266
9.393244694, 96.390, 2710.0, 52.0577
9.419505260, 96.390, 2693.0, 51.8941
9.445765825, 96.390, 2741.0, 52.3546
9.472026390, 96.390, 2612.0, 51.1077
9.498286956, 96.390, 2612.0, 51.1077
9.524547521, 96.390, 2729.0, 52.2398
9.550808086, 96.390, 2641.0, 51.3907
9.577068652, 96.390, 2703.0, 51.9904
9.603329217, 96.390, 2659.0, 51.5655
9.629589782, 96.390, 2771.0, 52.6403
9.655850348, 96.390, 2826.0, 53.1601
9.682110913, 96.390, 2725.0, 52.2015
9.708371478, 96.390, 2830.0, 53.1977
9.734632044, 96.390, 2723.0, 52.1824
9.760892609, 96.390, 2770.0, 52.6308
9.787153175, 96.390, 2784.0, 52.7636
9.813413740, 96.390, 2682.0, 51.7880
9.839674305, 96.390, 2823.0, 53.1319
9.865934871, 96.390, 2887.0, 53.7308
9.892195436, 96.390, 2988.0, 54.6626
9.918456001, 96.390, 3013.0, 54.8908
9.944716567, 96.390, 3026.0, 55.0091
9.970977132, 96.390, 3144.0, 56.0714
9.997237697, 96.390, 3052.0, 55.2449
10.023498263, 96.390, 3161.0, 56.2228
10.049758828, 96.390, 3336.0, 57.7581
10.076019393, 96.390, 3397.0, 58.2838
10.102279959, 96.390, 3638.0, 60.3158
10.128540524, 96.390, 4032.0, 63.4980
10.154801090, 96.390, 4331.0, 65.8103
10.181061655, 96.390, 4632.0, 68.0588
10.207322220, 96.390, 4052.0, 63.6553
10.233582786, 96.390, 3392.0, 58.2409
10.259843351, 96.390, 3049.0, 55.2178
10.286103916, 96.390, 2943.0, 54.2494
10.312364482, 96.390, 2950.0, 54.3139
10.338625047, 96.390, 2891.0, 53.7680
10.364885612, 96.390, 2808.0, 52.9906
10.391146178, 96.390, 2841.0, 53.3010
10.417406743, 96.390, 2791.0, 52.8299
10.443667308, 96.390, 2903.0, 53.8795
10.469927874, 96.390, 2792.0, 52.8394
10.496188439, 96.390, 2727.0, 52.2207
10.522449004, 96.390, 2768.0, 52.6118
10.548709570, 96.390, 2828.0, 53.1789
10.574970135, 96.390, 2801.0, 52.9245
10.601230701, 96.390, 2835.0, 53.2447
10.627491266, 96.390, 2712.0, 52.0769
10.653751831, 96.390, 2754.0, 52.4786
10.680012397, 96.390, 2766.0, 52.5928
10.706272962, 96.390, 2831.0, 53.2071
10.732533527, 96.390, 2837.0, 53.2635
10.758794093, 96.390, 2789.0, 52.8110
10.785054658, 96.390, 2778.0, 52.7067
10.811315223, 96.390, 2782.0, 52.7447
10.837575789, 96.390, 2843.0, 53.3198
10.863836354, 96.390, 2709.0, 52.0481
10.890096919, 96.390, 2764.0, 52.5738
10.916357485, 96.390, 2721.0, 52.1632
10.942618050, 96.390, 2768.0, 52.6118
10.968878616, 96.390, 2778.0, 52.7067
10.995139181, 96.390, 2738.0, 52.3259
11.021399746, 96.390, 2805.0, 52.9623
11.047660312, 96.390, 2742.0, 52.3641
11.073920877, 96.390, 2907.0, 53.9166
11.100181442, 96.390, 2760.0, 52.5357
11.126442008, 96.390, 2641.0, 51.3907
11.152702573, 96.390, 2732.0, 52.2685
11.178963138, 96.390, 2646.0, 51.4393
11.205223704, 96.390, 2720.0, 52.1536
11.231484269, 96.390, 2743.0, 52.3737
11.257744834, 96.390, 2839.0, 53.2823
11.284005400, 96.390, 2716.0, 52.1153
11.310265965, 96.390, 2698.0, 51.9423
11.336526530, 96.390, 2670.0, 51.6720
11.362787096, 96.390, 2649.0, 51.4684
11.389047661, 96.390, 2688.0, 51.8459
11.415308227, 96.390, 2673.0, 51.7011
11.441568792, 96.390, 2602.0, 51.0098
11.467829357, 96.390, 2587.0, 50.8626
11.494089923, 96.390, 2678.0, 51.7494
11.520350488, 96.390, 2722.0, 52.1728
11.546611053, 96.390, 2720.0, 52.1536
11.572871619, 96.390, 2654.0, 51.5170
11.599132184, 96.390, 2685.0, 51.8170
11.625392749, 96.390, 2708.0, 52.0384
11.651653315, 96.390, 2644.0, 51.4198
11.677913880, 96.390, 2656.0, 51.5364
11.704174445, 96.390, 2702.0, 51.9808
11.730435011, 96.390, 2649.0, 51.4684
11.756695576, 96.390, 2614.0, 51.1273
11.782956141, 96.390, 2599.0, 50.9804
11.809216707, 96.390, 2535.0, 50.3488
11.835477272, 96.390, 2584.0, 50.8331
11.861737838, 96.390, 2611.0, 51.0979
11.887998403, 96.390, 2503.0, 50.0300
11.914258968, 96.390, 2501.0, 50.0100
11.940519534, 96.390, 2581.0, 50.8035
11.966780099, 96.390, 2473.0, 49.7293
11.993040664, 96.390, 2515.0, 50.1498
12.019301230, 96.390, 2379.0, 48.7750
12.045561795, 96.390, 2437.0, 49.3660
12.071822360, 96.390, 2456.0, 49.5580
12.098082926, 96.390, 2502.0, 50.0200
12.124343491, 96.390, 2511.0, 50.1099
12.150604056, 96.390, 2495.0, 49.9500
12.176864622, 96.390, 2540.0, 50.3984
12.203125187, 96.390, 2449.0, 49.4874
12.229385753, 96.390, 2489.0, 49.8899
12.255646318, 96.390, 2498.0, 49.9800
12.281906883, 96.390, 2551.0, 50.5074
12.308167449, 96.390, 2638.0, 51.3615
12.334428014, 96.390, 2548.0, 50.4777
12.360688579, 96.390, 2639.0, 51.3712
12.386949145, 96.390, 2767.0, 52.6023
12.413209710, 96.390, 2947.0, 54.2863
12.439470275, 96.390, 3274.0, 57.2189
12.465730841, 96.390, 3332.0, 57.7235
12.491991406, 96.390, 3395.0, 58.2666
12.518251971, 96.390, 2988.0, 54.6626
12.544512537, 96.390, 2748.0, 52.4214
12.570773102, 96.390, 2444.0, 49.4368
12.597033667, 96.390, 2433.0, 49.3254
12.623294233, 96.390, 2295.0, 47.9062
12.649554798, 96.390, 2293.0, 47.8853
12.675815364, 96.390, 2133.0, 46.1844
12.702075929, 96.390, 2267.0, 47.6130
12.728336494, 96.390, 2299.0, 47.9479
12.754597060, 96.390, 2202.0, 46.9255
12.780857625, 96.390, 2159.0, 46.4650
12.807118190, 96.390, 2267.0, 47.6130
12.833378756, 96.390, 2100.0, 45.8258
12.859639321, 96.390, 2186.0, 46.7547
12.885899886, 96.390, 2228.0, 47.2017
12.912160452, 96.390, 2173.0, 46.6154
12.938421017, 96.390, 2188.0, 46.7761
12.964681582, 96.390, 2174.0, 46.6262
12.990942148, 96.390, 2075.0, 45.5522
13.017202713, 96.390, 2163.0, 46.5081
13.043463279, 96.390, 2125.0, 46.0977
13.069723844, 96.390, 2053.0, 45.3100
13.095984409, 96.390, 2165.0, 46.5296
13.122244975, 96.390, 2052.0, 45.2990
13.148505540, 96.390, 2100.0, 45.8258
13.174766105, 96.390, 2079.0, 45.5961
13.201026671, 96.390, 2098.0, 45.8039
13.227287236, 96.390, 2010.0, 44.8330
13.253547801, 96.390, 2078.0, 45.5851
13.279808367, 96.390, 2032.0, 45.0777
13.306068932, 96.390, 2027.0, 45.0222
13.332329497, 96.390, 1963.0, 44.3058
13.358590063, 96.390, 2070.0, 45.4973
13.384850628, 96.390, 2031.0, 45.0666
13.411111193, 96.390, 2062.0, 45.4093
13.437371759, 96.390, 2063.0, 45.4203
13.463632324, 96.390, 2040.0, 45.1664
13.489892890, 96.390, 2005.0, 44.7772
13.516153455, 96.390, 1957.0, 44.2380
13.542414020, 96.390, 2006.0, 44.7884
13.568674586, 96.390, 1965.0, 44.3283
13.594935151, 96.390, 1909.0, 43.6921
13.621195716, 96.390, 1942.0, 44.0681
13.647456282, 96.390, 2012.0, 44.8553
13.673716847, 96.390, 1847.0, 42.9767
13.699977412, 96.390, 1902.0, 43.6119
13.726237978, 96.390, 2046.0, 45.2327
13.752498543, 96.390, 1993.0, 44.6430
13.778759108, 96.390, 1859.0, 43.1161
13.805019674, 96.390, 1914.0, 43.7493
13.831280239, 96.390, 1915.0, 43.7607
13.857540805, 96.390, 1924.0, 43.8634
13.883801370, 96.390, 2019.0, 44.9333
13.910061935, 96.390, 1857.0, 43.0929
13.936322501, 96.390, 1904.0, 43.6348
13.962583066, 96.390, 1927.0, 43.8976
13.988843631, 96.390, 1895.0, 43.5316
14.015104197, 96.390, 1809.0, 42.5323
14.041364762, 96.390, 1902.0, 43.6119
14.067625327, 96.390, 1843.0, 42.9302
14.093885893, 96.390, 1969.0, 44.3734
14.120146458, 96.390, 1865.0, 43.1856
14.146407023, 96.390, 1867.0, 43.2088
14.172667589, 96.390, 1834.0, 42.8252
14.198928154, 96.390, 1821.0, 42.6732
14.225188719, 96.390, 1839.0, 42.8836
14.251449285, 96.390, 1834.0, 42.8252
14.277709850, 96.390, 2021.0, 44.9555
14.303970416, 96.390, 1898.0, 43.5660
14.330230981, 96.390, 2002.0, 44.7437
14.356491546, 96.390, 1937.0, 44.0114
14.382752112, 96.390, 1946.0, 44.1135
14.409012677, 96.390, 2171.0, 46.5940
14.435273242, 96.390, 2206.0, 46.9681
14.461533808, 96.390, 2308.0, 48.0416
14.487794373, 96.390, 2536.0, 50.3587
14.514054938, 96.390, 3002.0, 54.7905
14.540315504, 96.390, 3218.0, 56.7274
14.566576069, 96.390, 2825.0, 53.1507
14.592836634, 96.390, 2318.0, 48.1456
14.619097200, 96.390, 1916.0, 43.7721
14.645357765, 96.390, 1867.0, 43.2088
14.671618331, 96.390, 1872.0, 43.2666
14.697878896, 96.390, 1844.0, 42.9418
14.724139461, 96.390, 1809.0, 42.5323
14.750400027, 96.390, 1739.0, 41.7013
14.776660592, 96.390, 1734.0, 41.6413
14.802921157, 96.390, 1720.0, 41.4729
14.829181723, 96.390, 1811.0, 42.5558
14.855442288, 96.390, 1753.0, 41.8688
14.881702853, 96.390, 1779.0, 42.1782
14.907963419, 96.390, 1727.0, 41.5572
14.934223984, 96.390, 1768.0, 42.0476
14.960484549, 96.390, 1838.0, 42.8719
14.986745115, 96.390, 1809.0, 42.5323
15.013005680, 96.390, 1755.0, 41.8927
15.039266245, 96.390, 1843.0, 42.9302
15.065526811, 96.390, 1828.0, 42.7551
15.091787376, 96.390, 1858.0, 43.1045
15.118047942, 96.390, 1981.0, 44.5084
15.144308507, 96.390, 1999.0, 44.7102
15.170569072, 96.390, 2265.0, 47.5920
15.196829638, 96.390, 2340.0, 48.3735
15.223090203, 96.390, 2266.0, 47.6025
15.249350768, 96.390, 2259.0, 47.5289
15.275611334, 96.390, 2304.0, 48.0000
15.301871899, 96.390, 2160.0, 46.4758
15.328132464, 96.390, 2128.0, 46.1303
15.354393030, 96.390, 1988.0, 44.5870
15.380653595, 96.390, 2001.0, 44.7325
15.406914160, 96.390, 1935.0, 43.9886
15.433174726, 96.390, 1731.0, 41.6053
15.459435291, 96.390, 1724.0, 41.5211
15.485695857, 96.390, 1693.0, 41.1461
15.511956422, 96.390, 1692.0, 41.1339
15.538216987, 96.390, 1676.0, 40.9390
15.564477553, 96.390, 1626.0, 40.3237
15.590738118, 96.390, 1677.0, 40.9512
15.616998683, 96.390, 1669.0, 40.8534
15.643259249, 96.390, 1692.0, 41.1339
15.669519814, 96.390, 1855.0, 43.0697
15.695780379, 96.390, 1845.0, 42.9535
15.722040945, 96.390, 1962.0, 44.2945
15.748301510, 96.390, 1796.0, 42.3792
15.774562075, 96.390, 1726.0, 41.5452
15.800822641, 96.390, 1670.0, 40.8656
15.827083206, 96.390, 1679.0, 40.9756
15.853343771, 96.390, 1579.0, 39.7366
15.879604337, 96.390, 1720.0, 41.4729
15.905864902, 96.390, 1769.0, 42.0595
15.932125468, 96.390, 1657.0, 40.7063
15.958386033, 96.390, 1727.0, 41.5572
15.984646598, 96.390, 1737.0, 41.6773
16.010907164, 96.390, 1880.0, 43.3590
16.037167729, 96.390, 1906.0, 43.6578
16.063428294, 96.390, 2081.0, 45.6180
16.089688860, 96.390, 2261.0, 47.5500
16.115949425, 96.390, 2344.0, 48.4149
16.142209990, 96.390, 2474.0, 49.7393
16.168470556, 96.390, 2277.0, 47.7179
16.194731121, 96.390, 2038.0, 45.1442
16.220991686, 96.390, 2055.0, 45.3321
16.247252252, 96.390, 2029.0, 45.0444
16.273512817, 96.390, 2126.0, 46.1086
16.299773382, 96.390, 2403.0, 49.0204
16.326033948, 96.390, 2539.0, 50.3885
16.352294513, 96.390, 2454.0, 49.5379
16.378555079, 96.390, 1961.0, 44.2832
16.404815644, 96.390, 1755.0, 41.8927
16.431076209, 96.390, 1610.0, 40.1248
16.457336775, 96.390, 1661.0, 40.7554
16.483597340, 96.390, 1538.0, 39.2173
16.509857905, 96.390, 1617.0, 40.2119
16.536118471, 96.390, 1565.0, 39.5601
16.562379036, 96.390, 1579.0, 39.7366
16.588639601, 96.390, 1542.0, 39.2683
16.614900167, 96.390, 1510.0, 38.8587
16.641160732, 96.390, 1583.0, 39.7869
16.667421297, 96.390, 1546.0, 39.3192
16.693681863, 96.390, 1569.0, 39.6106
16.719942428, 96.390, 1570.0, 39.6232
16.746202994, 96.390, 1595.0, 39.9375
16.772463559, 96.390, 1500.0, 38.7298
16.798724124, 96.390, 1505.0, 38.7943
16.824984690, 96.390, 1481.0, 38.4838
16.851245255, 96.390, 1589.0, 39.8623
16.877505820, 96.390, 1577.0, 39.7115
16.903766386, 96.390, 1480.0, 38.4708
16.930026951, 96.390, 1464.0, 38.2623
16.956287516, 96.390, 1511.0, 38.8716
16.982548082, 96.390, 1561.0, 39.5095
17.008808647, 96.390, 1503.0, 38.7685
17.035069212, 96.390, 1496.0, 38.6782
17.061329778, 96.390, 1465.0, 38.2753
17.087590343, 96.390, 1525.0, 39.0512
17.113850908, 96.390, 1522.0, 39.0128
17.140111474, 96.390, 1527.0, 39.0768
17.166372039, 96.390, 1486.0, 38.5487
17.192632605, 96.390, 1526.0, 39.0640
17.218893170, 96.390, 1479.0, 38.4578
17.245153735, 96.390, 1558.0, 39.4715
17.271414301, 96.390, 1507.0, 38.8201
17.297674866, 96.390, 1495.0, 38.6652
17.323935431, 96.390, 1483.0, 38.5097
17.350195997, 96.390, 1502.0, 38.7556
17.376456562, 96.390, 1464.0, 38.2623
17.402717127, 96.390, 1536.0, 39.1918
17.428977693, 96.390, 1538.0, 39.2173
17.455238258, 96.390, 1553.0, 39.4081
17.481498823, 96.390, 1488.0, 38.5746
17.507759389, 96.390, 1543.0, 39.2810
17.534019954, 96.390, 1542.0, 39.2683
17.560280520, 96.390, 1485.0, 38.5357
17.586541085, 96.390, 1553.0, 39.4081
17.612801650, 96.390, 1573.0, 39.6611
17.639062216, 96.390, 1586.0, 39.8246
17.665322781, 96.390, 1583.0, 39.7869
17.691583346, 96.390, 1676.0, 40.9390
17.717843912, 96.390, 1606.0, 40.0749
17.744104477, 96.390, 1560.0, 39.4968
17.770365042, 96.390, 1538.0, 39.2173
17.796625608, 96.390, 1580.0, 39.7492
17.822886173, 96.390, 1547.0, 39.3319
17.849146738, 96.390, 1586.0, 39.8246
17.875407304, 96.390, 1583.0, 39.7869
17.901667869, 96.390, 1551.0, 39.3827
17.927928434, 96.390, 1544.0, 39.2938
17.954189000, 96.390, 1582.0, 39.7744
17.980449565, 96.390, 1567.0, 39.5854
18.006710131, 96.390, 1689.0, 41.0974
18.032970696, 96.390, 1640.0, 40.4969
18.059231261, 96.390, 1788.0, 42.2847
18.085491827, 96.390, 1765.0, 42.0119
18.111752392, 96.390, 1851.0, 43.0232
18.138012957, 96.390, 1971.0, 44.3959
18.164273523, 96.390, 2048.0, 45.2548
18.190534088, 96.390, 2236.0, 47.2864
18.216794653, 96.390, 2290.0, 47.8539
18.243055219, 96.390, 2533.0, 50.3289
18.269315784, 96.390, 2833.0, 53.2259
18.295576349, 96.390, 2929.0, 54.1202
18.321836915, 96.390, 3118.0, 55.8391
18.348097480, 96.390, 3177.0, 56.3649
18.374358046, 96.390, 3358.0, 57.9483
18.400618611, 96.390, 3478.0, 58.9746
18.426879176, 96.390, 3693.0, 60.7701
18.453139742, 96.390, 3818.0, 61.7900
18.479400307, 96.390, 3974.0, 63.0397
18.505660872, 96.390, 3978.0, 63.0714
18.531921438, 96.390, 3979.0, 63.0793
18.558182003, 96.390, 4020.0, 63.4035
18.584442568, 96.390, 3967.0, 62.9841
18.610703134, 96.390, 4071.0, 63.8044
18.636963699, 96.390, 4102.0, 64.0469
18.663224264, 96.390, 4324.0, 65.7571
18.689484830, 96.390, 4552.0, 67.4685
18.715745395, 96.390, 5120.0, 71.5542
18.742005960, 96.390, 5341.0, 73.0821
18.768266526, 96.390, 5624.0, 74.9933
18.794527091, 96.390, 5515.0, 74.2630
18.820787657, 96.390, 4840.0, 69.5701
18.847048222, 96.390, 4305.0, 65.6125
18.873308787, 96.390, 3770.0, 61.4003
18.899569353, 96.390, 3238.0, 56.9034
18.925829918, 96.390, 3056.0, 55.2811
18.952090483, 96.390, 2951.0, 54.3231
18.978351049, 96.390, 2866.0, 53.5350
19.004611614, 96.390, 2470.0, 49.6991
19.030872179, 96.390, 2186.0, 46.7547
19.057132745, 96.390, 1974.0, 44.4297
19.083393310, 96.390, 2086.0, 45.6727
19.109653875, 96.390, 2053.0, 45.3100
19.135914441, 96.390, 1999.0, 44.7102
19.162175006, 96.390, 1806.0, 42.4971
19.188435572, 96.390, 1780.0, 42.1900
19.214696137, 96.390, 1698.0, 41.2068
19.240956702, 96.390, 1750.0, 41.8330
19.267217268, 96.390, 1734.0, 41.6413
19.293477833, 96.390, 1714.0, 41.4005
19.319738398, 96.390, 1786.0, 42.2611
19.345998964, 96.390, 1825.0, 42.7200
19.372259529, 96.390, 1721.0, 41.4849
19.398520094, 96.390, 1752.0, 41.8569
19.424780660, 96.390, 1809.0, 42.5323
19.451041225, 96.390, 1784.0, 42.2374
19.477301790, 96.390, 1778.0, 42.1663
19.503562356, 96.390, 1763.0, 41.9881
19.529822921, 96.390, 1728.0, 41.5692
19.556083486, 96.390, 1690.0, 41.1096
19.582344052, 96.390, 1749.0, 41.8210
19.608604617, 96.390, 1748.0, 41.8091
19.634865183, 96.390, 1807.0, 42.5088
19.661125748, 96.390, 1786.0, 42.2611
19.687386313, 96.390, 1745.0, 41.7732
19.713646879, 96.390, 1756.0, 41.9047
19.739907444, 96.390, 1662.0, 40.7676
19.766168009, 96.390, 1680.0, 40.9878
19.792428575, 96.390, 1716.0, 41.4246
19.818689140, 96.390, 1810.0, 42.5441
19.844949705, 96.390, 1838.0, 42.8719
19.871210271, 96.390, 1693.0, 41.1461
19.897470836, 96.390, 1873.0, 43.2782
19.923731401, 96.390, 1828.0, 42.7551
19.949991967, 96.390, 1817.0, 42.6263
19.976252532, 96.390, 1968.0, 44.3621
20.002513098, 96.390, 2028.0, 45.0333
20.028773663, 96.390, 2098.0, 45.8039
20.055034228, 96.390, 2145.0, 46.3141
20.081294794, 96.390, 2257.0, 47.5079
20.107555359, 96.390, 2310.0, 48.0625
20.133815924, 96.390, 2532.0, 50.3190
20.160076490, 96.390, 2764.0, 52.5738
20.186337055, 96.390, 3210.0, 56.6569
20.212597620, 96.390, 3782.0, 61.4980
20.238858186, 96.390, 4416.0, 66.4530
20.265118751, 96.390, 4988.0, 70.6258
20.291379316, 96.390, 5503.0, 74.1822
20.317639882, 96.390, 5422.0, 73.6342
20.343900447, 96.390, 5056.0, 71.1056
20.370161012, 96.390, 4665.0, 68.3008
20.396421578, 96.390, 4464.0, 66.8132
20.422682143, 96.390, 4314.0, 65.6810
20.448942709, 96.390, 4061.0, 63.7260
20.475203274, 96.390, 3739.0, 61.1474
20.501463839, 96.390, 3441.0, 58.6600
20.527724405, 96.390, 3258.0, 57.0789
20.553984970, 96.390, 2968.0, 54.4794
20.580245535, 96.390, 2861.0, 53.4883
20.606506101, 96.390, 2811.0, 53.0189
20.632766666, 96.390, 2837.0, 53.2635
20.659027231, 96.390, 2748.0, 52.4214
20.685287797, 96.390, 2828.0, 53.1789
20.711548362, 96.390, 2991.0, 54.6900
20.737808927, 96.390, 2775.0, 52.6783
20.764069493, 96.390, 2587.0, 50.8626
20.790330058, 96.390, 2545.0, 50.4480
20.816590623, 96.390, 2198.0, 46.8828
20.842851189, 96.390, 2101.0, 45.8367
20.869111754, 96.390, 2096.0, 45.7821
20.895372320, 96.390, 1966.0, 44.3396
20.921632885, 96.390, 1957.0, 44.2380
20.947893450, 96.390, 1901.0, 43.6005
20.974154016, 96.390, 1900.0, 43.5890
21.000414581, 96.390, 1871.0, 43.2551
21.026675146, 96.390, 1853.0, 43.0465
21.052935712, 96.390, 1833.0, 42.8135
21.079196277, 96.390, 1773.0, 42.1070
21.105456842, 96.390, 1847.0, 42.9767
21.131717408, 96.390, 1837.0, 42.8602
21.157977973, 96.390, 1759.0, 41.9404
21.184238538, 96.390, 1872.0, 43.2666
21.210499104, 96.390, 1864.0, 43.1741
21.236759669, 96.390, 1909.0, 43.6921
21.263020235, 96.390, 2000.0, 44.7214
21.289280800, 96.390, 2172.0, 46.6047
21.315541365, 96.390, 2256.0, 47.4974
21.341801931, 96.390, 2209.0, 47.0000
21.368062496, 96.390, 2108.0, 45.9130
21.394323061, 96.390, 2048.0, 45.2548
21.420583627, 96.390, 1928.0, 43.9090
21.446844192, 96.390, 1912.0, 43.7264
21.473104757, 96.390, 1986.0, 44.5646
21.499365323, 96.390, 1861.0, 43.1393
21.525625888, 96.390, 2087.0, 45.6837
21.551886453, 96.390, 2261.0, 47.5500
21.578147019, 96.390, 2517.0, 50.1697
21.604407584, 96.390, 2803.0, 52.9434
21.630668149, 96.390, 3199.0, 56.5597
21.656928715, 96.390, 3279.0, 57.2626
21.683189280, 96.390, 3051.0, 55.2359
21.709449846, 96.390, 2905.0, 53.8981
21.735710411, 96.390, 2450.0, 49.4975
21.761970976, 96.390, 2225.0, 47.1699
21.788231542, 96.390, 1939.0, 44.0341
21.814492107, 96.390, 1897.0, 43.5546
21.840752672, 96.390, 1865.0, 43.1856
21.867013238, 96.390, 1779.0, 42.1782
21.893273803, 96.390, 1686.0, 41.0609
21.919534368, 96.390, 1741.0, 41.7253
21.945794934, 96.390, 1817.0, 42.6263
21.972055499, 96.390, 1799.0, 42.4146
21.998316064, 96.390, 1741.0, 41.7253
22.024576630, 96.390, 1743.0, 41.7493
22.050837195, 96.390, 1723.0, 41.5090
22.077097761, 96.390, 1737.0, 41.6773
22.103358326, 96.390, 1742.0, 41.7373
22.129618891, 96.390, 1818.0, 42.6380
22.155879457, 96.390, 1853.0, 43.0465
22.182140022, 96.390, 1779.0, 42.1782
22.208400587, 96.390, 1780.0, 42.1900
22.234661153, 96.390, 1795.0, 42.3674
22.260921718, 96.390, 1818.0, 42.6380
22.287182283, 96.390, 1847.0, 42.9767
22.313442849, 96.390, 1923.0, 43.8520
22.339703414, 96.390, 1865.0, 43.1856
22.365963979, 96.390, 1919.0, 43.8064
22.392224545, 96.390, 1909.0, 43.6921
22.418485110, 96.390, 1910.0, 43.7035
22.444745675, 96.390, 1915.0, 43.7607
22.471006241, 96.390, 2015.0, 44.8888
22.497266806, 96.390, 1948.0, 44.1362
22.523527372, 96.390, 1880.0, 43.3590
22.549787937, 96.390, 2033.0, 45.0888
22.576048502, 96.390, 1971.0, 44.3959
22.602309068, 96.390, 2111.0, 45.9456
22.628569633, 96.390, 2089.0, 45.7056
22.654830198, 96.390, 2083.0, 45.6399
22.681090764, 96.390, 1977.0, 44.4635
22.707351329, 96.390, 2121.0, 46.0543
22.733611894, 96.390, 2069.0, 45.4863
22.759872460, 96.390, 2201.0, 46.9148
22.786133025, 96.390, 2360.0, 48.5798
22.812393590, 96.390, 2553.0, 50.5272
22.838654156, 96.390, 2600.0, 50.9902
22.864914721, 96.390, 2763.0, 52.5642
22.891175287, 96.390, 2653.0, 51.5073
22.917435852, 96.390, 2551.0, 50.5074
22.943696417, 96.390, 2522.0, 50.2195
22.969956983, 96.390, 2346.0, 48.4355
22.996217548, 96.390, 2397.0, 48.9592
23.022478113, 96.390, 2557.0, 50.5668
23.048738679, 96.390, 2560.0, 50.5964
23.074999244, 96.390, 2539.0, 50.3885
23.101259809, 96.390, 2686.0, 51.8266
23.127520375, 96.390, 2966.0, 54.4610
23.153780940, 96.390, 3257.0, 57.0701
23.180041505, 96.390, 3383.0, 58.1636
23.206302071, 96.390, 3321.0, 57.6281
23.232562636, 96.390, 3345.0, 57.8360
23.258823201, 96.390, 2959.0, 54.3967
23.285083767, 96.390, 2691.0, 51.8748
23.311344332, 96.390, 2621.0, 51.1957
23.337604898, 96.390, 2686.0, 51.8266
23.363865463, 96.390, 2830.0, 53.1977
23.390126028, 96.390, 2800.0, 52.9150
23.416386594, 96.390, 2619.0, 51.1762
23.442647159, 96.390, 2565.0, 50.6458
23.468907724, 96.390, 2322.0, 48.1871
23.495168290, 96.390, 2380.0, 48.7852
23.521428855, 96.390, 2351.0, 48.4871
23.547689420, 96.390, 2387.0, 48.8569
23.573949986, 96.390, 2416.0, 49.1528
23.600210551, 96.390, 2359.0, 48.5695
23.626471116, 96.390, 2303.0, 47.9896
23.652731682, 96.390, 2254.0, 47.4763
23.678992247, 96.390, 2142.0, 46.2817
23.705252813, 96.390, 2122.0, 46.0652
23.731513378, 96.390, 2198.0, 46.8828
23.757773943, 96.390, 2154.0, 46.4112
23.784034509, 96.390, 2203.0, 46.9361
23.810295074, 96.390, 2329.0, 48.2597
23.836555639, 96.390, 2346.0, 48.4355
23.862816205, 96.390, 2459.0, 49.5883
23.889076770, 96.390, 2525.0, 50.2494
23.915337335, 96.390, 2669.0, 51.6624
23.941597901, 96.390, 3068.0, 55.3895
23.967858466, 96.390, 3450.0, 58.7367
23.994119031, 96.390, 3596.0, 59.9667
24.020379597, 96.390, 3527.0, 59.3886
24.046640162, 96.390, 3198.0, 56.5509
24.072900727, 96.390, 2915.0, 53.9907
24.099161293, 96.390, 2625.0, 51.2348
24.125421858, 96.390, 2397.0, 48.9592
24.151682424, 96.390, 2144.0, 46.3033
24.177942989, 96.390, 2105.0, 45.8803
24.204203554, 96.390, 2062.0, 45.4093
24.230464120, 96.390, 2055.0, 45.3321
24.256724685, 96.390, 2004.0, 44.7661
24.282985250, 96.390, 1942.0, 44.0681
24.309245816, 96.390, 1933.0, 43.9659
24.335506381, 96.390, 1918.0, 43.7950
24.361766946, 96.390, 1922.0, 43.8406
24.388027512, 96.390, 1834.0, 42.8252
24.414288077, 96.390, 1876.0, 43.3128
24.440548642, 96.390, 1787.0, 42.2729
24.466809208, 96.390, 1762.0, 41.9762
24.493069773, 96.390, 1729.0, 41.5812
24.519330338, 96.390, 1817.0, 42.6263
24.545590904, 96.390, 1746.0, 41.7852
24.571851469, 96.390, 1792.0, 42.3320
24.598112035, 96.390, 1653.0, 40.6571
24.624372600, 96.390, 1797.0, 42.3910
24.650633165, 96.390, 1722.0, 41.4970
24.676893731, 96.390, 1765.0, 42.0119
24.703154296, 96.390, 1747.0, 41.7971
24.729414861, 96.390, 1796.0, 42.3792
24.755675427, 96.390, 1703.0, 41.2674
24.781935992, 96.390, 1760.0, 41.9524
24.808196557, 96.390, 1785.0, 42.2493
24.834457123, 96.390, 1701.0, 41.2432
24.860717688, 96.390, 1644.0, 40.5463
24.886978253, 96.390, 1604.0, 40.0500
24.913238819, 96.390, 1723.0, 41.5090
24.939499384, 96.390, 1579.0, 39.7366
24.965759950, 96.390, 1647.0, 40.5832
24.992020515, 96.390, 1612.0, 40.1497
25.018281080, 96.390, 1584.0, 39.7995
25.044541646, 96.390, 1434.0, 37.8682
25.070802211, 96.390, 1560.0, 39.4968
25.097062776, 96.390, 1498.0, 38.7040
25.123323342, 96.390, 1530.0, 39.1152
25.149583907, 96.390, 1526.0, 39.0640
25.175844472, 96.390, 1541.0, 39.2556
25.202105038, 96.390, 1506.0, 38.8072
25.228365603, 96.390, 1507.0, 38.8201
25.254626168, 96.390, 1451.0, 38.0920
25.280886734, 96.390, 1416.0, 37.6298
25.307147299, 96.390, 1453.0, 38.1182
25.333407864, 96.390, 1394.0, 37.3363
25.359668430, 96.390, 1455.0, 38.1445
25.385928995, 96.390, 1424.0, 37.7359
25.412189561, 96.390, 1377.0, 37.1080
25.438450126, 96.390, 1453.0, 38.1182
25.464710691, 96.390, 1359.0, 36.8646
25.490971257, 96.390, 1386.0, 37.2290
25.517231822, 96.390, 1490.0, 38.6005
25.543492387, 96.390, 1454.0, 38.1314
25.569752953, 96.390, 1430.0, 37.8153
25.596013518, 96.390, 1390.0, 37.2827
25.622274083, 96.390, 1403.0, 37.4566
25.648534649, 96.390, 1407.0, 37.5100
25.674795214, 96.390, 1392.0, 37.3095
25.701055779, 96.390, 1485.0, 38.5357
25.727316345, 96.390, 1370.0, 37.0135
25.753576910, 96.390, 1394.0, 37.3363
25.779837476, 96.390, 1374.0, 37.0675
25.806098041, 96.390, 1408.0, 37.5233
25.832358606, 96.390, 1375.0, 37.0810
25.858619172, 96.390, 1429.0, 37.8021
25.884879737, 96.390, 1440.0, 37.9473
25.911140302, 96.390, 1459.0, 38.1969
25.937400868, 96.390, 1521.0, 39.0000
25.963661433, 96.390, 1527.0, 39.0768
25.989921998, 96.390, 1562.0, 39.5221
26.016182564, 96.390, 1614.0, 40.1746
26.042443129, 96.390, 1662.0, 40.7676
26.068703694, 96.390, 1757.0, 41.9166
26.094964260, 96.390, 1932.0, 43.9545
26.121224825, 96.390, 1918.0, 43.7950
26.147485390, 96.390, 1905.0, 43.6463
26.173745956, 96.390, 1823.0, 42.6966
26.200006521, 96.390, 1715.0, 41.4126
26.226267087, 96.390, 1587.0, 39.8372
26.252527652, 96.390, 1605.0, 40.0625
26.278788217, 96.390, 1527.0, 39.0768
26.305048783, 96.390, 1466.0, 38.2884
26.331309348, 96.390, 1479.0, 38.4578
26.357569913, 96.390, 1505.0, 38.7943
26.383830479, 96.390, 1537.0, 39.2046
26.410091044, 96.390, 1556.0, 39.4462
26.436351609, 96.390, 1550.0, 39.3700
26.462612175, 96.390, 1579.0, 39.7366
26.488872740, 96.390, 1651.0, 40.6325
26.515133305, 96.390, 1776.0, 42.1426
26.541393871, 96.390, 1719.0, 41.4608
26.567654436, 96.390, 1809.0, 42.5323
26.593915002, 96.390, 1784.0, 42.2374
26.620175567, 96.390, 1682.0, 41.0122
26.646436132, 96.390, 1729.0, 41.5812
26.672696698, 96.390, 1741.0, 41.7253
26.698957263, 96.390, 1817.0, 42.6263
26.725217828, 96.390, 1935.0, 43.9886
26.751478394, 96.390, 2153.0, 46.4004
26.777738959, 96.390, 2425.0, 49.2443
26.803999524, 96.390, 2556.0, 50.5569
26.830260090, 96.390, 2532.0, 50.3190
26.856520655, 96.390, 2204.0, 46.9468
26.882781220, 96.390, 2098.0, 45.8039
26.909041786, 96.390, 1920.0, 43.8178
26.935302351, 96.390, 1978.0, 44.4747
26.961562916, 96.390, 2014.0, 44.8776
26.987823482, 96.390, 2232.0, 47.2440
27.014084047, 96.390, 2585.0, 50.8429
27.040344613, 96.390, 2861.0, 53.4883
27.066605178, 96.390, 3073.0, 55.4346
27.092865743, 96.390, 3149.0, 56.1160
27.119126309, 96.390, 3613.0, 60.1082
27.145386874, 96.390, 3855.0, 62.0886
27.171647439, 96.390, 3837.0, 61.9435
27.197908005, 96.390, 3759.0, 61.3107
27.224168570, 96.390, 3349.0, 57.8705
27.250429135, 96.390, 2748.0, 52.4214
27.276689701, 96.390, 2487.0, 49.8698
27.302950266, 96.390, 2102.0, 45.8476
27.329210831, 96.390, 1873.0, 43.2782
27.355471397, 96.390, 1765.0, 42.0119
27.381731962, 96.390, 1705.0, 41.2916
27.407992528, 96.390, 1691.0, 41.1218
27.434253093, 96.390, 1661.0, 40.7554
27.460513658, 96.390, 1661.0, 40.7554
27.486774224, 96.390, 1621.0, 40.2616
27.513034789, 96.390, 1630.0, 40.3733
27.539295354, 96.390, 1643.0, 40.5339
27.565555920, 96.390, 1655.0, 40.6817
27.591816485, 96.390, 1677.0, 40.9512
27.618077050, 96.390, 1689.0, 41.0974
27.644337616, 96.390, 1761.0, 41.9643
27.670598181, 96.390, 1846.0, 42.9651
27.696858746, 96.390, 1894.0, 43.5201
27.723119312, 96.390, 1905.0, 43.6463
27.749379877, 96.390, 2079.0, 45.5961
27.775640442, 96.390, 2021.0, 44.9555
27.801901008, 96.390, 2128.0, 46.1303
27.828161573, 96.390, 2164.0, 46.5188
27.854422139, 96.390, 2012.0, 44.8553
27.880682704, 96.390, 2140.0, 46.2601
27.906943269, 96.390, 1911.0, 43.7150
27.933203835, 96.390, 1932.0, 43.9545
27.959464400, 96.390, 1787.0, 42.2729
27.985724965, 96.390, 1762.0, 41.9762
28.011985531, 96.390, 1687.0, 41.0731
28.038246096, 96.390, 1681.0, 41.0000
28.064506661, 96.390, 1615.0, 40.1871
28.090767227, 96.390, 1526.0, 39.0640
28.117027792, 96.390, 1559.0, 39.4842
28.143288357, 96.390, 1495.0, 38.6652
28.169548923, 96.390, 1556.0, 39.4462
28.195809488, 96.390, 1448.0, 38.0526
28.222070054, 96.390, 1424.0, 37.7359
28.248330619, 96.390, 1463.0, 38.2492
28.274591184, 96.390, 1435.0, 37.8814
28.300851750, 96.390, 1488.0, 38.5746
28.327112315, 96.390, 1440.0, 37.9473
28.353372880, 96.390, 1535.0, 39.1791
28.379633446, 96.390, 1583.0, 39.7869
28.405894011, 96.390, 1571.0, 39.6358
28.432154576, 96.390, 1461.0, 38.2230
28.458415142, 96.390, 1568.0, 39.5980
28.484675707, 96.390, 1524.0, 39.0384
28.510936272, 96.390, 1542.0, 39.2683
28.537196838, 96.390, 1497.0, 38.6911
28.563457403, 96.390, 1517.0, 38.9487
28.589717968, 96.390, 1502.0, 38.7556
28.615978534, 96.390, 1411.0, 37.5633
28.642239099, 96.390, 1367.0, 36.9730
28.668499665, 96.390, 1405.0, 37.4833
28.694760230, 96.390, 1405.0, 37.4833
28.721020795, 96.390, 1377.0, 37.1080
28.747281361, 96.390, 1380.0, 37.1484
28.773541926, 96.390, 1331.0, 36.4829
28.799802491, 96.390, 1419.0, 37.6696
28.826063057, 96.390, 1467.0, 38.3014
28.852323622, 96.390, 1454.0, 38.1314
28.878584187, 96.390, 1491.0, 38.6135
28.904844753, 96.390, 1498.0, 38.7040
28.931105318, 96.390, 1465.0, 38.2753
28.957365883, 96.390, 1484.0, 38.5227
28.983626449, 96.390, 1486.0, 38.5487
29.009887014, 96.390, 1447.0, 38.0395
29.036147579, 96.390, 1528.0, 39.0896
29.062408145, 96.390, 1543.0, 39.2810
29.088668710, 96.390, 1686.0, 41.0609
29.114929276, 96.390, 1638.0, 40.4722
29.141189841, 96.390, 1849.0, 43.0000
29.167450406, 96.390, 1983.0, 44.5309
29.193710972, 96.390, 2002.0, 44.7437
29.219971537, 96.390, 2086.0, 45.6727
29.246232102, 96.390, 2207.0, 46.9787
29.272492668, 96.390, 2544.0, 50.4381
29.298753233, 96.390, 2624.0, 51.2250
29.325013798, 96.390, 2689.0, 51.8556
29.351274364, 96.390, 2302.0, 47.9792
29.377534929, 96.390, 2313.0, 48.0937
29.403795494, 96.390, 2264.0, 47.5815
29.430056060, 96.390, 2220.0, 47.1169
29.456316625, 96.390, 2249.0, 47.4236
29.482577191, 96.390, 2435.0, 49.3457
29.508837756, 96.390, 2324.0, 48.2079
29.535098321, 96.390, 2103.0, 45.8585
29.561358887, 96.390, 1899.0, 43.5775
29.587619452, 96.390, 1887.0, 43.4396
29.613880017, 96.390, 1734.0, 41.6413
29.640140583, 96.390, 1695.0, 41.1704
29.666401148, 96.390, 1629.0, 40.3609
29.692661713, 96.390, 1702.0, 41.2553
29.718922279, 96.390, 1698.0, 41.2068
29.745182844, 96.390, 1706.0, 41.3038
29.771443409, 96.390, 1691.0, 41.1218
29.797703975, 96.390, 1684.0, 41.0366
29.823964540, 96.390, 1763.0, 41.9881
29.850225105, 96.390, 1854.0, 43.0581
29.876485671, 96.390, 2080.0, 45.6070
29.902746236, 96.390, 2340.0, 48.3735
29.929006802, 96.390, 2771.0, 52.6403
29.955267367, 96.390, 3023.0, 54.9818
29.981527932, 96.390, 3143.0, 56.0625
30.007788498, 96.390, 2783.0, 52.7541
30.034049063, 96.390, 2622.0, 51.2055
30.060309628, 96.390, 2264.0, 47.5815
30.086570194, 96.390, 1983.0, 44.5309
30.112830759, 96.390, 1829.0, 42.7668
30.139091324, 96.390, 1626.0, 40.3237
30.165351890, 96.390, 1582.0, 39.7744
30.191612455, 96.390, 1515.0, 38.9230
30.217873020, 96.390, 1511.0, 38.8716
30.244133586, 96.390, 1439.0, 37.9342
30.270394151, 96.390, 1449.0, 38.0657
30.296654717, 96.390, 1390.0, 37.2827
30.322915282, 96.390, 1459.0, 38.1969
30.349175847, 96.390, 1399.0, 37.4032
30.375436413, 96.390, 1472.0, 38.3667
30.401696978, 96.390, 1410.0, 37.5500
30.427957543, 96.390, 1562.0, 39.5221
30.454218109, 96.390, 1483.0, 38.5097
30.480478674, 96.390, 1428.0, 37.7889
30.506739239, 96.390, 1439.0, 37.9342
30.532999805, 96.390, 1427.0, 37.7757
30.559260370, 96.390, 1481.0, 38.4838
30.585520935, 96.390, 1518.0, 38.9615
30.611781501, 96.390, 1558.0, 39.4715
30.638042066, 96.390, 1548.0, 39.3446
30.664302631, 96.390, 1741.0, 41.7253
30.690563197, 96.390, 1603.0, 40.0375
30.716823762, 96.390, 1655.0, 40.6817
30.743084328, 96.390, 1776.0, 42.1426
30.769344893, 96.390, 1811.0, 42.5558
30.795605458, 96.390, 1861.0, 43.1393
30.821866024, 96.390, 2083.0, 45.6399
30.848126589, 96.390, 2062.0, 45.4093
30.874387154, 96.390, 2066.0, 45.4533
30.900647720, 96.390, 1895.0, 43.5316
30.926908285, 96.390, 1789.0, 42.2966
30.953168850, 96.390, 1768.0, 42.0476
30.979429416, 96.390, 1576.0, 39.6989
31.005689981, 96.390, 1528.0, 39.0896
31.031950546, 96.390, 1478.0, 38.4448
31.058211112, 96.390, 1563.0, 39.5348
31.084471677, 96.390, 1491.0, 38.6135
31.110732243, 96.390, 1447.0, 38.0395
31.136992808, 96.390, 1520.0, 38.9872
31.163253373, 96.390, 1570.0, 39.6232
31.189513939, 96.390, 1812.0, 42.5676
31.215774504, 96.390, 1964.0, 44.3170
31.242035069, 96.390, 2170.0, 46.5833
31.268295635, 96.390, 2356.0, 48.5386
31.294556200, 96.390, 2437.0, 49.3660
31.320816765, 96.390, 2364.0, 48.6210
31.347077331, 96.390, 2241.0, 47.3392
31.373337896, 96.390, 2353.0, 48.5077
31.399598461, 96.390, 2099.0, 45.8148
31.425859027, 96.390, 1830.0, 42.7785
31.452119592, 96.390, 1759.0, 41.9404
31.478380157, 96.390, 1574.0, 39.6737
31.504640723, 96.390, 1593.0, 39.9124
31.530901288, 96.390, 1486.0, 38.5487
31.557161854, 96.390, 1436.0, 37.8946
31.583422419, 96.390, 1411.0, 37.5633
31.609682984, 96.390, 1385.0, 37.2156
31.635943550, 96.390, 1331.0, 36.4829
31.662204115, 96.390, 1362.0, 36.9053
31.688464680, 96.390, 1356.0, 36.8239
31.714725246, 96.390, 1319.0, 36.3180
31.740985811, 96.390, 1366.0, 36.9594
31.767246376, 96.390, 1431.0, 37.8286
31.793506942, 96.390, 1356.0, 36.8239
31.819767507, 96.390, 1533.0, 39.1535
31.846028072, 96.390, 1584.0, 39.7995
31.872288638, 96.390, 1582.0, 39.7744
31.898549203, 96.390, 1694.0, 41.1582
31.924809769, 96.390, 1683.0, 41.0244
31.951070334, 96.390, 1737.0, 41.6773
31.977330899, 96.390, 1660.0, 40.7431
32.003591465, 96.390, 1620.0, 40.2492
32.029852030, 96.390, 1706.0, 41.3038
32.056112595, 96.390, 1749.0, 41.8210
32.082373161, 96.390, 1758.0, 41.9285
32.108633726, 96.390, 1777.0, 42.1545
32.134894291, 96.390, 1673.0, 40.9023
32.161154857, 96.390, 1618.0, 40.2244
32.187415422, 96.390, 1773.0, 42.1070
32.213675987, 96.390, 1864.0, 43.1741
32.239936553, 96.390, 2035.0, 45.1110
32.266197118, 96.390, 2211.0, 47.0213
32.292457683, 96.390, 2153.0, 46.4004
32.318718249, 96.390, 1950.0, 44.1588
32.344978814, 96.390, 1688.0, 41.0853
32.371239380, 96.390, 1598.0, 39.9750
32.397499945, 96.390, 1518.0, 38.9615
32.423760510, 96.390, 1392.0, 37.3095
32.450021076, 96.390, 1316.0, 36.2767
32.476281641, 96.390, 1358.0, 36.8511
32.502542206, 96.390, 1542.0, 39.2683
32.528802772, 96.390, 1554.0, 39.4208
32.555063337, 96.390, 1634.0, 40.4228
32.581323902, 96.390, 1723.0, 41.5090
32.607584468, 96.390, 1578.0, 39.7240
32.633845033, 96.390, 1677.0, 40.9512
32.660105598, 96.390, 1737.0, 41.6773
32.686366164, 96.390, 1571.0, 39.6358
32.712626729, 96.390, 1592.0, 39.8999
32.738887295, 96.390, 1599.0, 39.9875
32.765147860, 96.390, 1542.0, 39.2683
32.791408425, 96.390, 1527.0, 39.0768
32.817668991, 96.390, 1490.0, 38.6005
32.843929556, 96.390, 1418.0, 37.6563
32.870190121, 96.390, 1507.0, 38.8201
32.896450687, 96.390, 1480.0, 38.4708
32.922711252, 96.390, 1528.0, 39.0896
32.948971817, 96.390, 1648.0, 40.5956
32.975232383, 96.390, 1612.0, 40.1497
33.001492948, 96.390, 1624.0, 40.2989
33.027753513, 96.390, 1656.0, 40.6940
33.054014079, 96.390, 1689.0, 41.0974
33.080274644, 96.390, 1666.0, 40.8167
33.106535209, 96.390, 1670.0, 40.8656
33.132795775, 96.390, 1731.0, 41.6053
33.159056340, 96.390, 1582.0, 39.7744
33.185316906, 96.390, 1780.0, 42.1900
33.211577471, 96.390, 1626.0, 40.3237
33.237838036, 96.390, 1612.0, 40.1497
33.264098602, 96.390, 1619.0, 40.2368
33.290359167, 96.390, 1550.0, 39.3700
33.316619732, 96.390, 1576.0, 39.6989
33.342880298, 96.390, 1468.0, 38.3145
33.369140863, 96.390, 1559.0, 39.4842
33.395401428, 96.390, 1512.0, 38.8844
33.421661994, 96.390, 1561.0, 39.5095
33.447922559, 96.390, 1565.0, 39.5601
33.474183124, 96.390, 1577.0, 39.7115
33.500443690, 96.390, 1500.0, 38.7298
33.526704255, 96.390, 1531.0, 39.1280
33.552964820, 96.390, 1526.0, 39.0640
33.579225386, 96.390, 1537.0, 39.2046
33.605485951, 96.390, 1616.0, 40.1995
33.631746517, 96.390, 1658.0, 40.7185
33.658007082, 96.390, 1705.0, 41.2916
33.684267647, 96.390, 1731.0, 41.6053
33.710528213, 96.390, 1638.0, 40.4722
33.736788778, 96.390, 1727.0, 41.5572
33.763049343, 96.390, 1654.0, 40.6694
33.789309909, 96.390, 1561.0, 39.5095
33.815570474, 96.390, 1738.0, 41.6893
33.841831039, 96.390, 1788.0, 42.2847
33.868091605, 96.390, 1835.0, 42.8369
33.894352170, 96.390, 1931.0, 43.9431
33.920612735, 96.390, 1933.0, 43.9659
33.946873301, 96.390, 2121.0, 46.0543
33.973133866, 96.390, 2143.0, 46.2925
33.999394432, 96.390, 2409.0, 49.0816
34.025654997, 96.390, 2440.0, 49.3964
34.051915562, 96.390, 2517.0, 50.1697
34.078176128, 96.390, 2695.0, 51.9134
34.104436693, 96.390, 2825.0, 53.1507
34.130697258, 96.390, 3026.0, 55.0091
34.156957824, 96.390, 3245.0, 56.9649
34.183218389, 96.390, 3246.0, 56.9737
34.209478954, 96.390, 3296.0, 57.4108
34.235739520, 96.390, 3253.0, 57.0351
34.262000085, 96.390, 3057.0, 55.2901
34.288260650, 96.390, 2904.0, 53.8888
34.314521216, 96.390, 2618.0, 51.1664
34.340781781, 96.390, 2503.0, 50.0300
34.367042346, 96.390, 2407.0, 49.0612
34.393302912, 96.390, 2468.0, 49.6790
34.419563477, 96.390, 2507.0, 50.0700
34.445824043, 96.390, 2676.0, 51.7301
34.472084608, 96.390, 2726.0, 52.2111
34.498345173, 96.390, 2942.0, 54.2402
34.524605739, 96.390, 2981.0, 54.5985
34.550866304, 96.390, 3074.0, 55.4437
34.577126869, 96.390, 3254.0, 57.0438
34.603387435, 96.390, 3135.0, 55.9911
34.629648000, 96.390, 2854.0, 53.4228
34.655908565, 96.390, 2546.0, 50.4579
34.682169131, 96.390, 2483.0, 49.8297
34.708429696, 96.390, 2355.0, 48.5283
34.734690261, 96.390, 2214.0, 47.0532
34.760950827, 96.390, 2085.0, 45.6618
34.787211392, 96.390, 2064.0, 45.4313
34.813471958, 96.390, 2048.0, 45.2548
34.839732523, 96.390, 2093.0, 45.7493
34.865993088, 96.390, 2031.0, 45.0666
34.892253654, 96.390, 1946.0, 44.1135
34.918514219, 96.390, 1910.0, 43.7035
34.944774784, 96.390, 1866.0, 43.1972
34.971035350, 96.390, 1964.0, 44.3170
34.997295915, 96.390, 1913.0, 43.7379
35.023556480, 96.390, 1963.0, 44.3058
35.049817046, 96.390, 2057.0, 45.3542
35.076077611, 96.390, 1974.0, 44.4297
35.102338176, 96.390, 2045.0, 45.2217
35.128598742, 96.390, 1955.0, 44.2154
35.154859307, 96.390, 1994.0, 44.6542
35.181119872, 96.390, 2047.0, 45.2438
35.207380438, 96.390, 1919.0, 43.8064
35.233641003, 96.390, 1958.0, 44.2493
35.259901569, 96.390, 1910.0, 43.7035
35.286162134, 96.390, 1838.0, 42.8719
35.312422699, 96.390, 1684.0, 41.0366
35.338683265, 96.390, 1705.0, 41.2916
35.364943830, 96.390, 1659.0, 40.7308
35.391204395, 96.390, 1636.0, 40.4475
35.417464961, 96.390, 1637.0, 40.4599
35.443725526, 96.390, 1499.0, 38.7169
35.469986091, 96.390, 1618.0, 40.2244
35.496246657, 96.390, 1543.0, 39.2810
35.522507222, 96.390, 1522.0, 39.0128
35.548767787, 96.390, 1562.0, 39.5221
35.575028353, 96.390, 1559.0, 39.4842
35.601288918, 96.390, 1620.0, 40.2492
35.627549484, 96.390, 1633.0, 40.4104
35.653810049, 96.390, 1621.0, 40.2616
35.680070614, 96.390, 1665.0, 40.8044
35.706331180, 96.390, 1626.0, 40.3237
35.732591745, 96.390, 1772.0, 42.0951
35.758852310, 96.390, 1630.0, 40.3733
35.785112876, 96.390, 1708.0, 41.3280
35.811373441, 96.390, 1726.0, 41.5452
35.837634006, 96.390, 1735.0, 41.6533
35.863894572, 96.390, 1874.0, 43.2897
35.890155137, 96.390, 1978.0, 44.4747
35.916415702, 96.390, 2208.0, 46.9894
35.942676268, 96.390, 2298.0, 47.9375
35.968936833, 96.390, 2298.0, 47.9375
35.995197398, 96.390, 2083.0, 45.6399
36.021457964, 96.390, 2124.0, 46.0869
36.047718529, 96.390, 2149.0, 46.3573
36.073979095, 96.390, 2091.0, 45.7275
36.100239660, 96.390, 2096.0, 45.7821
36.126500225, 96.390, 2182.0, 46.7119
36.152760791, 96.390, 2391.0, 48.8979
36.179021356, 96.390, 2675.0, 51.7204
36.205281921, 96.390, 2694.0, 51.9038
36.231542487, 96.390, 2393.0, 48.9183
36.257803052, 96.390, 2127.0, 46.1194
36.284063617, 96.390, 2031.0, 45.0666
36.310324183, 96.390, 1962.0, 44.2945
36.336584748, 96.390, 1636.0, 40.4475
36.362845313, 96.390, 1567.0, 39.5854
36.389105879, 96.390, 1488.0, 38.5746
36.415366444, 96.390, 1412.0, 37.5766
36.441627010, 96.390, 1460.0, 38.2099
36.467887575, 96.390, 1465.0, 38.2753
36.494148140, 96.390, 1474.0, 38.3927
36.520408706, 96.390, 1517.0, 38.9487
36.546669271, 96.390, 1448.0, 38.0526
36.572929836, 96.390, 1473.0, 38.3797
36.599190402, 96.390, 1494.0, 38.6523
36.625450967, 96.390, 1451.0, 38.0920
36.651711532, 96.390, 1431.0, 37.8286
36.677972098, 96.390, 1364.0, 36.9324
36.704232663, 96.390, 1326.0, 36.4143
36.730493228, 96.390, 1255.0, 35.4260
36.756753794, 96.390, 1334.0, 36.5240
36.783014359, 96.390, 1212.0, 34.8138
36.809274924, 96.390, 1300.0, 36.0555
36.835535490, 96.390, 1244.0, 35.2704
36.861796055, 96.390, 1324.0, 36.3868
36.888056621, 96.390, 1279.0, 35.7631
36.914317186, 96.390, 1230.0, 35.0714
36.940577751, 96.390, 1231.0, 35.0856
36.966838317, 96.390, 1214.0, 34.8425
36.993098882, 96.390, 1303.0, 36.0971
37.019359447, 96.390, 1346.0, 36.6879
37.045620013, 96.390, 1272.0, 35.6651
37.071880578, 96.390, 1259.0, 35.4824
37.098141143, 96.390, 1388.0, 37.2559
37.124401709, 96.390, 1370.0, 37.0135
37.150662274, 96.390, 1389.0, 37.2693
37.176922839, 96.390, 1496.0, 38.6782
37.203183405, 96.390, 1510.0, 38.8587
37.229443970, 96.390, 1568.0, 39.5980
37.255704535, 96.390, 1551.0, 39.3827
37.281965101, 96.390, 1493.0, 38.6394
37.308225666, 96.390, 1441.0, 37.9605
37.334486232, 96.390, 1472.0, 38.3667
37.360746797, 96.390, 1450.0, 38.0789
37.387007362, 96.390, 1576.0, 39.6989
37.413267928, 96.390, 1489.0, 38.5876
37.439528493, 96.390, 1573.0, 39.6611
37.465789058, 96.390, 1728.0, 41.5692
37.492049624, 96.390, 1695.0, 41.1704
37.518310189, 96.390, 1716.0, 41.4246
37.544570754, 96.390, 1690.0, 41.1096
37.570831320, 96.390, 1717.0, 41.4367
37.597091885, 96.390, 1740.0, 41.7133
37.623352450, 96.390, 1589.0, 39.8623
37.649613016, 96.390, 1582.0, 39.7744
37.675873581, 96.390, 1608.0, 40.0999
37.702134147, 96.390, 1557.0, 39.4588
37.728394712, 96.390, 1523.0, 39.0256
37.754655277, 96.390, 1585.0, 39.8121
37.780915843, 96.390, 1750.0, 41.8330
37.807176408, 96.390, 1734.0, 41.6413
37.833436973, 96.390, 1880.0, 43.3590
37.859697539, 96.390, 1893.0, 43.5086
37.885958104, 96.390, 1770.0, 42.0714
37.912218669, 96.390, 1753.0, 41.8688
37.938479235, 96.390, 1786.0, 42.2611
37.964739800, 96.390, 1888.0, 43.4511
37.991000365, 96.390, 1765.0, 42.0119
38.017260931, 96.390, 1750.0, 41.8330
38.043521496, 96.390, 1671.0, 40.8779
38.069782061, 96.390, 1667.0, 40.8289
38.096042627, 96.390, 1595.0, 39.9375
38.122303192, 96.390, 1648.0, 40.5956
38.148563758, 96.390, 1547.0, 39.3319
38.174824323, 96.390, 1556.0, 39.4462
38.201084888, 96.390, 1540.0, 39.2428
38.227345454, 96.390, 1500.0, 38.7298
38.253606019, 96.390, 1480.0, 38.4708
38.279866584, 96.390, 1467.0, 38.3014
38.306127150, 96.390, 1417.0, 37.6431
38.332387715, 96.390, 1330.0, 36.4692
38.358648280, 96.390, 1298.0, 36.0278
38.384908846, 96.390, 1295.0, 35.9861
38.411169411, 96.390, 1320.0, 36.3318
38.437429976, 96.390, 1263.0, 35.5387
38.463690542, 96.390, 1292.0, 35.9444
38.489951107, 96.390, 1289.0, 35.9026
38.516211673, 96.390, 1280.0, 35.7771
38.542472238, 96.390, 1380.0, 37.1484
38.568732803, 96.390, 1356.0, 36.8239
38.594993369, 96.390, 1381.0, 37.1618
38.621253934, 96.390, 1291.0, 35.9305
38.647514499, 96.390, 1260.0, 35.4965
38.673775065, 96.390, 1273.0, 35.6791
38.700035630, 96.390, 1367.0, 36.9730
38.726296195, 96.390, 1301.0, 36.0694
38.752556761, 96.390, 1324.0, 36.3868
38.778817326, 96.390, 1323.0, 36.3731
38.805077891, 96.390, 1294.0, 35.9722
38.831338457, 96.390, 1279.0, 35.7631
38.857599022, 96.390, 1319.0, 36.3180
38.883859587, 96.390, 1267.0, 35.5949
38.910120153, 96.390, 1279.0, 35.7631
38.936380718, 96.390, 1281.0, 35.7911
38.962641284, 96.390, 1329.0, 36.4555
38.988901849, 96.390, 1231.0, 35.0856
39.015162414, 96.390, 1311.0, 36.2077
39.041422980, 96.390, 1203.0, 34.6843
39.067683545, 96.390, 1278.0, 35.7491
39.093944110, 96.390, 1304.0, 36.1109
39.120204676, 96.390, 1329.0, 36.4555
39.146465241, 96.390, 1252.0, 35.3836
39.172725806, 96.390, 1357.0, 36.8375
39.198986372, 96.390, 1353.0, 36.7831
39.225246937, 96.390, 1435.0, 37.8814
39.251507502, 96.390, 1408.0, 37.5233
39.277768068, 96.390, 1290.0, 35.9166
39.304028633, 96.390, 1342.0, 36.6333
39.330289199, 96.390, 1395.0, 37.3497
39.356549764, 96.390, 1280.0, 35.7771
39.382810329, 96.390, 1290.0, 35.9166
39.409070895, 96.390, 1362.0, 36.9053
39.435331460, 96.390, 1322.0, 36.3593
39.461592025, 96.390, 1346.0, 36.6879
39.487852591, 96.390, 1398.0, 37.3898
39.514113156, 96.390, 1371.0, 37.0270
39.540373721, 96.390, 1361.0, 36.8917
39.566634287, 96.390, 1359.0, 36.8646
39.592894852, 96.390, 1337.0, 36.5650
39.619155417, 96.390, 1345.0, 36.6742
39.645415983, 96.390, 1364.0, 36.9324
39.671676548, 96.390, 1345.0, 36.6742
39.697937113, 96.390, 1368.0, 36.9865
39.724197679, 96.390, 1365.0, 36.9459
39.750458244, 96.390, 1393.0, 37.3229
39.776718810, 96.390, 1469.0, 38.3275
39.802979375, 96.390, 1363.0, 36.9188
39.829239940, 96.390, 1513.0, 38.8973
39.855500506, 96.390, 1388.0, 37.2559
39.881761071, 96.390, 1428.0, 37.7889
39.908021636, 96.390, 1423.0, 37.7227
39.934282202, 96.390, 1413.0, 37.5899
39.960542767, 96.390, 1455.0, 38.1445
39.986803332, 96.390, 1469.0, 38.3275
40.013063898, 96.390, 1456.0, 38.1576
40.039324463, 96.390, 1459.0, 38.1969
40.065585028, 96.390, 1472.0, 38.3667
40.091845594, 96.390, 1454.0, 38.1314
40.118106159, 96.390, 1504.0, 38.7814
40.144366725, 96.390, 1575.0, 39.6863
40.170627290, 96.390, 1571.0, 39.6358
40.196887855, 96.390, 1606.0, 40.0749
40.223148421, 96.390, 1673.0, 40.9023
40.249408986, 96.390, 1643.0, 40.5339
40.275669551, 96.390, 1689.0, 41.0974
40.301930117, 96.390, 1812.0, 42.5676
40.328190682, 96.390, 1885.0, 43.4166
40.354451247, 96.390, 2046.0, 45.2327
40.380711813, 96.390, 2152.0, 46.3897
40.406972378, 96.390, 2316.0, 48.1248
40.433232943, 96.390, 2494.0, 49.9400
40.459493509, 96.390, 2598.0, 50.9706
40.485754074, 96.390, 2731.0, 52.2590
40.512014639, 96.390, 2875.0, 53.6190
40.538275205, 96.390, 2979.0, 54.5802
40.564535770, 96.390, 3022.0, 54.9727
40.590796336, 96.390, 3129.0, 55.9375
40.617056901, 96.390, 3022.0, 54.9727
40.643317466, 96.390, 3059.0, 55.3082
40.669578032, 96.390, 2837.0, 53.2635
40.695838597, 96.390, 2653.0, 51.5073
40.722099162, 96.390, 2459.0, 49.5883
40.748359728, 96.390, 2092.0, 45.7384
40.774620293, 96.390, 1965.0, 44.3283
40.800880858, 96.390, 1857.0, 43.0929
40.827141424, 96.390, 1651.0, 40.6325
40.853401989, 96.390, 1473.0, 38.3797
40.879662554, 96.390, 1427.0, 37.7757
40.905923120, 96.390, 1439.0, 37.9342
40.932183685, 96.390, 1350.0, 36.7423
40.958444251, 96.390, 1322.0, 36.3593
40.984704816, 96.390, 1285.0, 35.8469
41.010965381, 96.390, 1248.0, 35.3270
41.037225947, 96.390, 1249.0, 35.3412
41.063486512, 96.390, 1297.0, 36.0139
41.089747077, 96.390, 1277.0, 35.7351
41.116007643, 96.390, 1283.0, 35.8190
41.142268208, 96.390, 1199.0, 34.6266
41.168528773, 96.390, 1292.0, 35.9444
41.194789339, 96.390, 1232.0, 35.0999
41.221049904, 96.390, 1143.0, 33.8083
41.247310469, 96.390, 1208.0, 34.7563
41.273571035, 96.390, 1230.0, 35.0714
41.299831600, 96.390, 1096.0, 33.1059
41.326092165, 96.390, 1106.0, 33.2566
41.352352731, 96.390, 1154.0, 33.9706
41.378613296, 96.390, 1145.0, 33.8378
41.404873862, 96.390, 1127.0, 33.5708
41.431134427, 96.390, 1125.0, 33.5410
41.457394992, 96.390, 1176.0, 34.2929
41.483655558, 96.390, 1190.0, 34.4964
41.509916123, 96.390, 1279.0, 35.7631
41.536176688, 96.390, 1302.0, 36.0832
41.562437254, 96.390, 1200.0, 34.6410
41.588697819, 96.390, 1357.0, 36.8375
41.614958384, 96.390, 1228.0, 35.0428
41.641218950, 96.390, 1251.0, 35.3695
41.667479515, 96.390, 1200.0, 34.6410
41.693740080, 96.390, 1265.0, 35.5668
41.720000646, 96.390, 1255.0, 35.4260
41.746261211, 96.390, 1309.0, 36.1801
41.772521776, 96.390, 1386.0, 37.2290
41.798782342, 96.390, 1347.0, 36.7015
41.825042907, 96.390, 1216.0, 34.8712
41.851303473, 96.390, 1215.0, 34.8569
41.877564038, 96.390, 1163.0, 34.1028
41.903824603, 96.390, 1152.0, 33.9411
41.930085169, 96.390, 1103.0, 33.2114
41.956345734, 96.390, 1091.0, 33.0303
41.982606299, 96.390, 1085.0, 32.9393
42.008866865, 96.390, 1077.0, 32.8177
42.035127430, 96.390, 1179.0, 34.3366
42.061387995, 96.390, 1316.0, 36.2767
42.087648561, 96.390, 1390.0, 37.2827
42.113909126, 96.390, 1508.0, 38.8330
42.140169691, 96.390, 1639.0, 40.4846
42.166430257, 96.390, 1631.0, 40.3856
42.192690822, 96.390, 1547.0, 39.3319
42.218951388, 96.390, 1532.0, 39.1408
42.245211953, 96.390, 1447.0, 38.0395
42.271472518, 96.390, 1395.0, 37.3497
42.297733084, 96.390, 1344.0, 36.6606
42.323993649, 96.390, 1252.0, 35.3836
42.350254214, 96.390, 1231.0, 35.0856
42.376514780, 96.390, 1133.0, 33.6601
42.402775345, 96.390, 1093.0, 33.0606
42.429035910, 96.390, 1044.0, 32.3110
42.455296476, 96.390, 1102.0, 33.1964
42.481557041, 96.390, 1033.0, 32.1403
42.507817606, 96.390, 981.0, 31.3209
42.534078172, 96.390, 994.0, 31.5278
42.560338737, 96.390, 1012.0, 31.8119
42.586599302, 96.390, 1013.0, 31.8277
42.612859868, 96.390, 1003.0, 31.6702
42.639120433, 96.390, 1058.0, 32.5269
42.665380999, 96.390, 1094.0, 33.0757
42.691641564, 96.390, 1151.0, 33.9264
42.717902129, 96.390, 1162.0, 34.0881
42.744162695, 96.390, 1147.0, 33.8674
42.770423260, 96.390, 1064.0, 32.6190
42.796683825, 96.390, 1093.0, 33.0606
42.822944391, 96.390, 1066.0, 32.6497
42.849204956, 96.390, 1055.0, 32.4808
42.875465521, 96.390, 1067.0, 32.6650
42.901726087, 96.390, 1035.0, 32.1714
42.927986652, 96.390, 1030.0, 32.0936
42.954247217, 96.390, 1079.0, 32.8481
42.980507783, 96.390, 950.0, 30.8221
43.006768348, 96.390, 978.0, 31.2730
43.033028914, 96.390, 993.0, 31.5119
43.059289479, 96.390, 993.0, 31.5119
43.085550044, 96.390, 1028.0, 32.0624
43.111810610, 96.390, 1067.0, 32.6650
43.138071175, 96.390, 1191.0, 34.5109
43.164331740, 96.390, 1099.0, 33.1512
43.190592306, 96.390, 998.0, 31.5911
43.216852871, 96.390, 970.0, 31.1448
43.243113436, 96.390, 1010.0, 31.7805
43.269374002, 96.390, 1016.0, 31.8748
43.295634567, 96.390, 912.0, 30.1993
43.321895132, 96.390, 941.0, 30.6757
43.348155698, 96.390, 925.0, 30.4138
43.374416263, 96.390, 940.0, 30.6594
43.400676828, 96.390, 1024.0, 32.0000
43.426937394, 96.390, 1036.0, 32.1870
43.453197959, 96.390, 988.0, 31.4325
43.479458525, 96.390, 995.0, 31.5436
43.505719090, 96.390, 1029.0, 32.0780
43.531979655, 96.390, 1088.0, 32.9848
43.558240221, 96.390, 986.0, 31.4006
43.584500786, 96.390, 1030.0, 32.0936
43.610761351, 96.390, 1013.0, 31.8277
43.637021917, 96.390, 1103.0, 33.2114
43.663282482, 96.390, 1034.0, 32.1559
43.689543047, 96.390, 980.0, 31.3050
43.715803613, 96.390, 953.0, 30.8707
43.742064178, 96.390, 1043.0, 32.2955
43.768324743, 96.390, 930.0, 30.4959
43.794585309, 96.390, 990.0, 31.4643
43.820845874, 96.390, 978.0, 31.2730
43.847106440, 96.390, 1044.0, 32.3110
43.873367005, 96.390, 1053.0, 32.4500
43.899627570, 96.390, 1022.0, 31.9687
43.925888136, 96.390, 1022.0, 31.9687
43.952148701, 96.390, 1030.0, 32.0936
43.978409266, 96.390, 1004.0, 31.6860
44.004669832, 96.390, 1062.0, 32.5883
44.030930397, 96.390, 998.0, 31.5911
44.057190962, 96.390, 1096.0, 33.1059
44.083451528, 96.390, 1075.0, 32.7872
44.109712093, 96.390, 1146.0, 33.8526
44.135972658, 96.390, 1198.0, 34.6121
44.162233224, 96.390, 1228.0, 35.0428
44.188493789, 96.390, 1187.0, 34.4529
44.214754354, 96.390, 1256.0, 35.4401
44.241014920, 96.390, 1166.0, 34.1467
44.267275485, 96.390, 1231.0, 35.0856
44.293536051, 96.390, 1170.0, 34.2053
44.319796616, 96.390, 1155.0, 33.9853
44.346057181, 96.390, 1215.0, 34.8569
44.372317747, 96.390, 1158.0, 34.0294
44.398578312, 96.390, 1025.0, 32.0156
44.424838877, 96.390, 1062.0, 32.5883
44.451099443, 96.390, 1044.0, 32.3110
44.477360008, 96.390, 1007.0, 31.7333
44.503620573, 96.390, 991.0, 31.4802
44.529881139, 96.390, 1088.0, 32.9848
44.556141704, 96.390, 1071.0, 32.7261
44.582402269, 96.390, 1050.0, 32.4037
44.608662835, 96.390, 1080.0, 32.8634
44.634923400, 96.390, 1100.0, 33.1662
44.661183966, 96.390, 1021.0, 31.9531
44.687444531, 96.390, 1047.0, 32.3574
44.713705096, 96.390, 1041.0, 32.2645
44.739965662, 96.390, 1041.0, 32.2645
44.766226227, 96.390, 1082.0, 32.8938
44.792486792, 96.390, 1121.0, 33.4813
44.818747358, 96.390, 1035.0, 32.1714
44.845007923, 96.390, 1075.0, 32.7872
44.871268488, 96.390, 1045.0, 32.3265
44.897529054, 96.390, 957.0, 30.9354
44.923789619, 96.390, 1067.0, 32.6650
44.950050184, 96.390, 1045.0, 32.3265
44.976310750, 96.390, 1015.0, 31.8591
45.002571315, 96.390, 991.0, 31.4802
45.028831880, 96.390, 928.0, 30.4631
45.055092446, 96.390, 989.0, 31.4484
45.081353011, 96.390, 1004.0, 31.6860
45.107613577, 96.390, 1020.0, 31.9374
45.133874142, 96.390, 1056.0, 32.4962
45.160134707, 96.390, 1009.0, 31.7648
45.186395273, 96.390, 1074.0, 32.7719
45.212655838, 96.390, 1037.0, 32.2025
45.238916403, 96.390, 1008.0, 31.7490
45.265176969, 96.390, 1068.0, 32.6803
45.291437534, 96.390, 1025.0, 32.0156
45.317698099, 96.390, 984.0, 31.3688
45.343958665, 96.390, 974.0, 31.2090
45.370219230, 96.390, 1040.0, 32.2490
45.396479795, 96.390, 1014.0, 31.8434
45.422740361, 96.390, 1060.0, 32.5576
45.449000926, 96.390, 1021.0, 31.9531
45.475261492, 96.390, 1069.0, 32.6956
45.501522057, 96.390, 1045.0, 32.3265
45.527782622, 96.390, 1027.0, 32.0468
45.554043188, 96.390, 1097.0, 33.1210
45.580303753, 96.390, 1090.0, 33.0151
45.606564318, 96.390, 1104.0, 33.2265
45.632824884, 96.390, 1079.0, 32.8481
45.659085449, 96.390, 1020.0, 31.9374
45.685346014, 96.390, 1030.0, 32.0936
45.711606580, 96.390, 1116.0, 33.4066
45.737867145, 96.390, 1110.0, 33.3167
45.764127710, 96.390, 1116.0, 33.4066
45.790388276, 96.390, 1046.0, 32.3419
45.816648841, 96.390, 1117.0, 33.4215
45.842909406, 96.390, 1093.0, 33.0606
45.869169972, 96.390, 1070.0, 32.7109
45.895430537, 96.390, 1087.0, 32.9697
45.921691103, 96.390, 1038.0, 32.2180
45.947951668, 96.390, 1036.0, 32.1870
45.974212233, 96.390, 1101.0, 33.1813
46.000472799, 96.390, 1089.0, 33.0000
46.026733364, 96.390, 1056.0, 32.4962
46.052993929, 96.390, 1051.0, 32.4191
46.079254495, 96.390, 1099.0, 33.1512
46.105515060, 96.390, 1108.0, 33.2866
46.131775625, 96.390, 1222.0, 34.9571
46.158036191, 96.390, 1253.0, 35.3977
46.184296756, 96.390, 1327.0, 36.4280
46.210557321, 96.390, 1362.0, 36.9053
46.236817887, 96.390, 1370.0, 37.0135
46.263078452, 96.390, 1306.0, 36.1386
46.289339017, 96.390, 1248.0, 35.3270
46.315599583, 96.390, 1216.0, 34.8712
46.341860148, 96.390, 1204.0, 34.6987
46.368120714, 96.390, 1194.0, 34.5543
46.394381279, 96.390, 1121.0, 33.4813
46.420641844, 96.390, 1068.0, 32.6803
46.446902410, 96.390, 1112.0, 33.3467
46.473162975, 96.390, 1040.0, 32.2490
46.499423540, 96.390, 1071.0, 32.7261
46.525684106, 96.390, 1081.0, 32.8786
46.551944671, 96.390, 1033.0, 32.1403
46.578205236, 96.390, 1034.0, 32.1559
46.604465802, 96.390, 1029.0, 32.0780
46.630726367, 96.390, 1043.0, 32.2955
46.656986932, 96.390, 1080.0, 32.8634
46.683247498, 96.390, 1070.0, 32.7109
46.709508063, 96.390, 1155.0, 33.9853
46.735768629, 96.390, 1077.0, 32.8177
46.762029194, 96.390, 1070.0, 32.7109
46.788289759, 96.390, 1046.0, 32.3419
46.814550325, 96.390, 1045.0, 32.3265
46.840810890, 96.390, 1059.0, 32.5423
46.867071455, 96.390, 1036.0, 32.1870
46.893332021, 96.390, 1061.0, 32.5730
46.919592586, 96.390, 970.0, 31.1448
46.945853151, 96.390, 944.0, 30.7246
46.972113717, 96.390, 1011.0, 31.7962
46.998374282, 96.390, 960.0, 30.9839
47.024634847, 96.390, 973.0, 31.1929
47.050895413, 96.390, 961.0, 31.0000
47.077155978, 96.390, 995.0, 31.5436
47.103416543, 96.390, 1062.0, 32.5883
47.129677109, 96.390, 1022.0, 31.9687
47.155937674, 96.390, 982.0, 31.3369
47.182198240, 96.390, 1014.0, 31.8434
47.208458805, 96.390, 995.0, 31.5436
47.234719370, 96.390, 1054.0, 32.4654
47.260979936, 96.390, 1052.0, 32.4345
47.287240501, 96.390, 1074.0, 32.7719
47.313501066, 96.390, 1214.0, 34.8425
47.339761632, 96.390, 1179.0, 34.3366
47.366022197, 96.390, 1254.0, 35.4119
47.392282762, 96.390, 1203.0, 34.6843
47.418543328, 96.390, 1192.0, 34.5254
47.444803893, 96.390, 1198.0, 34.6121
47.471064458, 96.390, 1202.0, 34.6699
47.497325024, 96.390, 1212.0, 34.8138
47.523585589, 96.390, 1160.0, 34.0588
47.549846155, 96.390, 1091.0, 33.0303
47.576106720, 96.390, 1052.0, 32.4345
47.602367285, 96.390, 1034.0, 32.1559
47.628627851, 96.390, 1012.0, 31.8119
47.654888416, 96.390, 1062.0, 32.5883
47.681148981, 96.390, 1101.0, 33.1813
47.707409547, 96.390, 1046.0, 32.3419
47.733670112, 96.390, 1152.0, 33.9411
47.759930677, 96.390, 1164.0, 34.1174
47.786191243, 96.390, 1178.0, 34.3220
47.812451808, 96.390, 1139.0, 33.7491
47.838712373, 96.390, 1085.0, 32.9393
47.864972939, 96.390, 1095.0, 33.0908
47.891233504, 96.390, 1124.0, 33.5261
47.917494069, 96.390, 1080.0, 32.8634
47.943754635, 96.390, 1031.0, 32.1092
47.970015200, 96.390, 1057.0, 32.5115
47.996275766, 96.390, 1049.0, 32.3883
48.022536331, 96.390, 1029.0, 32.0780
48.048796896, 96.390, 1009.0, 31.7648
48.075057462, 96.390, 1052.0, 32.4345
48.101318027, 96.390, 1015.0, 31.8591
48.127578592, 96.390, 982.0, 31.3369
48.153839158, 96.390, 977.0, 31.2570
48.180099723, 96.390, 938.0, 30.6268
48.206360288, 96.390, 985.0, 31.3847
48.232620854, 96.390, 1010.0, 31.7805
48.258881419, 96.390, 973.0, 31.1929
48.285141984, 96.390, 947.0, 30.7734
48.311402550, 96.390, 1064.0, 32.6190
48.337663115, 96.390, 1048.0, 32.3728
48.363923681, 96.390, 1152.0, 33.9411
48.390184246, 96.390, 1140.0, 33.7639
48.416444811, 96.390, 1244.0, 35.2704
48.442705377, 96.390, 1281.0, 35.7911
48.468965942, 96.390, 1193.0, 34.5398
48.495226507, 96.390, 1195.0, 34.5688
48.521487073, 96.390, 1224.0, 34.9857
48.547747638, 96.390, 1182.0, 34.3802
48.574008203, 96.390, 1170.0, 34.2053
48.600268769, 96.390, 1040.0, 32.2490
48.626529334, 96.390, 1028.0, 32.0624
48.652789899, 96.390, 1046.0, 32.3419
48.679050465, 96.390, 955.0, 30.9031
48.705311030, 96.390, 938.0, 30.6268
48.731571595, 96.390, 957.0, 30.9354
48.757832161, 96.390, 932.0, 30.5287
48.784092726, 96.390, 925.0, 30.4138
48.810353292, 96.390, 1028.0, 32.0624
48.836613857, 96.390, 1017.0, 31.8904
48.862874422, 96.390, 958.0, 30.9516
48.889134988, 96.390, 938.0, 30.6268
48.915395553, 96.390, 952.0, 30.8545
48.941656118, 96.390, 971.0, 31.1609
48.967916684, 96.390, 1058.0, 32.5269
48.994177249, 96.390, 1019.0, 31.9218
49.020437814, 96.390, 1077.0, 32.8177
49.046698380, 96.390, 1042.0, 32.2800
49.072958945, 96.390, 1097.0, 33.1210
49.099219510, 96.390, 1092.0, 33.0454
49.125480076, 96.390, 1167.0, 34.1614
49.151740641, 96.390, 1019.0, 31.9218
49.178001207, 96.390, 1143.0, 33.8083
49.204261772, 96.390, 1128.0, 33.5857
49.230522337, 96.390, 1111.0, 33.3317
49.256782903, 96.390, 1029.0, 32.0780
49.283043468, 96.390, 937.0, 30.6105
49.309304033, 96.390, 992.0, 31.4960
49.335564599, 96.390, 903.0, 30.0500
49.361825164, 96.390, 972.0, 31.1769
49.388085729, 96.390, 942.0, 30.6920
49.414346295, 96.390, 848.0, 29.1204
49.440606860, 96.390, 875.0, 29.5804
49.466867425, 96.390, 883.0, 29.7153
49.493127991, 96.390, 874.0, 29.5635
49.519388556, 96.390, 867.0, 29.4449
49.545649121, 96.390, 898.0, 29.9666
49.571909687, 96.390, 973.0, 31.1929
49.598170252, 96.390, 920.0, 30.3315
49.624430818, 96.390, 934.0, 30.5614
49.650691383, 96.390, 1027.0, 32.0468
49.676951948, 96.390, 1023.0, 31.9844
49.703212514, 96.390, 957.0, 30.9354
49.729473079, 96.390, 941.0, 30.6757
49.755733644, 96.390, 1033.0, 32.1403
49.781994210, 96.390, 1016.0, 31.8748
49.808254775, 96.390, 1026.0, 32.0312
49.834515340, 96.390, 963.0, 31.0322
49.860775906, 96.390, 923.0, 30.3809
49.887036471, 96.390, 874.0, 29.5635
49.913297036, 96.390, 894.0, 29.8998
49.939557602, 96.390, 856.0, 29.2575
49.965818167, 96.390, 896.0, 29.9333
49.992078733, 96.390, 843.0, 29.0345
50.018339298, 96.390, 854.0, 29.2233
50.044599863, 96.390, 889.0, 29.8161
50.070860429, 96.390, 811.0, 28.4781
50.097120994, 96.390, 810.0, 28.4605
50.123381559, 96.390, 837.0, 28.9310
50.149642125, 96.390, 798.0, 28.2489
50.175902690, 96.390, 825.0, 28.7228
50.202163255, 96.390, 886.0, 29.7658
50.228423821, 96.390, 855.0, 29.2404
50.254684386, 96.390, 875.0, 29.5804
50.280944951, 96.390, 826.0, 28.7402
50.307205517, 96.390, 862.0, 29.3598
50.333466082, 96.390, 904.0, 30.0666
50.359726647, 96.390, 909.0, 30.1496
50.385987213, 96.390, 898.0, 29.9666
50.412247778, 96.390, 1006.0, 31.7175
50.438508344, 96.390, 1037.0, 32.2025
50.464768909, 96.390, 1153.0, 33.9559
50.491029474, 96.390, 1093.0, 33.0606
50.517290040, 96.390, 1092.0, 33.0454
50.543550605, 96.390, 1030.0, 32.0936
50.569811170, 96.390, 1012.0, 31.8119
50.596071736, 96.390, 1008.0, 31.7490
50.622332301, 96.390, 1036.0, 32.1870
50.648592866, 96.390, 958.0, 30.9516
50.674853432, 96.390, 965.0, 31.0644
50.701113997, 96.390, 971.0, 31.1609
50.727374562, 96.390, 943.0, 30.7083
50.753635128, 96.390, 933.0, 30.5450
50.779895693, 96.390, 951.0, 30.8383
50.806156258, 96.390, 968.0, 31.1127
50.832416824, 96.390, 934.0, 30.5614
50.858677389, 96.390, 927.0, 30.4467
50.884937955, 96.390, 932.0, 30.5287
50.911198520, 96.390, 920.0, 30.3315
50.937459085, 96.390, 850.0, 29.1548
50.963719651, 96.390, 974.0, 31.2090
50.989980216, 96.390, 917.0, 30.2820
51.016240781, 96.390, 975.0, 31.2250
51.042501347, 96.390, 1021.0, 31.9531
51.068761912, 96.390, 1022.0, 31.9687
51.095022477, 96.390, 1020.0, 31.9374
51.121283043, 96.390, 991.0, 31.4802
51.147543608, 96.390, 949.0, 30.8058
51.173804173, 96.390, 896.0, 29.9333
51.200064739, 96.390, 967.0, 31.0966
51.226325304, 96.390, 918.0, 30.2985
51.252585870, 96.390, 887.0, 29.7825
51.278846435, 96.390, 865.0, 29.4109
51.305107000, 96.390, 853.0, 29.2062
51.331367566, 96.390, 797.0, 28.2312
51.357628131, 96.390, 837.0, 28.9310
51.383888696, 96.390, 788.0, 28.0713
51.410149262, 96.390, 793.0, 28.1603
51.436409827, 96.390, 786.0, 28.0357
51.462670392, 96.390, 819.0, 28.6182
51.488930958, 96.390, 788.0, 28.0713
51.515191523, 96.390, 810.0, 28.4605
51.541452088, 96.390, 791.0, 28.1247
51.567712654, 96.390, 803.0, 28.3373
51.593973219, 96.390, 816.0, 28.5657
51.620233784, 96.390, 845.0, 29.0689
51.646494350, 96.390, 860.0, 29.3258
51.672754915, 96.390, 832.0, 28.8444
51.699015481, 96.390, 807.0, 28.4077
51.725276046, 96.390, 804.0, 28.3549
51.751536611, 96.390, 799.0, 28.2666
51.777797177, 96.390, 851.0, 29.1719
51.804057742, 96.390, 930.0, 30.4959
51.830318307, 96.390, 896.0, 29.9333
51.856578873, 96.390, 963.0, 31.0322
51.882839438, 96.390, 947.0, 30.7734
51.909100003, 96.390, 911.0, 30.1828
51.935360569, 96.390, 865.0, 29.4109
51.961621134, 96.390, 897.0, 29.9500
51.987881699, 96.390, 998.0, 31.5911
52.014142265, 96.390, 911.0, 30.1828
52.040402830, 96.390, 889.0, 29.8161
52.066663396, 96.390, 885.0, 29.7489
52.092923961, 96.390, 870.0, 29.4958
52.119184526, 96.390, 959.0, 30.9677
52.145445092, 96.390, 891.0, 29.8496
52.171705657, 96.390, 866.0, 29.4279
52.197966222, 96.390, 894.0, 29.8998
52.224226788, 96.390, 809.0, 28.4429
52.250487353, 96.390, 905.0, 30.0832
52.276747918, 96.390, 889.0, 29.8161
52.303008484, 96.390, 881.0, 29.6816
52.329269049, 96.390, 838.0, 28.9482
52.355529614, 96.390, 895.0, 29.9166
52.381790180, 96.390, 885.0, 29.7489
52.408050745, 96.390, 896.0, 29.9333
52.434311310, 96.390, 913.0, 30.2159
52.460571876, 96.390, 916.0, 30.2655
52.486832441, 96.390, 970.0, 31.1448
52.513093007, 96.390, 954.0, 30.8869
52.539353572, 96.390, 1050.0, 32.4037
52.565614137, 96.390, 1079.0, 32.8481
52.591874703, 96.390, 1060.0, 32.5576
52.618135268, 96.390, 1145.0, 33.8378
52.644395833, 96.390, 1121.0, 33.4813
52.670656399, 96.390, 1135.0, 33.6898
52.696916964, 96.390, 1104.0, 33.2265
52.723177529, 96.390, 1104.0, 33.2265
52.749438095, 96.390, 1166.0, 34.1467
52.775698660, 96.390, 1104.0, 33.2265
52.801959225, 96.390, 1129.0, 33.6006
52.828219791, 96.390, 1100.0, 33.1662
52.854480356, 96.390, 1157.0, 34.0147
52.880740922, 96.390, 1151.0, 33.9264
52.907001487, 96.390, 1151.0, 33.9264
52.933262052, 96.390, 1185.0, 34.4238
52.959522618, 96.390, 1182.0, 34.3802
52.985783183, 96.390, 1258.0, 35.4683
53.012043748, 96.390, 1301.0, 36.0694
53.038304314, 96.390, 1357.0, 36.8375
53.064564879, 96.390, 1396.0, 37.3631
53.090825444, 96.390, 1463.0, 38.2492
53.117086010, 96.390, 1480.0, 38.4708
53.143346575, 96.390, 1453.0, 38.1182
53.169607140, 96.390, 1534.0, 39.1663
53.195867706, 96.390, 1455.0, 38.1445
53.222128271, 96.390, 1380.0, 37.1484
53.248388836, 96.390, 1351.0, 36.7560
53.274649402, 96.390, 1313.0, 36.2353
53.300909967, 96.390, 1324.0, 36.3868
53.327170533, 96.390, 1280.0, 35.7771
53.353431098, 96.390, 1166.0, 34.1467
53.379691663, 96.390, 1166.0, 34.1467
53.405952229, 96.390, 1072.0, 32.7414
53.432212794, 96.390, 971.0, 31.1609
53.458473359, 96.390, 989.0, 31.4484
53.484733925, 96.390, 1007.0, 31.7333
53.510994490, 96.390, 961.0, 31.0000
53.537255055, 96.390, 884.0, 29.7321
53.563515621, 96.390, 949.0, 30.8058
53.589776186, 96.390, 906.0, 30.0998
53.616036751, 96.390, 866.0, 29.4279
53.642297317, 96.390, 855.0, 29.2404
53.668557882, 96.390, 805.0, 28.3725
53.694818448, 96.390, 803.0, 28.3373
53.721079013, 96.390, 770.0, 27.7489
53.747339578, 96.390, 817.0, 28.5832
53.773600144, 96.390, 870.0, 29.4958
53.799860709, 96.390, 841.0, 29.0000
53.826121274, 96.390, 870.0, 29.4958
53.852381840, 96.390, 943.0, 30.7083
53.878642405, 96.390, 1024.0, 32.0000
53.904902970, 96.390, 1032.0, 32.1248
53.931163536, 96.390, 1042.0, 32.2800
53.957424101, 96.390, 1043.0, 32.2955
53.983684666, 96.390, 981.0, 31.3209
54.009945232, 96.390, 984.0, 31.3688
54.036205797, 96.390, 999.0, 31.6070
54.062466362, 96.390, 958.0, 30.9516
54.088726928, 96.390, 913.0, 30.2159
54.114987493, 96.390, 916.0, 30.2655
54.141248059, 96.390, 855.0, 29.2404
54.167508624, 96.390, 847.0, 29.1033
54.193769189, 96.390, 891.0, 29.8496
54.220029755, 96.390, 948.0, 30.7896
54.246290320, 96.390, 940.0, 30.6594
54.272550885, 96.390, 916.0, 30.2655
54.298811451, 96.390, 954.0, 30.8869
54.325072016, 96.390, 1002.0, 31.6544
54.351332581, 96.390, 979.0, 31.2890
54.377593147, 96.390, 988.0, 31.4325
54.403853712, 96.390, 1019.0, 31.9218
54.430114277, 96.390, 945.0, 30.7409
54.456374843, 96.390, 887.0, 29.7825
54.482635408, 96.390, 885.0, 29.7489
54.508895973, 96.390, 832.0, 28.8444
54.535156539, 96.390, 783.0, 27.9821
54.561417104, 96.390, 797.0, 28.2312
54.587677670, 96.390, 722.0, 26.8701
54.613938235, 96.390, 670.0, 25.8844
54.640198800, 96.390, 743.0, 27.2580
54.666459366, 96.390, 698.0, 26.4197
54.692719931, 96.390, 780.0, 27.9285
54.718980496, 96.390, 721.0, 26.8514
54.745241062, 96.390, 672.0, 25.9230
54.771501627, 96.390, 738.0, 27.1662
54.797762192, 96.390, 745.0, 27.2947
54.824022758, 96.390, 721.0, 26.8514
54.850283323, 96.390, 697.0, 26.4008
54.876543888, 96.390, 757.0, 27.5136
54.902804454, 96.390, 710.0, 26.6458
54.929065019, 96.390, 678.0, 26.0384
54.955325585, 96.390, 693.0, 26.3249
54.981586150, 96.390, 722.0, 26.8701
55.007846715, 96.390, 679.0, 26.0576
55.034107281, 96.390, 676.0, 26.0000
55.060367846, 96.390, 691.0, 26.2869
55.086628411, 96.390, 669.0, 25.8650
55.112888977, 96.390, 687.0, 26.2107
55.139149542, 96.390, 678.0, 26.0384
55.165410107, 96.390, 662.0, 25.7294
55.191670673, 96.390, 629.0, 25.0799
55.217931238, 96.390, 672.0, 25.9230
55.244191803, 96.390, 654.0, 25.5734
55.270452369, 96.390, 767.0, 27.6948
55.296712934, 96.390, 738.0, 27.1662
55.322973499, 96.390, 694.0, 26.3439
55.349234065, 96.390, 798.0, 28.2489
55.375494630, 96.390, 784.0, 28.0000
55.401755196, 96.390, 793.0, 28.1603
55.428015761, 96.390, 767.0, 27.6948
55.454276326, 96.390, 721.0, 26.8514
55.480536892, 96.390, 726.0, 26.9444
55.506797457, 96.390, 764.0, 27.6405
55.533058022, 96.390, 716.0, 26.7582
55.559318588, 96.390, 668.0, 25.8457
55.585579153, 96.390, 696.0, 26.3818
55.611839718, 96.390, 638.0, 25.2587
55.638100284, 96.390, 695.0, 26.3629
55.664360849, 96.390, 706.0, 26.5707
55.690621414, 96.390, 654.0, 25.5734
55.716881980, 96.390, 715.0, 26.7395
55.743142545, 96.390, 680.0, 26.0768
55.769403111, 96.390, 713.0, 26.7021
55.795663676, 96.390, 683.0, 26.1343
55.821924241, 96.390, 726.0, 26.9444
55.848184807, 96.390, 774.0, 27.8209
55.874445372, 96.390, 753.0, 27.4408
55.900705937, 96.390, 756.0, 27.4955
55.926966503, 96.390, 759.0, 27.5500
55.953227068, 96.390, 705.0, 26.5518
55.979487633, 96.390, 763.0, 27.6225
56.005748199, 96.390, 788.0, 28.0713
56.032008764, 96.390, 804.0, 28.3549
56.058269329, 96.390, 824.0, 28.7054
56.084529895, 96.390, 800.0, 28.2843
56.110790460, 96.390, 786.0, 28.0357
56.137051025, 96.390, 829.0, 28.7924
56.163311591, 96.390, 824.0, 28.7054
56.189572156, 96.390, 806.0, 28.3901
56.215832722, 96.390, 831.0, 28.8271
56.242093287, 96.390, 776.0, 27.8568
56.268353852, 96.390, 773.0, 27.8029
56.294614418, 96.390, 775.0, 27.8388
56.320874983, 96.390, 741.0, 27.2213
56.347135548, 96.390, 687.0, 26.2107
56.373396114, 96.390, 658.0, 25.6515
56.399656679, 96.390, 738.0, 27.1662
56.425917244, 96.390, 745.0, 27.2947
56.452177810, 96.390, 771.0, 27.7669
56.478438375, 96.390, 787.0, 28.0535
56.504698940, 96.390, 828.0, 28.7750
56.530959506, 96.390, 809.0, 28.4429
56.557220071, 96.390, 802.0, 28.3196
56.583480637, 96.390, 688.0, 26.2298
56.609741202, 96.390, 725.0, 26.9258
56.636001767, 96.390, 798.0, 28.2489
56.662262333, 96.390, 741.0, 27.2213
56.688522898, 96.390, 733.0, 27.0740
56.714783463, 96.390, 682.0, 26.1151
56.741044029, 96.390, 666.0, 25.8070
56.767304594, 96.390, 689.0, 26.2488
56.793565159, 96.390, 603.0, 24.5561
56.819825725, 96.390, 670.0, 25.8844
56.846086290, 96.390, 666.0, 25.8070
56.872346855, 96.390, 679.0, 26.0576
56.898607421, 96.390, 670.0, 25.8844
56.924867986, 96.390, 667.0, 25.8263
56.951128551, 96.390, 645.0, 25.3969
56.977389117, 96.390, 632.0, 25.1396
57.003649682, 96.390, 693.0, 26.3249
57.029910248, 96.390, 655.0, 25.5930
57.056170813, 96.390, 725.0, 26.9258
57.082431378, 96.390, 687.0, 26.2107
57.108691944, 96.390, 750.0, 27.3861
57.134952509, 96.390, 745.0, 27.2947
57.161213074, 96.390, 838.0, 28.9482
57.187473640, 96.390, 791.0, 28.1247
57.213734205, 96.390, 815.0, 28.5482
57.239994770, 96.390, 827.0, 28.7576
57.266255336, 96.390, 857.0, 29.2746
57.292515901, 96.390, 778.0, 27.8927
57.318776466, 96.390, 827.0, 28.7576
57.345037032, 96.390, 831.0, 28.8271
57.371297597, 96.390, 870.0, 29.4958
57.397558163, 96.390, 783.0, 27.9821
57.423818728, 96.390, 813.0, 28.5132
57.450079293, 96.390, 796.0, 28.2135
57.476339859, 96.390, 763.0, 27.6225
57.502600424, 96.390, 789.0, 28.0891
57.528860989, 96.390, 823.0, 28.6880
57.555121555, 96.390, 898.0, 29.9666
57.581382120, 96.390, 836.0, 28.9137
57.607642685, 96.390, 891.0, 29.8496
57.633903251, 96.390, 815.0, 28.5482
57.660163816, 96.390, 799.0, 28.2666
57.686424381, 96.390, 852.0, 29.1890
57.712684947, 96.390, 779.0, 27.9106
57.738945512, 96.390, 826.0, 28.7402
57.765206077, 96.390, 802.0, 28.3196
57.791466643, 96.390, 779.0, 27.9106
57.817727208, 96.390, 762.0, 27.6043
57.843987774, 96.390, 755.0, 27.4773
57.870248339, 96.390, 725.0, 26.9258
57.896508904, 96.390, 758.0, 27.5318
57.922769470, 96.390, 732.0, 27.0555
57.949030035, 96.390, 670.0, 25.8844
57.975290600, 96.390, 720.0, 26.8328
58.001551166, 96.390, 739.0, 27.1846
58.027811731, 96.390, 718.0, 26.7955
58.054072296, 96.390, 783.0, 27.9821
58.080332862, 96.390, 732.0, 27.0555
58.106593427, 96.390, 728.0, 26.9815
58.132853992, 96.390, 674.0, 25.9615
58.159114558, 96.390, 694.0, 26.3439
58.185375123, 96.390, 704.0, 26.5330
58.211635689, 96.390, 680.0, 26.0768
58.237896254, 96.390, 671.0, 25.9037
58.264156819, 96.390, 659.0, 25.6710
58.290417385, 96.390, 652.0, 25.5343
58.316677950, 96.390, 682.0, 26.1151
58.342938515, 96.390, 668.0, 25.8457
58.369199081, 96.390, 658.0, 25.6515
58.395459646, 96.390, 710.0, 26.6458
58.421720211, 96.390, 708.0, 26.6083
58.447980777, 96.390, 713.0, 26.7021
58.474241342, 96.390, 702.0, 26.4953
58.500501907, 96.390, 700.0, 26.4575
58.526762473, 96.390, 682.0, 26.1151
58.553023038, 96.390, 757.0, 27.5136
58.579283603, 96.390, 757.0, 27.5136
58.605544169, 96.390, 760.0, 27.5681
58.631804734, 96.390, 788.0, 28.0713
58.658065300, 96.390, 819.0, 28.6182
58.684325865, 96.390, 802.0, 28.3196
58.710586430, 96.390, 741.0, 27.2213
58.736846996, 96.390, 784.0, 28.0000
58.763107561, 96.390, 739.0, 27.1846
58.789368126, 96.390, 735.0, 27.1109
58.815628692, 96.390, 721.0, 26.8514
58.841889257, 96.390, 729.0, 27.0000
58.868149822, 96.390, 706.0, 26.5707
58.894410388, 96.390, 718.0, 26.7955
58.920670953, 96.390, 735.0, 27.1109
58.946931518, 96.390, 744.0, 27.2764
58.973192084, 96.390, 730.0, 27.0185
58.999452649, 96.390, 707.0, 26.5895
59.025713214, 96.390, 748.0, 27.3496
59.051973780, 96.390, 791.0, 28.1247
59.078234345, 96.390, 727.0, 26.9629
59.104494911, 96.390, 732.0, 27.0555
59.130755476, 96.390, 767.0, 27.6948
59.157016041, 96.390, 692.0, 26.3059
59.183276607, 96.390, 748.0, 27.3496
59.209537172, 96.390, 758.0, 27.5318
59.235797737, 96.390, 741.0, 27.2213
59.262058303, 96.390, 778.0, 27.8927
59.288318868, 96.390, 774.0, 27.8209
59.314579433, 96.390, 748.0, 27.3496
59.340839999, 96.390, 761.0, 27.5862
59.367100564, 96.390, 726.0, 26.9444
59.393361129, 96.390, 735.0, 27.1109
59.419621695, 96.390, 742.0, 27.2397
59.445882260, 96.390, 745.0, 27.2947
59.472142826, 96.390, 738.0, 27.1662
59.498403391, 96.390, 747.0, 27.3313
59.524663956, 96.390, 738.0, 27.1662
59.550924522, 96.390, 693.0, 26.3249
59.577185087, 96.390, 690.0, 26.2679
59.603445652, 96.390, 704.0, 26.5330
59.629706218, 96.390, 668.0, 25.8457
59.655966783, 96.390, 674.0, 25.9615
59.682227348, 96.390, 659.0, 25.6710
59.708487914, 96.390, 679.0, 26.0576
59.734748479, 96.390, 687.0, 26.2107
59.761009044, 96.390, 688.0, 26.2298
59.787269610, 96.390, 660.0, 25.6905
59.813530175, 96.390, 674.0, 25.9615
59.839790740, 96.390, 679.0, 26.0576
59.866051306, 96.390, 667.0, 25.8263
59.892311871, 96.390, 692.0, 26.3059
59.918572437, 96.390, 699.0, 26.4386
59.944833002, 96.390, 641.0, 25.3180
59.971093567, 96.390, 684.0, 26.1534
59.997354133, 96.390, 695.0, 26.3629
60.023614698, 96.390, 716.0, 26.7582
60.049875263, 96.390, 649.0, 25.4755
60.076135829, 96.390, 727.0, 26.9629
60.102396394, 96.390, 735.0, 27.1109
60.128656959, 96.390, 699.0, 26.4386
60.154917525, 96.390, 741.0, 27.2213
60.181178090, 96.390, 793.0, 28.1603
60.207438655, 96.390, 768.0, 27.7128
60.233699221, 96.390, 791.0, 28.1247
60.259959786, 96.390, 794.0, 28.1780
60.286220352, 96.390, 755.0, 27.4773
60.312480917, 96.390, 730.0, 27.0185
60.338741482, 96.390, 752.0, 27.4226
60.365002048, 96.390, 833.0, 28.8617
60.391262613, 96.390, 809.0, 28.4429
60.417523178, 96.390, 851.0, 29.1719
60.443783744, 96.390, 856.0, 29.2575
60.470044309, 96.390, 911.0, 30.1828
60.496304874, 96.390, 932.0, 30.5287
60.522565440, 96.390, 911.0, 30.1828
60.548826005, 96.390, 972.0, 31.1769
60.575086570, 96.390, 894.0, 29.8998
60.601347136, 96.390, 962.0, 31.0161
60.627607701, 96.390, 1079.0, 32.8481
60.653868266, 96.390, 1019.0, 31.9218
60.680128832, 96.390, 1071.0, 32.7261
60.706389397, 96.390, 1139.0, 33.7491
60.732649963, 96.390, 1107.0, 33.2716
60.758910528, 96.390, 1196.0, 34.5832
60.785171093, 96.390, 1163.0, 34.1028
60.811431659, 96.390, 1188.0, 34.4674
60.837692224, 96.390, 1214.0, 34.8425
60.863952789, 96.390, 1157.0, 34.0147
60.890213355, 96.390, 1271.0, 35.6511
60.916473920, 96.390, 1182.0, 34.3802
60.942734485, 96.390, 1193.0, 34.5398
60.968995051, 96.390, 1213.0, 34.8281
60.995255616, 96.390, 1230.0, 35.0714
61.021516181, 96.390, 1159.0, 34.0441
61.047776747, 96.390, 1179.0, 34.3366
61.074037312, 96.390, 1266.0, 35.5809
61.100297878, 96.390, 1166.0, 34.1467
61.126558443, 96.390, 1182.0, 34.3802
61.152819008, 96.390, 1134.0, 33.6749
61.179079574, 96.390, 1187.0, 34.4529
61.205340139, 96.390, 1101.0, 33.1813
61.231600704, 96.390, 1069.0, 32.6956
61.257861270, 96.390, 1119.0, 33.4515
61.284121835, 96.390, 1014.0, 31.8434
61.310382400, 96.390, 1020.0, 31.9374
61.336642966, 96.390, 986.0, 31.4006
61.362903531, 96.390, 969.0, 31.1288
61.389164096, 96.390, 957.0, 30.9354
61.415424662, 96.390, 948.0, 30.7896
61.441685227, 96.390, 886.0, 29.7658
61.467945792, 96.390, 938.0, 30.6268
61.494206358, 96.390, 957.0, 30.9354
61.520466923, 96.390, 921.0, 30.3480
61.546727489, 96.390, 951.0, 30.8383
61.572988054, 96.390, 979.0, 31.2890
61.599248619, 96.390, 895.0, 29.9166
61.625509185, 96.390, 918.0, 30.2985
61.651769750, 96.390, 866.0, 29.4279
61.678030315, 96.390, 862.0, 29.3598
61.704290881, 96.390, 918.0, 30.2985
61.730551446, 96.390, 917.0, 30.2820
61.756812011, 96.390, 930.0, 30.4959
61.783072577, 96.390, 896.0, 29.9333
61.809333142, 96.390, 850.0, 29.1548
61.835593707, 96.390, 865.0, 29.4109
61.861854273, 96.390, 864.0, 29.3939
61.888114838, 96.390, 867.0, 29.4449
61.914375404, 96.390, 892.0, 29.8664
61.940635969, 96.390, 915.0, 30.2490
61.966896534, 96.390, 873.0, 29.5466
61.993157100, 96.390, 897.0, 29.9500
62.019417665, 96.390, 919.0, 30.3150
62.045678230, 96.390, 881.0, 29.6816
62.071938796, 96.390, 919.0, 30.3150
62.098199361, 96.390, 903.0, 30.0500
62.124459926, 96.390, 964.0, 31.0483
62.150720492, 96.390, 860.0, 29.3258
62.176981057, 96.390, 938.0, 30.6268
62.203241622, 96.390, 899.0, 29.9833
62.229502188, 96.390, 983.0, 31.3528
62.255762753, 96.390, 896.0, 29.9333
62.282023318, 96.390, 974.0, 31.2090
62.308283884, 96.390, 976.0, 31.2410
62.334544449, 96.390, 967.0, 31.0966
62.360805015, 96.390, 937.0, 30.6105
62.387065580, 96.390, 915.0, 30.2490
62.413326145, 96.390, 914.0, 30.2324
62.439586711, 96.390, 907.0, 30.1164
62.465847276, 96.390, 897.0, 29.9500
62.492107841, 96.390, 847.0, 29.1033
62.518368407, 96.390, 829.0, 28.7924
62.544628972, 96.390, 810.0, 28.4605
62.570889537, 96.390, 758.0, 27.5318
62.597150103, 96.390, 789.0, 28.0891
62.623410668, 96.390, 780.0, 27.9285
62.649671233, 96.390, 778.0, 27.8927
62.675931799, 96.390, 731.0, 27.0370
62.702192364, 96.390, 763.0, 27.6225
62.728452930, 96.390, 745.0, 27.2947
62.754713495, 96.390, 773.0, 27.8029
62.780974060, 96.390, 839.0, 28.9655
62.807234626, 96.390, 739.0, 27.1846
62.833495191, 96.390, 750.0, 27.3861
62.859755756, 96.390, 740.0, 27.2029
62.886016322, 96.390, 705.0, 26.5518
62.912276887, 96.390, 711.0, 26.6646
62.938537452, 96.390, 666.0, 25.8070
62.964798018, 96.390, 707.0, 26.5895
62.991058583, 96.390, 692.0, 26.3059
63.017319148, 96.390, 645.0, 25.3969
63.043579714, 96.390, 630.0, 25.0998
63.069840279, 96.390, 653.0, 25.5539
63.096100844, 96.390, 633.0, 25.1595
63.122361410, 96.390, 595.0, 24.3926
63.148621975, 96.390, 580.0, 24.0832
63.174882541, 96.390, 601.0, 24.5153
63.201143106, 96.390, 663.0, 25.7488
63.227403671, 96.390, 621.0, 24.9199
63.253664237, 96.390, 616.0, 24.8193
63.279924802, 96.390, 574.0, 23.9583
63.306185367, 96.390, 645.0, 25.3969
63.332445933, 96.390, 650.0, 25.4951
63.358706498, 96.390, 649.0, 25.4755
63.384967063, 96.390, 635.0, 25.1992
63.411227629, 96.390, 621.0, 24.9199
63.437488194, 96.390, 617.0, 24.8395
63.463748759, 96.390, 628.0, 25.0599
63.490009325, 96.390, 635.0, 25.1992
63.516269890, 96.390, 639.0, 25.2784
63.542530455, 96.390, 665.0, 25.7876
63.568791021, 96.390, 728.0, 26.9815
63.595051586, 96.390, 692.0, 26.3059
63.621312152, 96.390, 732.0, 27.0555
63.647572717, 96.390, 707.0, 26.5895
63.673833282, 96.390, 796.0, 28.2135
63.700093848, 96.390, 821.0, 28.6531
63.726354413, 96.390, 836.0, 28.9137
63.752614978, 96.390, 964.0, 31.0483
63.778875544, 96.390, 902.0, 30.0333
63.805136109, 96.390, 964.0, 31.0483
63.831396674, 96.390, 933.0, 30.5450
63.857657240, 96.390, 899.0, 29.9833
63.883917805, 96.390, 849.0, 29.1376
63.910178370, 96.390, 856.0, 29.2575
63.936438936, 96.390, 858.0, 29.2916
63.962699501, 96.390, 800.0, 28.2843
63.988960067, 96.390, 797.0, 28.2312
64.015220632, 96.390, 791.0, 28.1247
64.041481197, 96.390, 750.0, 27.3861
64.067741763, 96.390, 747.0, 27.3313
64.094002328, 96.390, 764.0, 27.6405
64.120262893, 96.390, 738.0, 27.1662
64.146523459, 96.390, 722.0, 26.8701
64.172784024, 96.390, 726.0, 26.9444
64.199044589, 96.390, 752.0, 27.4226
64.225305155, 96.390, 750.0, 27.3861
64.251565720, 96.390, 784.0, 28.0000
64.277826285, 96.390, 824.0, 28.7054
64.304086851, 96.390, 770.0, 27.7489
64.330347416, 96.390, 797.0, 28.2312
64.356607981, 96.390, 748.0, 27.3496
64.382868547, 96.390, 789.0, 28.0891
64.409129112, 96.390, 723.0, 26.8887
64.435389678, 96.390, 704.0, 26.5330
64.461650243, 96.390, 766.0, 27.6767
64.487910808, 96.390, 711.0, 26.6646
64.514171374, 96.390, 667.0, 25.8263
64.540431939, 96.390, 693.0, 26.3249
64.566692504, 96.390, 659.0, 25.6710
64.592953070, 96.390, 629.0, 25.0799
64.619213635, 96.390, 632.0, 25.1396
64.645474200, 96.390, 606.0, 24.6171
64.671734766, 96.390, 639.0, 25.2784
64.697995331, 96.390, 645.0, 25.3969
64.724255896, 96.390, 597.0, 24.4336
64.750516462, 96.390, 581.0, 24.1039
64.776777027, 96.390, 572.0, 23.9165
64.803037593, 96.390, 592.0, 24.3311
64.829298158, 96.390, 549.0, 23.4307
64.855558723, 96.390, 571.0, 23.8956
64.881819289, 96.390, 587.0, 24.2281
64.908079854, 96.390, 542.0, 23.2809
64.934340419, 96.390, 540.0, 23.2379
64.960600985, 96.390, 587.0, 24.2281
64.986861550, 96.390, 533.0, 23.0868
