[Measurement conditions]
Sample identification,31_MgAxial12Nov21_Act07Jan22_B2_0714M_NaOH_LS0173_SolventExchange
Comment - 1,"Configuration=Stage for Flat Samples/Holders, Owner=User-1, Creation date=7/1/2020 9:53:24 AM"
Comment - 2,"Goniometer=Theta/Theta; Minimum step size 2Theta:0.0001; Minimum step size Omega:0.0001"
Comment - 3,"Sample stage=Stage for flat samples/holders"
Comment - 4,"Diffractometer system=EMPYREAN"
Comment - 5,"Measurement program=C:\Users\tmr79\OneDrive - The Pennsylvania State University\Documents\NEUP\XRD\Cement\Zerobackground scan.xrdmp, Identifier={98A3B11C-88F9-4AA6-982C-73314A311EF5}"
Anode material,Cu
K-Alpha1 wavelength,1.5405980
K-Alpha2 wavelength,1.5444260
Ratio K-Alpha2/K-Alpha1,0.500
Divergence slit,Fixed,0.25
Monochromator used,NO
Generator voltage, 45
Tube current, 40
File date and time,25/Apr/2023 15:44
Unit cell,
h k l, 0 0 0
Scan axis,Gonio
Scan range,4.994599997,64.999991833
Scan step size,0.0262606
No. of points, 2285
Scan type,CONTINUOUS
Time per step,96.390
[Scan points]
Angle, TimePerStep, Intensity, ESD
5.007730280, 96.390, 4132.0, 64.2806
5.033990845, 96.390, 4230.0, 65.0385
5.060251411, 96.390, 4166.0, 64.5446
5.086511976, 96.390, 4099.0, 64.0234
5.112772541, 96.390, 4123.0, 64.2106
5.139033107, 96.390, 4061.0, 63.7260
5.165293672, 96.390, 4047.0, 63.6160
5.191554237, 96.390, 4156.0, 64.4670
5.217814803, 96.390, 4175.0, 64.6142
5.244075368, 96.390, 4042.0, 63.5767
5.270335934, 96.390, 4030.0, 63.4823
5.296596499, 96.390, 4105.0, 64.0703
5.322857064, 96.390, 3947.0, 62.8252
5.349117630, 96.390, 4087.0, 63.9296
5.375378195, 96.390, 3995.0, 63.2060
5.401638760, 96.390, 3931.0, 62.6977
5.427899326, 96.390, 3926.0, 62.6578
5.454159891, 96.390, 4079.0, 63.8670
5.480420456, 96.390, 4001.0, 63.2535
5.506681022, 96.390, 3843.0, 61.9919
5.532941587, 96.390, 3866.0, 62.1772
5.559202152, 96.390, 3993.0, 63.1902
5.585462718, 96.390, 3881.0, 62.2977
5.611723283, 96.390, 3878.0, 62.2736
5.637983849, 96.390, 3852.0, 62.0645
5.664244414, 96.390, 3862.0, 62.1450
5.690504979, 96.390, 3886.0, 62.3378
5.716765545, 96.390, 3874.0, 62.2415
5.743026110, 96.390, 3836.0, 61.9355
5.769286675, 96.390, 3834.0, 61.9193
5.795547241, 96.390, 3799.0, 61.6360
5.821807806, 96.390, 3752.0, 61.2536
5.848068371, 96.390, 3825.0, 61.8466
5.874328937, 96.390, 3725.0, 61.0328
5.900589502, 96.390, 3731.0, 61.0819
5.926850067, 96.390, 3785.0, 61.5224
5.953110633, 96.390, 3758.0, 61.3025
5.979371198, 96.390, 3764.0, 61.3514
6.005631763, 96.390, 3661.0, 60.5062
6.031892329, 96.390, 3755.0, 61.2781
6.058152894, 96.390, 3732.0, 61.0901
6.084413460, 96.390, 3652.0, 60.4318
6.110674025, 96.390, 3697.0, 60.8030
6.136934590, 96.390, 3631.0, 60.2578
6.163195156, 96.390, 3607.0, 60.0583
6.189455721, 96.390, 3821.0, 61.8142
6.215716286, 96.390, 3638.0, 60.3158
6.241976852, 96.390, 3669.0, 60.5723
6.268237417, 96.390, 3773.0, 61.4248
6.294497982, 96.390, 3652.0, 60.4318
6.320758548, 96.390, 3690.0, 60.7454
6.347019113, 96.390, 3600.0, 60.0000
6.373279678, 96.390, 3634.0, 60.2827
6.399540244, 96.390, 3614.0, 60.1166
6.425800809, 96.390, 3559.0, 59.6574
6.452061375, 96.390, 3516.0, 59.2959
6.478321940, 96.390, 3654.0, 60.4483
6.504582505, 96.390, 3605.0, 60.0417
6.530843071, 96.390, 3437.0, 58.6259
6.557103636, 96.390, 3623.0, 60.1914
6.583364201, 96.390, 3561.0, 59.6741
6.609624767, 96.390, 3638.0, 60.3158
6.635885332, 96.390, 3508.0, 59.2284
6.662145897, 96.390, 3508.0, 59.2284
6.688406463, 96.390, 3489.0, 59.0678
6.714667028, 96.390, 3405.0, 58.3524
6.740927593, 96.390, 3523.0, 59.3549
6.767188159, 96.390, 3418.0, 58.4637
6.793448724, 96.390, 3439.0, 58.6430
6.819709289, 96.390, 3361.0, 57.9741
6.845969855, 96.390, 3441.0, 58.6600
6.872230420, 96.390, 3405.0, 58.3524
6.898490986, 96.390, 3423.0, 58.5064
6.924751551, 96.390, 3333.0, 57.7321
6.951012116, 96.390, 3390.0, 58.2237
6.977272682, 96.390, 3445.0, 58.6941
7.003533247, 96.390, 3310.0, 57.5326
7.029793812, 96.390, 3308.0, 57.5152
7.056054378, 96.390, 3399.0, 58.3009
7.082314943, 96.390, 3291.0, 57.3672
7.108575508, 96.390, 3377.0, 58.1120
7.134836074, 96.390, 3255.0, 57.0526
7.161096639, 96.390, 3200.0, 56.5685
7.187357204, 96.390, 3344.0, 57.8273
7.213617770, 96.390, 3322.0, 57.6368
7.239878335, 96.390, 3133.0, 55.9732
7.266138900, 96.390, 3299.0, 57.4369
7.292399466, 96.390, 3241.0, 56.9298
7.318660031, 96.390, 3183.0, 56.4181
7.344920597, 96.390, 3313.0, 57.5587
7.371181162, 96.390, 3121.0, 55.8659
7.397441727, 96.390, 3280.0, 57.2713
7.423702293, 96.390, 3204.0, 56.6039
7.449962858, 96.390, 3159.0, 56.2050
7.476223423, 96.390, 3198.0, 56.5509
7.502483989, 96.390, 3046.0, 55.1906
7.528744554, 96.390, 3075.0, 55.4527
7.555005119, 96.390, 3076.0, 55.4617
7.581265685, 96.390, 3184.0, 56.4269
7.607526250, 96.390, 3116.0, 55.8211
7.633786815, 96.390, 3098.0, 55.6597
7.660047381, 96.390, 3144.0, 56.0714
7.686307946, 96.390, 3099.0, 55.6687
7.712568512, 96.390, 3113.0, 55.7943
7.738829077, 96.390, 3056.0, 55.2811
7.765089642, 96.390, 3100.0, 55.6776
7.791350208, 96.390, 3112.0, 55.7853
7.817610773, 96.390, 3145.0, 56.0803
7.843871338, 96.390, 3010.0, 54.8635
7.870131904, 96.390, 3038.0, 55.1181
7.896392469, 96.390, 3002.0, 54.7905
7.922653034, 96.390, 2973.0, 54.5252
7.948913600, 96.390, 2970.0, 54.4977
7.975174165, 96.390, 2961.0, 54.4151
8.001434730, 96.390, 2989.0, 54.6717
8.027695296, 96.390, 3104.0, 55.7136
8.053955861, 96.390, 3140.0, 56.0357
8.080216426, 96.390, 2974.0, 54.5344
8.106476992, 96.390, 2997.0, 54.7449
8.132737557, 96.390, 3011.0, 54.8726
8.158998123, 96.390, 2981.0, 54.5985
8.185258688, 96.390, 2987.0, 54.6535
8.211519253, 96.390, 2904.0, 53.8888
8.237779819, 96.390, 3018.0, 54.9363
8.264040384, 96.390, 2975.0, 54.5436
8.290300949, 96.390, 3006.0, 54.8270
8.316561515, 96.390, 2978.0, 54.5711
8.342822080, 96.390, 2914.0, 53.9815
8.369082645, 96.390, 2923.0, 54.0648
8.395343211, 96.390, 2979.0, 54.5802
8.421603776, 96.390, 2928.0, 54.1110
8.447864341, 96.390, 3040.0, 55.1362
8.474124907, 96.390, 2982.0, 54.6077
8.500385472, 96.390, 2899.0, 53.8424
8.526646038, 96.390, 2901.0, 53.8609
8.552906603, 96.390, 2884.0, 53.7029
8.579167168, 96.390, 2843.0, 53.3198
8.605427734, 96.390, 2859.0, 53.4696
8.631688299, 96.390, 2980.0, 54.5894
8.657948864, 96.390, 2927.0, 54.1018
8.684209430, 96.390, 2903.0, 53.8795
8.710469995, 96.390, 2926.0, 54.0925
8.736730560, 96.390, 2957.0, 54.3783
8.762991126, 96.390, 2953.0, 54.3415
8.789251691, 96.390, 2845.0, 53.3385
8.815512256, 96.390, 2888.0, 53.7401
8.841772822, 96.390, 2869.0, 53.5630
8.868033387, 96.390, 2838.0, 53.2729
8.894293952, 96.390, 2842.0, 53.3104
8.920554518, 96.390, 2869.0, 53.5630
8.946815083, 96.390, 2895.0, 53.8052
8.973075649, 96.390, 2789.0, 52.8110
8.999336214, 96.390, 2837.0, 53.2635
9.025596779, 96.390, 2927.0, 54.1018
9.051857345, 96.390, 2940.0, 54.2218
9.078117910, 96.390, 2936.0, 54.1849
9.104378475, 96.390, 2922.0, 54.0555
9.130639041, 96.390, 2853.0, 53.4135
9.156899606, 96.390, 2874.0, 53.6097
9.183160171, 96.390, 2942.0, 54.2402
9.209420737, 96.390, 2885.0, 53.7122
9.235681302, 96.390, 2882.0, 53.6843
9.261941867, 96.390, 2970.0, 54.4977
9.288202433, 96.390, 2974.0, 54.5344
9.314462998, 96.390, 2807.0, 52.9811
9.340723564, 96.390, 2988.0, 54.6626
9.366984129, 96.390, 2953.0, 54.3415
9.393244694, 96.390, 3015.0, 54.9090
9.419505260, 96.390, 3018.0, 54.9363
9.445765825, 96.390, 3017.0, 54.9272
9.472026390, 96.390, 2974.0, 54.5344
9.498286956, 96.390, 2949.0, 54.3047
9.524547521, 96.390, 3093.0, 55.6147
9.550808086, 96.390, 3006.0, 54.8270
9.577068652, 96.390, 2997.0, 54.7449
9.603329217, 96.390, 2899.0, 53.8424
9.629589782, 96.390, 3066.0, 55.3715
9.655850348, 96.390, 3043.0, 55.1634
9.682110913, 96.390, 2940.0, 54.2218
9.708371478, 96.390, 3064.0, 55.3534
9.734632044, 96.390, 3052.0, 55.2449
9.760892609, 96.390, 3030.0, 55.0454
9.787153175, 96.390, 3130.0, 55.9464
9.813413740, 96.390, 2916.0, 54.0000
9.839674305, 96.390, 3113.0, 55.7943
9.865934871, 96.390, 3052.0, 55.2449
9.892195436, 96.390, 3112.0, 55.7853
9.918456001, 96.390, 3154.0, 56.1605
9.944716567, 96.390, 3143.0, 56.0625
9.970977132, 96.390, 3231.0, 56.8419
9.997237697, 96.390, 3232.0, 56.8507
10.023498263, 96.390, 3061.0, 55.3263
10.049758828, 96.390, 3107.0, 55.7405
10.076019393, 96.390, 3038.0, 55.1181
10.102279959, 96.390, 3101.0, 55.6866
10.128540524, 96.390, 3188.0, 56.4624
10.154801090, 96.390, 3315.0, 57.5760
10.181061655, 96.390, 3272.0, 57.2014
10.207322220, 96.390, 3169.0, 56.2939
10.233582786, 96.390, 3332.0, 57.7235
10.259843351, 96.390, 3216.0, 56.7098
10.286103916, 96.390, 3348.0, 57.8619
10.312364482, 96.390, 3239.0, 56.9122
10.338625047, 96.390, 3258.0, 57.0789
10.364885612, 96.390, 3349.0, 57.8705
10.391146178, 96.390, 3353.0, 57.9051
10.417406743, 96.390, 3310.0, 57.5326
10.443667308, 96.390, 3283.0, 57.2975
10.469927874, 96.390, 3410.0, 58.3952
10.496188439, 96.390, 3402.0, 58.3267
10.522449004, 96.390, 3548.0, 59.5651
10.548709570, 96.390, 3279.0, 57.2626
10.574970135, 96.390, 3434.0, 58.6003
10.601230701, 96.390, 3487.0, 59.0508
10.627491266, 96.390, 3523.0, 59.3549
10.653751831, 96.390, 3493.0, 59.1016
10.680012397, 96.390, 3423.0, 58.5064
10.706272962, 96.390, 3495.0, 59.1185
10.732533527, 96.390, 3565.0, 59.7076
10.758794093, 96.390, 3537.0, 59.4727
10.785054658, 96.390, 3535.0, 59.4559
10.811315223, 96.390, 3606.0, 60.0500
10.837575789, 96.390, 3644.0, 60.3656
10.863836354, 96.390, 3533.0, 59.4390
10.890096919, 96.390, 3602.0, 60.0167
10.916357485, 96.390, 3596.0, 59.9667
10.942618050, 96.390, 3664.0, 60.5310
10.968878616, 96.390, 3649.0, 60.4070
10.995139181, 96.390, 3652.0, 60.4318
11.021399746, 96.390, 3688.0, 60.7289
11.047660312, 96.390, 3641.0, 60.3407
11.073920877, 96.390, 3696.0, 60.7947
11.100181442, 96.390, 3707.0, 60.8851
11.126442008, 96.390, 3633.0, 60.2744
11.152702573, 96.390, 3657.0, 60.4731
11.178963138, 96.390, 3693.0, 60.7701
11.205223704, 96.390, 3651.0, 60.4235
11.231484269, 96.390, 3708.0, 60.8933
11.257744834, 96.390, 3731.0, 61.0819
11.284005400, 96.390, 3719.0, 60.9836
11.310265965, 96.390, 3643.0, 60.3573
11.336526530, 96.390, 3671.0, 60.5888
11.362787096, 96.390, 3645.0, 60.3738
11.389047661, 96.390, 3680.0, 60.6630
11.415308227, 96.390, 3597.0, 59.9750
11.441568792, 96.390, 3702.0, 60.8441
11.467829357, 96.390, 3513.0, 59.2706
11.494089923, 96.390, 3563.0, 59.6909
11.520350488, 96.390, 3556.0, 59.6322
11.546611053, 96.390, 3544.0, 59.5315
11.572871619, 96.390, 3543.0, 59.5231
11.599132184, 96.390, 3583.0, 59.8582
11.625392749, 96.390, 3481.0, 59.0000
11.651653315, 96.390, 3588.0, 59.8999
11.677913880, 96.390, 3475.0, 58.9491
11.704174445, 96.390, 3390.0, 58.2237
11.730435011, 96.390, 3477.0, 58.9661
11.756695576, 96.390, 3373.0, 58.0775
11.782956141, 96.390, 3322.0, 57.6368
11.809216707, 96.390, 3275.0, 57.2276
11.835477272, 96.390, 3388.0, 58.2065
11.861737838, 96.390, 3344.0, 57.8273
11.887998403, 96.390, 3303.0, 57.4717
11.914258968, 96.390, 3340.0, 57.7927
11.940519534, 96.390, 3261.0, 57.1052
11.966780099, 96.390, 3221.0, 56.7539
11.993040664, 96.390, 3222.0, 56.7627
12.019301230, 96.390, 3138.0, 56.0179
12.045561795, 96.390, 3267.0, 57.1577
12.071822360, 96.390, 3159.0, 56.2050
12.098082926, 96.390, 3101.0, 55.6866
12.124343491, 96.390, 3130.0, 55.9464
12.150604056, 96.390, 2975.0, 54.5436
12.176864622, 96.390, 2919.0, 54.0278
12.203125187, 96.390, 3060.0, 55.3173
12.229385753, 96.390, 3093.0, 55.6147
12.255646318, 96.390, 2932.0, 54.1479
12.281906883, 96.390, 2860.0, 53.4790
12.308167449, 96.390, 2898.0, 53.8331
12.334428014, 96.390, 2876.0, 53.6284
12.360688579, 96.390, 2860.0, 53.4790
12.386949145, 96.390, 2905.0, 53.8981
12.413209710, 96.390, 2796.0, 52.8772
12.439470275, 96.390, 2756.0, 52.4976
12.465730841, 96.390, 2798.0, 52.8961
12.491991406, 96.390, 2707.0, 52.0288
12.518251971, 96.390, 2705.0, 52.0096
12.544512537, 96.390, 2707.0, 52.0288
12.570773102, 96.390, 2623.0, 51.2152
12.597033667, 96.390, 2608.0, 51.0686
12.623294233, 96.390, 2675.0, 51.7204
12.649554798, 96.390, 2580.0, 50.7937
12.675815364, 96.390, 2561.0, 50.6063
12.702075929, 96.390, 2520.0, 50.1996
12.728336494, 96.390, 2537.0, 50.3686
12.754597060, 96.390, 2509.0, 50.0899
12.780857625, 96.390, 2532.0, 50.3190
12.807118190, 96.390, 2442.0, 49.4166
12.833378756, 96.390, 2498.0, 49.9800
12.859639321, 96.390, 2447.0, 49.4672
12.885899886, 96.390, 2379.0, 48.7750
12.912160452, 96.390, 2434.0, 49.3356
12.938421017, 96.390, 2453.0, 49.5278
12.964681582, 96.390, 2403.0, 49.0204
12.990942148, 96.390, 2386.0, 48.8467
13.017202713, 96.390, 2468.0, 49.6790
13.043463279, 96.390, 2361.0, 48.5901
13.069723844, 96.390, 2351.0, 48.4871
13.095984409, 96.390, 2348.0, 48.4562
13.122244975, 96.390, 2346.0, 48.4355
13.148505540, 96.390, 2173.0, 46.6154
13.174766105, 96.390, 2270.0, 47.6445
13.201026671, 96.390, 2341.0, 48.3839
13.227287236, 96.390, 2255.0, 47.4868
13.253547801, 96.390, 2246.0, 47.3920
13.279808367, 96.390, 2321.0, 48.1768
13.306068932, 96.390, 2194.0, 46.8402
13.332329497, 96.390, 2287.0, 47.8226
13.358590063, 96.390, 2143.0, 46.2925
13.384850628, 96.390, 2152.0, 46.3897
13.411111193, 96.390, 2196.0, 46.8615
13.437371759, 96.390, 2148.0, 46.3465
13.463632324, 96.390, 2135.0, 46.2061
13.489892890, 96.390, 2152.0, 46.3897
13.516153455, 96.390, 2154.0, 46.4112
13.542414020, 96.390, 2081.0, 45.6180
13.568674586, 96.390, 2109.0, 45.9239
13.594935151, 96.390, 2224.0, 47.1593
13.621195716, 96.390, 2075.0, 45.5522
13.647456282, 96.390, 2036.0, 45.1221
13.673716847, 96.390, 2024.0, 44.9889
13.699977412, 96.390, 2171.0, 46.5940
13.726237978, 96.390, 2037.0, 45.1331
13.752498543, 96.390, 2052.0, 45.2990
13.778759108, 96.390, 2118.0, 46.0217
13.805019674, 96.390, 1947.0, 44.1248
13.831280239, 96.390, 1975.0, 44.4410
13.857540805, 96.390, 2022.0, 44.9667
13.883801370, 96.390, 2015.0, 44.8888
13.910061935, 96.390, 1996.0, 44.6766
13.936322501, 96.390, 1910.0, 43.7035
13.962583066, 96.390, 2086.0, 45.6727
13.988843631, 96.390, 1954.0, 44.2041
14.015104197, 96.390, 1930.0, 43.9318
14.041364762, 96.390, 1883.0, 43.3935
14.067625327, 96.390, 1941.0, 44.0568
14.093885893, 96.390, 1939.0, 44.0341
14.120146458, 96.390, 1941.0, 44.0568
14.146407023, 96.390, 1936.0, 44.0000
14.172667589, 96.390, 1906.0, 43.6578
14.198928154, 96.390, 1978.0, 44.4747
14.225188719, 96.390, 1903.0, 43.6234
14.251449285, 96.390, 1821.0, 42.6732
14.277709850, 96.390, 1897.0, 43.5546
14.303970416, 96.390, 1916.0, 43.7721
14.330230981, 96.390, 1902.0, 43.6119
14.356491546, 96.390, 1893.0, 43.5086
14.382752112, 96.390, 1889.0, 43.4626
14.409012677, 96.390, 1818.0, 42.6380
14.435273242, 96.390, 1862.0, 43.1509
14.461533808, 96.390, 1911.0, 43.7150
14.487794373, 96.390, 1910.0, 43.7035
14.514054938, 96.390, 1862.0, 43.1509
14.540315504, 96.390, 1842.0, 42.9185
14.566576069, 96.390, 1915.0, 43.7607
14.592836634, 96.390, 1830.0, 42.7785
14.619097200, 96.390, 1819.0, 42.6497
14.645357765, 96.390, 1817.0, 42.6263
14.671618331, 96.390, 1836.0, 42.8486
14.697878896, 96.390, 1825.0, 42.7200
14.724139461, 96.390, 1772.0, 42.0951
14.750400027, 96.390, 1740.0, 41.7133
14.776660592, 96.390, 1810.0, 42.5441
14.802921157, 96.390, 1781.0, 42.2019
14.829181723, 96.390, 1766.0, 42.0238
14.855442288, 96.390, 1883.0, 43.3935
14.881702853, 96.390, 1782.0, 42.2137
14.907963419, 96.390, 1773.0, 42.1070
14.934223984, 96.390, 1722.0, 41.4970
14.960484549, 96.390, 1736.0, 41.6653
14.986745115, 96.390, 1847.0, 42.9767
15.013005680, 96.390, 1797.0, 42.3910
15.039266245, 96.390, 1779.0, 42.1782
15.065526811, 96.390, 1772.0, 42.0951
15.091787376, 96.390, 1708.0, 41.3280
15.118047942, 96.390, 1793.0, 42.3438
15.144308507, 96.390, 1722.0, 41.4970
15.170569072, 96.390, 1764.0, 42.0000
15.196829638, 96.390, 1701.0, 41.2432
15.223090203, 96.390, 1734.0, 41.6413
15.249350768, 96.390, 1686.0, 41.0609
15.275611334, 96.390, 1769.0, 42.0595
15.301871899, 96.390, 1753.0, 41.8688
15.328132464, 96.390, 1781.0, 42.2019
15.354393030, 96.390, 1781.0, 42.2019
15.380653595, 96.390, 1694.0, 41.1582
15.406914160, 96.390, 1639.0, 40.4846
15.433174726, 96.390, 1749.0, 41.8210
15.459435291, 96.390, 1723.0, 41.5090
15.485695857, 96.390, 1675.0, 40.9268
15.511956422, 96.390, 1688.0, 41.0853
15.538216987, 96.390, 1723.0, 41.5090
15.564477553, 96.390, 1710.0, 41.3521
15.590738118, 96.390, 1779.0, 42.1782
15.616998683, 96.390, 1710.0, 41.3521
15.643259249, 96.390, 1618.0, 40.2244
15.669519814, 96.390, 1627.0, 40.3361
15.695780379, 96.390, 1694.0, 41.1582
15.722040945, 96.390, 1714.0, 41.4005
15.748301510, 96.390, 1647.0, 40.5832
15.774562075, 96.390, 1692.0, 41.1339
15.800822641, 96.390, 1693.0, 41.1461
15.827083206, 96.390, 1680.0, 40.9878
15.853343771, 96.390, 1607.0, 40.0874
15.879604337, 96.390, 1638.0, 40.4722
15.905864902, 96.390, 1613.0, 40.1622
15.932125468, 96.390, 1589.0, 39.8623
15.958386033, 96.390, 1608.0, 40.0999
15.984646598, 96.390, 1659.0, 40.7308
16.010907164, 96.390, 1632.0, 40.3980
16.037167729, 96.390, 1707.0, 41.3159
16.063428294, 96.390, 1624.0, 40.2989
16.089688860, 96.390, 1728.0, 41.5692
16.115949425, 96.390, 1675.0, 40.9268
16.142209990, 96.390, 1692.0, 41.1339
16.168470556, 96.390, 1658.0, 40.7185
16.194731121, 96.390, 1611.0, 40.1373
16.220991686, 96.390, 1742.0, 41.7373
16.247252252, 96.390, 1585.0, 39.8121
16.273512817, 96.390, 1643.0, 40.5339
16.299773382, 96.390, 1691.0, 41.1218
16.326033948, 96.390, 1585.0, 39.8121
16.352294513, 96.390, 1627.0, 40.3361
16.378555079, 96.390, 1628.0, 40.3485
16.404815644, 96.390, 1564.0, 39.5474
16.431076209, 96.390, 1617.0, 40.2119
16.457336775, 96.390, 1666.0, 40.8167
16.483597340, 96.390, 1645.0, 40.5586
16.509857905, 96.390, 1642.0, 40.5216
16.536118471, 96.390, 1607.0, 40.0874
16.562379036, 96.390, 1610.0, 40.1248
16.588639601, 96.390, 1619.0, 40.2368
16.614900167, 96.390, 1631.0, 40.3856
16.641160732, 96.390, 1642.0, 40.5216
16.667421297, 96.390, 1559.0, 39.4842
16.693681863, 96.390, 1633.0, 40.4104
16.719942428, 96.390, 1640.0, 40.4969
16.746202994, 96.390, 1615.0, 40.1871
16.772463559, 96.390, 1583.0, 39.7869
16.798724124, 96.390, 1571.0, 39.6358
16.824984690, 96.390, 1613.0, 40.1622
16.851245255, 96.390, 1658.0, 40.7185
16.877505820, 96.390, 1630.0, 40.3733
16.903766386, 96.390, 1581.0, 39.7618
16.930026951, 96.390, 1617.0, 40.2119
16.956287516, 96.390, 1567.0, 39.5854
16.982548082, 96.390, 1647.0, 40.5832
17.008808647, 96.390, 1672.0, 40.8901
17.035069212, 96.390, 1576.0, 39.6989
17.061329778, 96.390, 1615.0, 40.1871
17.087590343, 96.390, 1579.0, 39.7366
17.113850908, 96.390, 1586.0, 39.8246
17.140111474, 96.390, 1632.0, 40.3980
17.166372039, 96.390, 1546.0, 39.3192
17.192632605, 96.390, 1573.0, 39.6611
17.218893170, 96.390, 1596.0, 39.9500
17.245153735, 96.390, 1579.0, 39.7366
17.271414301, 96.390, 1555.0, 39.4335
17.297674866, 96.390, 1615.0, 40.1871
17.323935431, 96.390, 1591.0, 39.8873
17.350195997, 96.390, 1538.0, 39.2173
17.376456562, 96.390, 1555.0, 39.4335
17.402717127, 96.390, 1603.0, 40.0375
17.428977693, 96.390, 1635.0, 40.4351
17.455238258, 96.390, 1601.0, 40.0125
17.481498823, 96.390, 1642.0, 40.5216
17.507759389, 96.390, 1659.0, 40.7308
17.534019954, 96.390, 1665.0, 40.8044
17.560280520, 96.390, 1582.0, 39.7744
17.586541085, 96.390, 1645.0, 40.5586
17.612801650, 96.390, 1596.0, 39.9500
17.639062216, 96.390, 1580.0, 39.7492
17.665322781, 96.390, 1582.0, 39.7744
17.691583346, 96.390, 1530.0, 39.1152
17.717843912, 96.390, 1638.0, 40.4722
17.744104477, 96.390, 1604.0, 40.0500
17.770365042, 96.390, 1556.0, 39.4462
17.796625608, 96.390, 1652.0, 40.6448
17.822886173, 96.390, 1586.0, 39.8246
17.849146738, 96.390, 1526.0, 39.0640
17.875407304, 96.390, 1572.0, 39.6485
17.901667869, 96.390, 1656.0, 40.6940
17.927928434, 96.390, 1641.0, 40.5093
17.954189000, 96.390, 1614.0, 40.1746
17.980449565, 96.390, 1579.0, 39.7366
18.006710131, 96.390, 1685.0, 41.0488
18.032970696, 96.390, 1605.0, 40.0625
18.059231261, 96.390, 1547.0, 39.3319
18.085491827, 96.390, 1583.0, 39.7869
18.111752392, 96.390, 1690.0, 41.1096
18.138012957, 96.390, 1727.0, 41.5572
18.164273523, 96.390, 1606.0, 40.0749
18.190534088, 96.390, 1641.0, 40.5093
18.216794653, 96.390, 1684.0, 41.0366
18.243055219, 96.390, 1717.0, 41.4367
18.269315784, 96.390, 1629.0, 40.3609
18.295576349, 96.390, 1582.0, 39.7744
18.321836915, 96.390, 1631.0, 40.3856
18.348097480, 96.390, 1659.0, 40.7308
18.374358046, 96.390, 1655.0, 40.6817
18.400618611, 96.390, 1610.0, 40.1248
18.426879176, 96.390, 1707.0, 41.3159
18.453139742, 96.390, 1622.0, 40.2741
18.479400307, 96.390, 1591.0, 39.8873
18.505660872, 96.390, 1568.0, 39.5980
18.531921438, 96.390, 1667.0, 40.8289
18.558182003, 96.390, 1708.0, 41.3280
18.584442568, 96.390, 1585.0, 39.8121
18.610703134, 96.390, 1618.0, 40.2244
18.636963699, 96.390, 1606.0, 40.0749
18.663224264, 96.390, 1593.0, 39.9124
18.689484830, 96.390, 1665.0, 40.8044
18.715745395, 96.390, 1649.0, 40.6079
18.742005960, 96.390, 1725.0, 41.5331
18.768266526, 96.390, 1701.0, 41.2432
18.794527091, 96.390, 1651.0, 40.6325
18.820787657, 96.390, 1709.0, 41.3401
18.847048222, 96.390, 1630.0, 40.3733
18.873308787, 96.390, 1646.0, 40.5709
18.899569353, 96.390, 1694.0, 41.1582
18.925829918, 96.390, 1678.0, 40.9634
18.952090483, 96.390, 1708.0, 41.3280
18.978351049, 96.390, 1758.0, 41.9285
19.004611614, 96.390, 1767.0, 42.0357
19.030872179, 96.390, 1780.0, 42.1900
19.057132745, 96.390, 1720.0, 41.4729
19.083393310, 96.390, 1817.0, 42.6263
19.109653875, 96.390, 1749.0, 41.8210
19.135914441, 96.390, 1801.0, 42.4382
19.162175006, 96.390, 1723.0, 41.5090
19.188435572, 96.390, 1810.0, 42.5441
19.214696137, 96.390, 1735.0, 41.6533
19.240956702, 96.390, 1793.0, 42.3438
19.267217268, 96.390, 1828.0, 42.7551
19.293477833, 96.390, 1835.0, 42.8369
19.319738398, 96.390, 1807.0, 42.5088
19.345998964, 96.390, 1799.0, 42.4146
19.372259529, 96.390, 1766.0, 42.0238
19.398520094, 96.390, 1783.0, 42.2256
19.424780660, 96.390, 1862.0, 43.1509
19.451041225, 96.390, 1831.0, 42.7902
19.477301790, 96.390, 1831.0, 42.7902
19.503562356, 96.390, 1824.0, 42.7083
19.529822921, 96.390, 1860.0, 43.1277
19.556083486, 96.390, 1824.0, 42.7083
19.582344052, 96.390, 1821.0, 42.6732
19.608604617, 96.390, 1809.0, 42.5323
19.634865183, 96.390, 1813.0, 42.5793
19.661125748, 96.390, 1834.0, 42.8252
19.687386313, 96.390, 1880.0, 43.3590
19.713646879, 96.390, 1817.0, 42.6263
19.739907444, 96.390, 1868.0, 43.2204
19.766168009, 96.390, 1765.0, 42.0119
19.792428575, 96.390, 1933.0, 43.9659
19.818689140, 96.390, 1879.0, 43.3474
19.844949705, 96.390, 1912.0, 43.7264
19.871210271, 96.390, 1913.0, 43.7379
19.897470836, 96.390, 1867.0, 43.2088
19.923731401, 96.390, 1899.0, 43.5775
19.949991967, 96.390, 1908.0, 43.6807
19.976252532, 96.390, 1857.0, 43.0929
20.002513098, 96.390, 1892.0, 43.4971
20.028773663, 96.390, 1886.0, 43.4281
20.055034228, 96.390, 1887.0, 43.4396
20.081294794, 96.390, 1835.0, 42.8369
20.107555359, 96.390, 1859.0, 43.1161
20.133815924, 96.390, 1867.0, 43.2088
20.160076490, 96.390, 1818.0, 42.6380
20.186337055, 96.390, 1910.0, 43.7035
20.212597620, 96.390, 1960.0, 44.2719
20.238858186, 96.390, 1904.0, 43.6348
20.265118751, 96.390, 1987.0, 44.5758
20.291379316, 96.390, 1964.0, 44.3170
20.317639882, 96.390, 1996.0, 44.6766
20.343900447, 96.390, 2011.0, 44.8442
20.370161012, 96.390, 2012.0, 44.8553
20.396421578, 96.390, 1981.0, 44.5084
20.422682143, 96.390, 2086.0, 45.6727
20.448942709, 96.390, 2148.0, 46.3465
20.475203274, 96.390, 2191.0, 46.8081
20.501463839, 96.390, 2262.0, 47.5605
20.527724405, 96.390, 2247.0, 47.4025
20.553984970, 96.390, 2334.0, 48.3115
20.580245535, 96.390, 2427.0, 49.2646
20.606506101, 96.390, 2465.0, 49.6488
20.632766666, 96.390, 2528.0, 50.2792
20.659027231, 96.390, 2686.0, 51.8266
20.685287797, 96.390, 2863.0, 53.5070
20.711548362, 96.390, 2826.0, 53.1601
20.737808927, 96.390, 2928.0, 54.1110
20.764069493, 96.390, 2744.0, 52.3832
20.790330058, 96.390, 2823.0, 53.1319
20.816590623, 96.390, 2717.0, 52.1249
20.842851189, 96.390, 2675.0, 51.7204
20.869111754, 96.390, 2541.0, 50.4083
20.895372320, 96.390, 2587.0, 50.8626
20.921632885, 96.390, 2433.0, 49.3254
20.947893450, 96.390, 2392.0, 48.9081
20.974154016, 96.390, 2292.0, 47.8748
21.000414581, 96.390, 2262.0, 47.5605
21.026675146, 96.390, 2171.0, 46.5940
21.052935712, 96.390, 2041.0, 45.1774
21.079196277, 96.390, 2089.0, 45.7056
21.105456842, 96.390, 1992.0, 44.6318
21.131717408, 96.390, 1992.0, 44.6318
21.157977973, 96.390, 1958.0, 44.2493
21.184238538, 96.390, 2050.0, 45.2769
21.210499104, 96.390, 1904.0, 43.6348
21.236759669, 96.390, 1858.0, 43.1045
21.263020235, 96.390, 2010.0, 44.8330
21.289280800, 96.390, 1948.0, 44.1362
21.315541365, 96.390, 2058.0, 45.3652
21.341801931, 96.390, 1982.0, 44.5197
21.368062496, 96.390, 1882.0, 43.3820
21.394323061, 96.390, 2058.0, 45.3652
21.420583627, 96.390, 1873.0, 43.2782
21.446844192, 96.390, 1945.0, 44.1022
21.473104757, 96.390, 2029.0, 45.0444
21.499365323, 96.390, 2034.0, 45.0999
21.525625888, 96.390, 1967.0, 44.3509
21.551886453, 96.390, 2014.0, 44.8776
21.578147019, 96.390, 2039.0, 45.1553
21.604407584, 96.390, 2038.0, 45.1442
21.630668149, 96.390, 1972.0, 44.4072
21.656928715, 96.390, 2054.0, 45.3211
21.683189280, 96.390, 2016.0, 44.8999
21.709449846, 96.390, 2043.0, 45.1996
21.735710411, 96.390, 2023.0, 44.9778
21.761970976, 96.390, 2054.0, 45.3211
21.788231542, 96.390, 2030.0, 45.0555
21.814492107, 96.390, 1983.0, 44.5309
21.840752672, 96.390, 2002.0, 44.7437
21.867013238, 96.390, 2057.0, 45.3542
21.893273803, 96.390, 2096.0, 45.7821
21.919534368, 96.390, 2044.0, 45.2106
21.945794934, 96.390, 2190.0, 46.7974
21.972055499, 96.390, 2115.0, 45.9891
21.998316064, 96.390, 2078.0, 45.5851
22.024576630, 96.390, 2107.0, 45.9021
22.050837195, 96.390, 2151.0, 46.3789
22.077097761, 96.390, 2159.0, 46.4650
22.103358326, 96.390, 2168.0, 46.5618
22.129618891, 96.390, 2260.0, 47.5395
22.155879457, 96.390, 2224.0, 47.1593
22.182140022, 96.390, 2200.0, 46.9042
22.208400587, 96.390, 2179.0, 46.6798
22.234661153, 96.390, 2206.0, 46.9681
22.260921718, 96.390, 2360.0, 48.5798
22.287182283, 96.390, 2297.0, 47.9270
22.313442849, 96.390, 2270.0, 47.6445
22.339703414, 96.390, 2408.0, 49.0714
22.365963979, 96.390, 2485.0, 49.8498
22.392224545, 96.390, 2389.0, 48.8774
22.418485110, 96.390, 2436.0, 49.3559
22.444745675, 96.390, 2495.0, 49.9500
22.471006241, 96.390, 2492.0, 49.9199
22.497266806, 96.390, 2470.0, 49.6991
22.523527372, 96.390, 2486.0, 49.8598
22.549787937, 96.390, 2464.0, 49.6387
22.576048502, 96.390, 2336.0, 48.3322
22.602309068, 96.390, 2403.0, 49.0204
22.628569633, 96.390, 2327.0, 48.2390
22.654830198, 96.390, 2332.0, 48.2908
22.681090764, 96.390, 2385.0, 48.8365
22.707351329, 96.390, 2371.0, 48.6929
22.733611894, 96.390, 2234.0, 47.2652
22.759872460, 96.390, 2365.0, 48.6313
22.786133025, 96.390, 2229.0, 47.2123
22.812393590, 96.390, 2357.0, 48.5489
22.838654156, 96.390, 2363.0, 48.6107
22.864914721, 96.390, 2316.0, 48.1248
22.891175287, 96.390, 2256.0, 47.4974
22.917435852, 96.390, 2317.0, 48.1352
22.943696417, 96.390, 2282.0, 47.7703
22.969956983, 96.390, 2399.0, 48.9796
22.996217548, 96.390, 2445.0, 49.4469
23.022478113, 96.390, 2471.0, 49.7092
23.048738679, 96.390, 2362.0, 48.6004
23.074999244, 96.390, 2437.0, 49.3660
23.101259809, 96.390, 2595.0, 50.9411
23.127520375, 96.390, 2656.0, 51.5364
23.153780940, 96.390, 2724.0, 52.1920
23.180041505, 96.390, 2893.0, 53.7866
23.206302071, 96.390, 2814.0, 53.0471
23.232562636, 96.390, 2845.0, 53.3385
23.258823201, 96.390, 2643.0, 51.4101
23.285083767, 96.390, 2483.0, 49.8297
23.311344332, 96.390, 2267.0, 47.6130
23.337604898, 96.390, 2324.0, 48.2079
23.363865463, 96.390, 2188.0, 46.7761
23.390126028, 96.390, 2288.0, 47.8330
23.416386594, 96.390, 2240.0, 47.3286
23.442647159, 96.390, 2173.0, 46.6154
23.468907724, 96.390, 2215.0, 47.0638
23.495168290, 96.390, 2145.0, 46.3141
23.521428855, 96.390, 2189.0, 46.7868
23.547689420, 96.390, 2309.0, 48.0521
23.573949986, 96.390, 2218.0, 47.0956
23.600210551, 96.390, 2281.0, 47.7598
23.626471116, 96.390, 2213.0, 47.0425
23.652731682, 96.390, 2174.0, 46.6262
23.678992247, 96.390, 2297.0, 47.9270
23.705252813, 96.390, 2304.0, 48.0000
23.731513378, 96.390, 2154.0, 46.4112
23.757773943, 96.390, 2276.0, 47.7074
23.784034509, 96.390, 2241.0, 47.3392
23.810295074, 96.390, 2245.0, 47.3814
23.836555639, 96.390, 2207.0, 46.9787
23.862816205, 96.390, 2232.0, 47.2440
23.889076770, 96.390, 2197.0, 46.8722
23.915337335, 96.390, 2285.0, 47.8017
23.941597901, 96.390, 2215.0, 47.0638
23.967858466, 96.390, 2132.0, 46.1736
23.994119031, 96.390, 2303.0, 47.9896
24.020379597, 96.390, 2247.0, 47.4025
24.046640162, 96.390, 2251.0, 47.4447
24.072900727, 96.390, 2231.0, 47.2335
24.099161293, 96.390, 2271.0, 47.6550
24.125421858, 96.390, 2209.0, 47.0000
24.151682424, 96.390, 2151.0, 46.3789
24.177942989, 96.390, 2139.0, 46.2493
24.204203554, 96.390, 2073.0, 45.5302
24.230464120, 96.390, 2066.0, 45.4533
24.256724685, 96.390, 1980.0, 44.4972
24.282985250, 96.390, 1948.0, 44.1362
24.309245816, 96.390, 1927.0, 43.8976
24.335506381, 96.390, 1800.0, 42.4264
24.361766946, 96.390, 1803.0, 42.4617
24.388027512, 96.390, 1876.0, 43.3128
24.414288077, 96.390, 1870.0, 43.2435
24.440548642, 96.390, 1811.0, 42.5558
24.466809208, 96.390, 1722.0, 41.4970
24.493069773, 96.390, 1819.0, 42.6497
24.519330338, 96.390, 1808.0, 42.5206
24.545590904, 96.390, 1817.0, 42.6263
24.571851469, 96.390, 1815.0, 42.6028
24.598112035, 96.390, 1782.0, 42.2137
24.624372600, 96.390, 1687.0, 41.0731
24.650633165, 96.390, 1769.0, 42.0595
24.676893731, 96.390, 1682.0, 41.0122
24.703154296, 96.390, 1742.0, 41.7373
24.729414861, 96.390, 1643.0, 40.5339
24.755675427, 96.390, 1685.0, 41.0488
24.781935992, 96.390, 1753.0, 41.8688
24.808196557, 96.390, 1611.0, 40.1373
24.834457123, 96.390, 1645.0, 40.5586
24.860717688, 96.390, 1656.0, 40.6940
24.886978253, 96.390, 1700.0, 41.2311
24.913238819, 96.390, 1658.0, 40.7185
24.939499384, 96.390, 1646.0, 40.5709
24.965759950, 96.390, 1642.0, 40.5216
24.992020515, 96.390, 1709.0, 41.3401
25.018281080, 96.390, 1632.0, 40.3980
25.044541646, 96.390, 1643.0, 40.5339
25.070802211, 96.390, 1634.0, 40.4228
25.097062776, 96.390, 1656.0, 40.6940
25.123323342, 96.390, 1612.0, 40.1497
25.149583907, 96.390, 1689.0, 41.0974
25.175844472, 96.390, 1689.0, 41.0974
25.202105038, 96.390, 1695.0, 41.1704
25.228365603, 96.390, 1635.0, 40.4351
25.254626168, 96.390, 1637.0, 40.4599
25.280886734, 96.390, 1652.0, 40.6448
25.307147299, 96.390, 1607.0, 40.0874
25.333407864, 96.390, 1623.0, 40.2865
25.359668430, 96.390, 1620.0, 40.2492
25.385928995, 96.390, 1643.0, 40.5339
25.412189561, 96.390, 1646.0, 40.5709
25.438450126, 96.390, 1679.0, 40.9756
25.464710691, 96.390, 1617.0, 40.2119
25.490971257, 96.390, 1698.0, 41.2068
25.517231822, 96.390, 1652.0, 40.6448
25.543492387, 96.390, 1627.0, 40.3361
25.569752953, 96.390, 1625.0, 40.3113
25.596013518, 96.390, 1702.0, 41.2553
25.622274083, 96.390, 1643.0, 40.5339
25.648534649, 96.390, 1721.0, 41.4849
25.674795214, 96.390, 1582.0, 39.7744
25.701055779, 96.390, 1609.0, 40.1123
25.727316345, 96.390, 1679.0, 40.9756
25.753576910, 96.390, 1581.0, 39.7618
25.779837476, 96.390, 1652.0, 40.6448
25.806098041, 96.390, 1705.0, 41.2916
25.832358606, 96.390, 1611.0, 40.1373
25.858619172, 96.390, 1617.0, 40.2119
25.884879737, 96.390, 1694.0, 41.1582
25.911140302, 96.390, 1703.0, 41.2674
25.937400868, 96.390, 1734.0, 41.6413
25.963661433, 96.390, 1724.0, 41.5211
25.989921998, 96.390, 1796.0, 42.3792
26.016182564, 96.390, 1854.0, 43.0581
26.042443129, 96.390, 1891.0, 43.4856
26.068703694, 96.390, 1892.0, 43.4971
26.094964260, 96.390, 1846.0, 42.9651
26.121224825, 96.390, 1749.0, 41.8210
26.147485390, 96.390, 1654.0, 40.6694
26.173745956, 96.390, 1676.0, 40.9390
26.200006521, 96.390, 1702.0, 41.2553
26.226267087, 96.390, 1615.0, 40.1871
26.252527652, 96.390, 1593.0, 39.9124
26.278788217, 96.390, 1650.0, 40.6202
26.305048783, 96.390, 1647.0, 40.5832
26.331309348, 96.390, 1655.0, 40.6817
26.357569913, 96.390, 1644.0, 40.5463
26.383830479, 96.390, 1652.0, 40.6448
26.410091044, 96.390, 1597.0, 39.9625
26.436351609, 96.390, 1636.0, 40.4475
26.462612175, 96.390, 1643.0, 40.5339
26.488872740, 96.390, 1561.0, 39.5095
26.515133305, 96.390, 1594.0, 39.9249
26.541393871, 96.390, 1623.0, 40.2865
26.567654436, 96.390, 1653.0, 40.6571
26.593915002, 96.390, 1656.0, 40.6940
26.620175567, 96.390, 1679.0, 40.9756
26.646436132, 96.390, 1574.0, 39.6737
26.672696698, 96.390, 1686.0, 41.0609
26.698957263, 96.390, 1622.0, 40.2741
26.725217828, 96.390, 1591.0, 39.8873
26.751478394, 96.390, 1673.0, 40.9023
26.777738959, 96.390, 1544.0, 39.2938
26.803999524, 96.390, 1636.0, 40.4475
26.830260090, 96.390, 1688.0, 41.0853
26.856520655, 96.390, 1733.0, 41.6293
26.882781220, 96.390, 1630.0, 40.3733
26.909041786, 96.390, 1615.0, 40.1871
26.935302351, 96.390, 1651.0, 40.6325
26.961562916, 96.390, 1674.0, 40.9145
26.987823482, 96.390, 1578.0, 39.7240
27.014084047, 96.390, 1648.0, 40.5956
27.040344613, 96.390, 1671.0, 40.8779
27.066605178, 96.390, 1633.0, 40.4104
27.092865743, 96.390, 1603.0, 40.0375
27.119126309, 96.390, 1562.0, 39.5221
27.145386874, 96.390, 1684.0, 41.0366
27.171647439, 96.390, 1644.0, 40.5463
27.197908005, 96.390, 1636.0, 40.4475
27.224168570, 96.390, 1647.0, 40.5832
27.250429135, 96.390, 1657.0, 40.7063
27.276689701, 96.390, 1629.0, 40.3609
27.302950266, 96.390, 1603.0, 40.0375
27.329210831, 96.390, 1636.0, 40.4475
27.355471397, 96.390, 1629.0, 40.3609
27.381731962, 96.390, 1612.0, 40.1497
27.407992528, 96.390, 1623.0, 40.2865
27.434253093, 96.390, 1659.0, 40.7308
27.460513658, 96.390, 1573.0, 39.6611
27.486774224, 96.390, 1637.0, 40.4599
27.513034789, 96.390, 1749.0, 41.8210
27.539295354, 96.390, 1609.0, 40.1123
27.565555920, 96.390, 1602.0, 40.0250
27.591816485, 96.390, 1602.0, 40.0250
27.618077050, 96.390, 1618.0, 40.2244
27.644337616, 96.390, 1663.0, 40.7799
27.670598181, 96.390, 1565.0, 39.5601
27.696858746, 96.390, 1623.0, 40.2865
27.723119312, 96.390, 1667.0, 40.8289
27.749379877, 96.390, 1588.0, 39.8497
27.775640442, 96.390, 1636.0, 40.4475
27.801901008, 96.390, 1610.0, 40.1248
27.828161573, 96.390, 1615.0, 40.1871
27.854422139, 96.390, 1559.0, 39.4842
27.880682704, 96.390, 1599.0, 39.9875
27.906943269, 96.390, 1543.0, 39.2810
27.933203835, 96.390, 1577.0, 39.7115
27.959464400, 96.390, 1606.0, 40.0749
27.985724965, 96.390, 1630.0, 40.3733
28.011985531, 96.390, 1630.0, 40.3733
28.038246096, 96.390, 1679.0, 40.9756
28.064506661, 96.390, 1595.0, 39.9375
28.090767227, 96.390, 1660.0, 40.7431
28.117027792, 96.390, 1625.0, 40.3113
28.143288357, 96.390, 1689.0, 41.0974
28.169548923, 96.390, 1663.0, 40.7799
28.195809488, 96.390, 1579.0, 39.7366
28.222070054, 96.390, 1606.0, 40.0749
28.248330619, 96.390, 1633.0, 40.4104
28.274591184, 96.390, 1634.0, 40.4228
28.300851750, 96.390, 1723.0, 41.5090
28.327112315, 96.390, 1688.0, 41.0853
28.353372880, 96.390, 1689.0, 41.0974
28.379633446, 96.390, 1614.0, 40.1746
28.405894011, 96.390, 1623.0, 40.2865
28.432154576, 96.390, 1609.0, 40.1123
28.458415142, 96.390, 1658.0, 40.7185
28.484675707, 96.390, 1595.0, 39.9375
28.510936272, 96.390, 1636.0, 40.4475
28.537196838, 96.390, 1670.0, 40.8656
28.563457403, 96.390, 1685.0, 41.0488
28.589717968, 96.390, 1624.0, 40.2989
28.615978534, 96.390, 1652.0, 40.6448
28.642239099, 96.390, 1560.0, 39.4968
28.668499665, 96.390, 1656.0, 40.6940
28.694760230, 96.390, 1670.0, 40.8656
28.721020795, 96.390, 1657.0, 40.7063
28.747281361, 96.390, 1601.0, 40.0125
28.773541926, 96.390, 1712.0, 41.3763
28.799802491, 96.390, 1640.0, 40.4969
28.826063057, 96.390, 1688.0, 41.0853
28.852323622, 96.390, 1680.0, 40.9878
28.878584187, 96.390, 1605.0, 40.0625
28.904844753, 96.390, 1644.0, 40.5463
28.931105318, 96.390, 1633.0, 40.4104
28.957365883, 96.390, 1593.0, 39.9124
28.983626449, 96.390, 1681.0, 41.0000
29.009887014, 96.390, 1706.0, 41.3038
29.036147579, 96.390, 1696.0, 41.1825
29.062408145, 96.390, 1650.0, 40.6202
29.088668710, 96.390, 1716.0, 41.4246
29.114929276, 96.390, 1639.0, 40.4846
29.141189841, 96.390, 1634.0, 40.4228
29.167450406, 96.390, 1582.0, 39.7744
29.193710972, 96.390, 1672.0, 40.8901
29.219971537, 96.390, 1651.0, 40.6325
29.246232102, 96.390, 1622.0, 40.2741
29.272492668, 96.390, 1622.0, 40.2741
29.298753233, 96.390, 1634.0, 40.4228
29.325013798, 96.390, 1615.0, 40.1871
29.351274364, 96.390, 1575.0, 39.6863
29.377534929, 96.390, 1710.0, 41.3521
29.403795494, 96.390, 1596.0, 39.9500
29.430056060, 96.390, 1585.0, 39.8121
29.456316625, 96.390, 1666.0, 40.8167
29.482577191, 96.390, 1623.0, 40.2865
29.508837756, 96.390, 1625.0, 40.3113
29.535098321, 96.390, 1661.0, 40.7554
29.561358887, 96.390, 1642.0, 40.5216
29.587619452, 96.390, 1518.0, 38.9615
29.613880017, 96.390, 1627.0, 40.3361
29.640140583, 96.390, 1687.0, 41.0731
29.666401148, 96.390, 1559.0, 39.4842
29.692661713, 96.390, 1526.0, 39.0640
29.718922279, 96.390, 1596.0, 39.9500
29.745182844, 96.390, 1708.0, 41.3280
29.771443409, 96.390, 1625.0, 40.3113
29.797703975, 96.390, 1645.0, 40.5586
29.823964540, 96.390, 1619.0, 40.2368
29.850225105, 96.390, 1644.0, 40.5463
29.876485671, 96.390, 1652.0, 40.6448
29.902746236, 96.390, 1714.0, 41.4005
29.929006802, 96.390, 1655.0, 40.6817
29.955267367, 96.390, 1730.0, 41.5933
29.981527932, 96.390, 1783.0, 42.2256
30.007788498, 96.390, 1622.0, 40.2741
30.034049063, 96.390, 1684.0, 41.0366
30.060309628, 96.390, 1616.0, 40.1995
30.086570194, 96.390, 1597.0, 39.9625
30.112830759, 96.390, 1667.0, 40.8289
30.139091324, 96.390, 1649.0, 40.6079
30.165351890, 96.390, 1656.0, 40.6940
30.191612455, 96.390, 1653.0, 40.6571
30.217873020, 96.390, 1526.0, 39.0640
30.244133586, 96.390, 1633.0, 40.4104
30.270394151, 96.390, 1597.0, 39.9625
30.296654717, 96.390, 1524.0, 39.0384
30.322915282, 96.390, 1572.0, 39.6485
30.349175847, 96.390, 1615.0, 40.1871
30.375436413, 96.390, 1551.0, 39.3827
30.401696978, 96.390, 1540.0, 39.2428
30.427957543, 96.390, 1486.0, 38.5487
30.454218109, 96.390, 1642.0, 40.5216
30.480478674, 96.390, 1548.0, 39.3446
30.506739239, 96.390, 1500.0, 38.7298
30.532999805, 96.390, 1476.0, 38.4187
30.559260370, 96.390, 1526.0, 39.0640
30.585520935, 96.390, 1578.0, 39.7240
30.611781501, 96.390, 1576.0, 39.6989
30.638042066, 96.390, 1580.0, 39.7492
30.664302631, 96.390, 1627.0, 40.3361
30.690563197, 96.390, 1530.0, 39.1152
30.716823762, 96.390, 1578.0, 39.7240
30.743084328, 96.390, 1633.0, 40.4104
30.769344893, 96.390, 1541.0, 39.2556
30.795605458, 96.390, 1578.0, 39.7240
30.821866024, 96.390, 1627.0, 40.3361
30.848126589, 96.390, 1510.0, 38.8587
30.874387154, 96.390, 1487.0, 38.5616
30.900647720, 96.390, 1640.0, 40.4969
30.926908285, 96.390, 1584.0, 39.7995
30.953168850, 96.390, 1553.0, 39.4081
30.979429416, 96.390, 1593.0, 39.9124
31.005689981, 96.390, 1576.0, 39.6989
31.031950546, 96.390, 1629.0, 40.3609
31.058211112, 96.390, 1584.0, 39.7995
31.084471677, 96.390, 1618.0, 40.2244
31.110732243, 96.390, 1640.0, 40.4969
31.136992808, 96.390, 1589.0, 39.8623
31.163253373, 96.390, 1637.0, 40.4599
31.189513939, 96.390, 1752.0, 41.8569
31.215774504, 96.390, 1644.0, 40.5463
31.242035069, 96.390, 1653.0, 40.6571
31.268295635, 96.390, 1682.0, 41.0122
31.294556200, 96.390, 1611.0, 40.1373
31.320816765, 96.390, 1668.0, 40.8412
31.347077331, 96.390, 1664.0, 40.7922
31.373337896, 96.390, 1689.0, 41.0974
31.399598461, 96.390, 1592.0, 39.8999
31.425859027, 96.390, 1641.0, 40.5093
31.452119592, 96.390, 1654.0, 40.6694
31.478380157, 96.390, 1639.0, 40.4846
31.504640723, 96.390, 1628.0, 40.3485
31.530901288, 96.390, 1642.0, 40.5216
31.557161854, 96.390, 1616.0, 40.1995
31.583422419, 96.390, 1534.0, 39.1663
31.609682984, 96.390, 1581.0, 39.7618
31.635943550, 96.390, 1562.0, 39.5221
31.662204115, 96.390, 1563.0, 39.5348
31.688464680, 96.390, 1672.0, 40.8901
31.714725246, 96.390, 1617.0, 40.2119
31.740985811, 96.390, 1633.0, 40.4104
31.767246376, 96.390, 1725.0, 41.5331
31.793506942, 96.390, 1689.0, 41.0974
31.819767507, 96.390, 1819.0, 42.6497
31.846028072, 96.390, 1847.0, 42.9767
31.872288638, 96.390, 1989.0, 44.5982
31.898549203, 96.390, 2088.0, 45.6946
31.924809769, 96.390, 2193.0, 46.8295
31.951070334, 96.390, 2185.0, 46.7440
31.977330899, 96.390, 2283.0, 47.7807
32.003591465, 96.390, 2280.0, 47.7493
32.029852030, 96.390, 2322.0, 48.1871
32.056112595, 96.390, 2099.0, 45.8148
32.082373161, 96.390, 2106.0, 45.8912
32.108633726, 96.390, 1957.0, 44.2380
32.134894291, 96.390, 1806.0, 42.4971
32.161154857, 96.390, 1758.0, 41.9285
32.187415422, 96.390, 1664.0, 40.7922
32.213675987, 96.390, 1642.0, 40.5216
32.239936553, 96.390, 1632.0, 40.3980
32.266197118, 96.390, 1567.0, 39.5854
32.292457683, 96.390, 1567.0, 39.5854
32.318718249, 96.390, 1626.0, 40.3237
32.344978814, 96.390, 1671.0, 40.8779
32.371239380, 96.390, 1581.0, 39.7618
32.397499945, 96.390, 1603.0, 40.0375
32.423760510, 96.390, 1567.0, 39.5854
32.450021076, 96.390, 1541.0, 39.2556
32.476281641, 96.390, 1588.0, 39.8497
32.502542206, 96.390, 1631.0, 40.3856
32.528802772, 96.390, 1658.0, 40.7185
32.555063337, 96.390, 1643.0, 40.5339
32.581323902, 96.390, 1592.0, 39.8999
32.607584468, 96.390, 1630.0, 40.3733
32.633845033, 96.390, 1636.0, 40.4475
32.660105598, 96.390, 1624.0, 40.2989
32.686366164, 96.390, 1642.0, 40.5216
32.712626729, 96.390, 1614.0, 40.1746
32.738887295, 96.390, 1730.0, 41.5933
32.765147860, 96.390, 1714.0, 41.4005
32.791408425, 96.390, 1801.0, 42.4382
32.817668991, 96.390, 1771.0, 42.0833
32.843929556, 96.390, 1822.0, 42.6849
32.870190121, 96.390, 1883.0, 43.3935
32.896450687, 96.390, 1887.0, 43.4396
32.922711252, 96.390, 1921.0, 43.8292
32.948971817, 96.390, 1985.0, 44.5533
32.975232383, 96.390, 2036.0, 45.1221
33.001492948, 96.390, 2000.0, 44.7214
33.027753513, 96.390, 2055.0, 45.3321
33.054014079, 96.390, 2058.0, 45.3652
33.080274644, 96.390, 1936.0, 44.0000
33.106535209, 96.390, 1969.0, 44.3734
33.132795775, 96.390, 1921.0, 43.8292
33.159056340, 96.390, 1861.0, 43.1393
33.185316906, 96.390, 1890.0, 43.4741
33.211577471, 96.390, 1728.0, 41.5692
33.237838036, 96.390, 1772.0, 42.0951
33.264098602, 96.390, 1772.0, 42.0951
33.290359167, 96.390, 1737.0, 41.6773
33.316619732, 96.390, 1767.0, 42.0357
33.342880298, 96.390, 1748.0, 41.8091
33.369140863, 96.390, 1850.0, 43.0116
33.395401428, 96.390, 1761.0, 41.9643
33.421661994, 96.390, 1873.0, 43.2782
33.447922559, 96.390, 1856.0, 43.0813
33.474183124, 96.390, 1934.0, 43.9773
33.500443690, 96.390, 1883.0, 43.3935
33.526704255, 96.390, 1932.0, 43.9545
33.552964820, 96.390, 1952.0, 44.1814
33.579225386, 96.390, 1987.0, 44.5758
33.605485951, 96.390, 1988.0, 44.5870
33.631746517, 96.390, 1996.0, 44.6766
33.658007082, 96.390, 2201.0, 46.9148
33.684267647, 96.390, 2085.0, 45.6618
33.710528213, 96.390, 2209.0, 47.0000
33.736788778, 96.390, 2347.0, 48.4458
33.763049343, 96.390, 2454.0, 49.5379
33.789309909, 96.390, 2411.0, 49.1019
33.815570474, 96.390, 2551.0, 50.5074
33.841831039, 96.390, 2694.0, 51.9038
33.868091605, 96.390, 2836.0, 53.2541
33.894352170, 96.390, 2856.0, 53.4416
33.920612735, 96.390, 2990.0, 54.6809
33.946873301, 96.390, 3035.0, 55.0908
33.973133866, 96.390, 3234.0, 56.8683
33.999394432, 96.390, 3225.0, 56.7891
34.025654997, 96.390, 3254.0, 57.0438
34.051915562, 96.390, 3381.0, 58.1464
34.078176128, 96.390, 3438.0, 58.6345
34.104436693, 96.390, 3487.0, 59.0508
34.130697258, 96.390, 3523.0, 59.3549
34.156957824, 96.390, 3624.0, 60.1997
34.183218389, 96.390, 3653.0, 60.4401
34.209478954, 96.390, 3581.0, 59.8415
34.235739520, 96.390, 3544.0, 59.5315
34.262000085, 96.390, 3327.0, 57.6802
34.288260650, 96.390, 3408.0, 58.3781
34.314521216, 96.390, 3265.0, 57.1402
34.340781781, 96.390, 3447.0, 58.7112
34.367042346, 96.390, 3287.0, 57.3324
34.393302912, 96.390, 3126.0, 55.9106
34.419563477, 96.390, 3183.0, 56.4181
34.445824043, 96.390, 3160.0, 56.2139
34.472084608, 96.390, 3153.0, 56.1516
34.498345173, 96.390, 2982.0, 54.6077
34.524605739, 96.390, 3027.0, 55.0182
34.550866304, 96.390, 2997.0, 54.7449
34.577126869, 96.390, 2854.0, 53.4228
34.603387435, 96.390, 2859.0, 53.4696
34.629648000, 96.390, 2953.0, 54.3415
34.655908565, 96.390, 2999.0, 54.7631
34.682169131, 96.390, 2848.0, 53.3667
34.708429696, 96.390, 2865.0, 53.5257
34.734690261, 96.390, 2997.0, 54.7449
34.760950827, 96.390, 2989.0, 54.6717
34.787211392, 96.390, 2813.0, 53.0377
34.813471958, 96.390, 2969.0, 54.4885
34.839732523, 96.390, 2909.0, 53.9351
34.865993088, 96.390, 2894.0, 53.7959
34.892253654, 96.390, 2892.0, 53.7773
34.918514219, 96.390, 2838.0, 53.2729
34.944774784, 96.390, 2913.0, 53.9722
34.971035350, 96.390, 2835.0, 53.2447
34.997295915, 96.390, 2784.0, 52.7636
35.023556480, 96.390, 2729.0, 52.2398
35.049817046, 96.390, 2696.0, 51.9230
35.076077611, 96.390, 2740.0, 52.3450
35.102338176, 96.390, 2581.0, 50.8035
35.128598742, 96.390, 2706.0, 52.0192
35.154859307, 96.390, 2650.0, 51.4782
35.181119872, 96.390, 2545.0, 50.4480
35.207380438, 96.390, 2552.0, 50.5173
35.233641003, 96.390, 2506.0, 50.0600
35.259901569, 96.390, 2460.0, 49.5984
35.286162134, 96.390, 2364.0, 48.6210
35.312422699, 96.390, 2376.0, 48.7442
35.338683265, 96.390, 2414.0, 49.1325
35.364943830, 96.390, 2310.0, 48.0625
35.391204395, 96.390, 2391.0, 48.8979
35.417464961, 96.390, 2388.0, 48.8672
35.443725526, 96.390, 2296.0, 47.9166
35.469986091, 96.390, 2290.0, 47.8539
35.496246657, 96.390, 2179.0, 46.6798
35.522507222, 96.390, 2254.0, 47.4763
35.548767787, 96.390, 2272.0, 47.6655
35.575028353, 96.390, 2209.0, 47.0000
35.601288918, 96.390, 2276.0, 47.7074
35.627549484, 96.390, 2148.0, 46.3465
35.653810049, 96.390, 2146.0, 46.3249
35.680070614, 96.390, 2111.0, 45.9456
35.706331180, 96.390, 2100.0, 45.8258
35.732591745, 96.390, 2150.0, 46.3681
35.758852310, 96.390, 2015.0, 44.8888
35.785112876, 96.390, 2132.0, 46.1736
35.811373441, 96.390, 2075.0, 45.5522
35.837634006, 96.390, 2041.0, 45.1774
35.863894572, 96.390, 2012.0, 44.8553
35.890155137, 96.390, 2015.0, 44.8888
35.916415702, 96.390, 2030.0, 45.0555
35.942676268, 96.390, 1948.0, 44.1362
35.968936833, 96.390, 1989.0, 44.5982
35.995197398, 96.390, 2046.0, 45.2327
36.021457964, 96.390, 1946.0, 44.1135
36.047718529, 96.390, 1931.0, 43.9431
36.073979095, 96.390, 1969.0, 44.3734
36.100239660, 96.390, 2002.0, 44.7437
36.126500225, 96.390, 1969.0, 44.3734
36.152760791, 96.390, 1852.0, 43.0349
36.179021356, 96.390, 1900.0, 43.5890
36.205281921, 96.390, 1898.0, 43.5660
36.231542487, 96.390, 1881.0, 43.3705
36.257803052, 96.390, 1856.0, 43.0813
36.284063617, 96.390, 1881.0, 43.3705
36.310324183, 96.390, 1827.0, 42.7434
36.336584748, 96.390, 1791.0, 42.3202
36.362845313, 96.390, 1841.0, 42.9069
36.389105879, 96.390, 1770.0, 42.0714
36.415366444, 96.390, 1745.0, 41.7732
36.441627010, 96.390, 1764.0, 42.0000
36.467887575, 96.390, 1734.0, 41.6413
36.494148140, 96.390, 1842.0, 42.9185
36.520408706, 96.390, 1779.0, 42.1782
36.546669271, 96.390, 1801.0, 42.4382
36.572929836, 96.390, 1799.0, 42.4146
36.599190402, 96.390, 1849.0, 43.0000
36.625450967, 96.390, 1727.0, 41.5572
36.651711532, 96.390, 1746.0, 41.7852
36.677972098, 96.390, 1784.0, 42.2374
36.704232663, 96.390, 1761.0, 41.9643
36.730493228, 96.390, 1748.0, 41.8091
36.756753794, 96.390, 1814.0, 42.5911
36.783014359, 96.390, 1791.0, 42.3202
36.809274924, 96.390, 1775.0, 42.1307
36.835535490, 96.390, 1721.0, 41.4849
36.861796055, 96.390, 1655.0, 40.6817
36.888056621, 96.390, 1713.0, 41.3884
36.914317186, 96.390, 1803.0, 42.4617
36.940577751, 96.390, 1685.0, 41.0488
36.966838317, 96.390, 1791.0, 42.3202
36.993098882, 96.390, 1787.0, 42.2729
37.019359447, 96.390, 1673.0, 40.9023
37.045620013, 96.390, 1710.0, 41.3521
37.071880578, 96.390, 1624.0, 40.2989
37.098141143, 96.390, 1689.0, 41.0974
37.124401709, 96.390, 1709.0, 41.3401
37.150662274, 96.390, 1676.0, 40.9390
37.176922839, 96.390, 1648.0, 40.5956
37.203183405, 96.390, 1658.0, 40.7185
37.229443970, 96.390, 1641.0, 40.5093
37.255704535, 96.390, 1559.0, 39.4842
37.281965101, 96.390, 1669.0, 40.8534
37.308225666, 96.390, 1650.0, 40.6202
37.334486232, 96.390, 1635.0, 40.4351
37.360746797, 96.390, 1560.0, 39.4968
37.387007362, 96.390, 1611.0, 40.1373
37.413267928, 96.390, 1728.0, 41.5692
37.439528493, 96.390, 1629.0, 40.3609
37.465789058, 96.390, 1710.0, 41.3521
37.492049624, 96.390, 1623.0, 40.2865
37.518310189, 96.390, 1672.0, 40.8901
37.544570754, 96.390, 1611.0, 40.1373
37.570831320, 96.390, 1637.0, 40.4599
37.597091885, 96.390, 1639.0, 40.4846
37.623352450, 96.390, 1619.0, 40.2368
37.649613016, 96.390, 1590.0, 39.8748
37.675873581, 96.390, 1631.0, 40.3856
37.702134147, 96.390, 1637.0, 40.4599
37.728394712, 96.390, 1615.0, 40.1871
37.754655277, 96.390, 1635.0, 40.4351
37.780915843, 96.390, 1586.0, 39.8246
37.807176408, 96.390, 1682.0, 41.0122
37.833436973, 96.390, 1679.0, 40.9756
37.859697539, 96.390, 1724.0, 41.5211
37.885958104, 96.390, 1719.0, 41.4608
37.912218669, 96.390, 1601.0, 40.0125
37.938479235, 96.390, 1647.0, 40.5832
37.964739800, 96.390, 1699.0, 41.2189
37.991000365, 96.390, 1579.0, 39.7366
38.017260931, 96.390, 1728.0, 41.5692
38.043521496, 96.390, 1672.0, 40.8901
38.069782061, 96.390, 1697.0, 41.1947
38.096042627, 96.390, 1583.0, 39.7869
38.122303192, 96.390, 1666.0, 40.8167
38.148563758, 96.390, 1590.0, 39.8748
38.174824323, 96.390, 1553.0, 39.4081
38.201084888, 96.390, 1602.0, 40.0250
38.227345454, 96.390, 1616.0, 40.1995
38.253606019, 96.390, 1564.0, 39.5474
38.279866584, 96.390, 1609.0, 40.1123
38.306127150, 96.390, 1486.0, 38.5487
38.332387715, 96.390, 1646.0, 40.5709
38.358648280, 96.390, 1556.0, 39.4462
38.384908846, 96.390, 1633.0, 40.4104
38.411169411, 96.390, 1616.0, 40.1995
38.437429976, 96.390, 1621.0, 40.2616
38.463690542, 96.390, 1686.0, 41.0609
38.489951107, 96.390, 1541.0, 39.2556
38.516211673, 96.390, 1541.0, 39.2556
38.542472238, 96.390, 1560.0, 39.4968
38.568732803, 96.390, 1569.0, 39.6106
38.594993369, 96.390, 1632.0, 40.3980
38.621253934, 96.390, 1576.0, 39.6989
38.647514499, 96.390, 1611.0, 40.1373
38.673775065, 96.390, 1594.0, 39.9249
38.700035630, 96.390, 1572.0, 39.6485
38.726296195, 96.390, 1539.0, 39.2301
38.752556761, 96.390, 1609.0, 40.1123
38.778817326, 96.390, 1586.0, 39.8246
38.805077891, 96.390, 1580.0, 39.7492
38.831338457, 96.390, 1591.0, 39.8873
38.857599022, 96.390, 1622.0, 40.2741
38.883859587, 96.390, 1615.0, 40.1871
38.910120153, 96.390, 1675.0, 40.9268
38.936380718, 96.390, 1565.0, 39.5601
38.962641284, 96.390, 1591.0, 39.8873
38.988901849, 96.390, 1562.0, 39.5221
39.015162414, 96.390, 1577.0, 39.7115
39.041422980, 96.390, 1540.0, 39.2428
39.067683545, 96.390, 1589.0, 39.8623
39.093944110, 96.390, 1648.0, 40.5956
39.120204676, 96.390, 1619.0, 40.2368
39.146465241, 96.390, 1546.0, 39.3192
39.172725806, 96.390, 1514.0, 38.9102
39.198986372, 96.390, 1550.0, 39.3700
39.225246937, 96.390, 1582.0, 39.7744
39.251507502, 96.390, 1513.0, 38.8973
39.277768068, 96.390, 1513.0, 38.8973
39.304028633, 96.390, 1504.0, 38.7814
39.330289199, 96.390, 1497.0, 38.6911
39.356549764, 96.390, 1527.0, 39.0768
39.382810329, 96.390, 1564.0, 39.5474
39.409070895, 96.390, 1493.0, 38.6394
39.435331460, 96.390, 1531.0, 39.1280
39.461592025, 96.390, 1464.0, 38.2623
39.487852591, 96.390, 1436.0, 37.8946
39.514113156, 96.390, 1549.0, 39.3573
39.540373721, 96.390, 1507.0, 38.8201
39.566634287, 96.390, 1449.0, 38.0657
39.592894852, 96.390, 1522.0, 39.0128
39.619155417, 96.390, 1464.0, 38.2623
39.645415983, 96.390, 1445.0, 38.0132
39.671676548, 96.390, 1521.0, 39.0000
39.697937113, 96.390, 1414.0, 37.6032
39.724197679, 96.390, 1456.0, 38.1576
39.750458244, 96.390, 1412.0, 37.5766
39.776718810, 96.390, 1493.0, 38.6394
39.802979375, 96.390, 1484.0, 38.5227
39.829239940, 96.390, 1472.0, 38.3667
39.855500506, 96.390, 1416.0, 37.6298
39.881761071, 96.390, 1378.0, 37.1214
39.908021636, 96.390, 1437.0, 37.9078
39.934282202, 96.390, 1394.0, 37.3363
39.960542767, 96.390, 1410.0, 37.5500
39.986803332, 96.390, 1456.0, 38.1576
40.013063898, 96.390, 1468.0, 38.3145
40.039324463, 96.390, 1389.0, 37.2693
40.065585028, 96.390, 1372.0, 37.0405
40.091845594, 96.390, 1392.0, 37.3095
40.118106159, 96.390, 1317.0, 36.2905
40.144366725, 96.390, 1444.0, 38.0000
40.170627290, 96.390, 1419.0, 37.6696
40.196887855, 96.390, 1349.0, 36.7287
40.223148421, 96.390, 1367.0, 36.9730
40.249408986, 96.390, 1388.0, 37.2559
40.275669551, 96.390, 1339.0, 36.5923
40.301930117, 96.390, 1377.0, 37.1080
40.328190682, 96.390, 1353.0, 36.7831
40.354451247, 96.390, 1326.0, 36.4143
40.380711813, 96.390, 1293.0, 35.9583
40.406972378, 96.390, 1305.0, 36.1248
40.433232943, 96.390, 1372.0, 37.0405
40.459493509, 96.390, 1300.0, 36.0555
40.485754074, 96.390, 1247.0, 35.3129
40.512014639, 96.390, 1307.0, 36.1525
40.538275205, 96.390, 1388.0, 37.2559
40.564535770, 96.390, 1303.0, 36.0971
40.590796336, 96.390, 1263.0, 35.5387
40.617056901, 96.390, 1250.0, 35.3553
40.643317466, 96.390, 1274.0, 35.6931
40.669578032, 96.390, 1280.0, 35.7771
40.695838597, 96.390, 1297.0, 36.0139
40.722099162, 96.390, 1288.0, 35.8887
40.748359728, 96.390, 1250.0, 35.3553
40.774620293, 96.390, 1277.0, 35.7351
40.800880858, 96.390, 1269.0, 35.6230
40.827141424, 96.390, 1287.0, 35.8748
40.853401989, 96.390, 1229.0, 35.0571
40.879662554, 96.390, 1188.0, 34.4674
40.905923120, 96.390, 1249.0, 35.3412
40.932183685, 96.390, 1326.0, 36.4143
40.958444251, 96.390, 1334.0, 36.5240
40.984704816, 96.390, 1229.0, 35.0571
41.010965381, 96.390, 1275.0, 35.7071
41.037225947, 96.390, 1258.0, 35.4683
41.063486512, 96.390, 1344.0, 36.6606
41.089747077, 96.390, 1338.0, 36.5787
41.116007643, 96.390, 1285.0, 35.8469
41.142268208, 96.390, 1320.0, 36.3318
41.168528773, 96.390, 1338.0, 36.5787
41.194789339, 96.390, 1366.0, 36.9594
41.221049904, 96.390, 1289.0, 35.9026
41.247310469, 96.390, 1303.0, 36.0971
41.273571035, 96.390, 1292.0, 35.9444
41.299831600, 96.390, 1258.0, 35.4683
41.326092165, 96.390, 1245.0, 35.2846
41.352352731, 96.390, 1276.0, 35.7211
41.378613296, 96.390, 1218.0, 34.8999
41.404873862, 96.390, 1250.0, 35.3553
41.431134427, 96.390, 1202.0, 34.6699
41.457394992, 96.390, 1292.0, 35.9444
41.483655558, 96.390, 1225.0, 35.0000
41.509916123, 96.390, 1264.0, 35.5528
41.536176688, 96.390, 1240.0, 35.2136
41.562437254, 96.390, 1183.0, 34.3948
41.588697819, 96.390, 1199.0, 34.6266
41.614958384, 96.390, 1171.0, 34.2199
41.641218950, 96.390, 1186.0, 34.4384
41.667479515, 96.390, 1209.0, 34.7707
41.693740080, 96.390, 1162.0, 34.0881
41.720000646, 96.390, 1135.0, 33.6898
41.746261211, 96.390, 1150.0, 33.9116
41.772521776, 96.390, 1147.0, 33.8674
41.798782342, 96.390, 1180.0, 34.3511
41.825042907, 96.390, 1105.0, 33.2415
41.851303473, 96.390, 1155.0, 33.9853
41.877564038, 96.390, 1161.0, 34.0735
41.903824603, 96.390, 1171.0, 34.2199
41.930085169, 96.390, 1147.0, 33.8674
41.956345734, 96.390, 1105.0, 33.2415
41.982606299, 96.390, 1164.0, 34.1174
42.008866865, 96.390, 1159.0, 34.0441
42.035127430, 96.390, 1149.0, 33.8969
42.061387995, 96.390, 1217.0, 34.8855
42.087648561, 96.390, 1173.0, 34.2491
42.113909126, 96.390, 1210.0, 34.7851
42.140169691, 96.390, 1175.0, 34.2783
42.166430257, 96.390, 1120.0, 33.4664
42.192690822, 96.390, 1141.0, 33.7787
42.218951388, 96.390, 1143.0, 33.8083
42.245211953, 96.390, 1142.0, 33.7935
42.271472518, 96.390, 1108.0, 33.2866
42.297733084, 96.390, 1154.0, 33.9706
42.323993649, 96.390, 1125.0, 33.5410
42.350254214, 96.390, 1212.0, 34.8138
42.376514780, 96.390, 1153.0, 33.9559
42.402775345, 96.390, 1183.0, 34.3948
42.429035910, 96.390, 1145.0, 33.8378
42.455296476, 96.390, 1085.0, 32.9393
42.481557041, 96.390, 1154.0, 33.9706
42.507817606, 96.390, 1132.0, 33.6452
42.534078172, 96.390, 1214.0, 34.8425
42.560338737, 96.390, 1173.0, 34.2491
42.586599302, 96.390, 1162.0, 34.0881
42.612859868, 96.390, 1086.0, 32.9545
42.639120433, 96.390, 1143.0, 33.8083
42.665380999, 96.390, 1162.0, 34.0881
42.691641564, 96.390, 1055.0, 32.4808
42.717902129, 96.390, 1059.0, 32.5423
42.744162695, 96.390, 1132.0, 33.6452
42.770423260, 96.390, 1131.0, 33.6303
42.796683825, 96.390, 1076.0, 32.8024
42.822944391, 96.390, 1052.0, 32.4345
42.849204956, 96.390, 1068.0, 32.6803
42.875465521, 96.390, 1092.0, 33.0454
42.901726087, 96.390, 1107.0, 33.2716
42.927986652, 96.390, 1110.0, 33.3167
42.954247217, 96.390, 1072.0, 32.7414
42.980507783, 96.390, 1142.0, 33.7935
43.006768348, 96.390, 1031.0, 32.1092
43.033028914, 96.390, 1065.0, 32.6343
43.059289479, 96.390, 1073.0, 32.7567
43.085550044, 96.390, 1115.0, 33.3916
43.111810610, 96.390, 1133.0, 33.6601
43.138071175, 96.390, 1122.0, 33.4963
43.164331740, 96.390, 1119.0, 33.4515
43.190592306, 96.390, 1035.0, 32.1714
43.216852871, 96.390, 1078.0, 32.8329
43.243113436, 96.390, 1082.0, 32.8938
43.269374002, 96.390, 1069.0, 32.6956
43.295634567, 96.390, 1152.0, 33.9411
43.321895132, 96.390, 1097.0, 33.1210
43.348155698, 96.390, 1065.0, 32.6343
43.374416263, 96.390, 1114.0, 33.3766
43.400676828, 96.390, 1051.0, 32.4191
43.426937394, 96.390, 1099.0, 33.1512
43.453197959, 96.390, 1040.0, 32.2490
43.479458525, 96.390, 1148.0, 33.8821
43.505719090, 96.390, 1049.0, 32.3883
43.531979655, 96.390, 1105.0, 33.2415
43.558240221, 96.390, 1070.0, 32.7109
43.584500786, 96.390, 1108.0, 33.2866
43.610761351, 96.390, 1089.0, 33.0000
43.637021917, 96.390, 1109.0, 33.3017
43.663282482, 96.390, 1103.0, 33.2114
43.689543047, 96.390, 1205.0, 34.7131
43.715803613, 96.390, 1130.0, 33.6155
43.742064178, 96.390, 1168.0, 34.1760
43.768324743, 96.390, 1121.0, 33.4813
43.794585309, 96.390, 1189.0, 34.4819
43.820845874, 96.390, 1129.0, 33.6006
43.847106440, 96.390, 1211.0, 34.7994
43.873367005, 96.390, 1160.0, 34.0588
43.899627570, 96.390, 1177.0, 34.3074
43.925888136, 96.390, 1183.0, 34.3948
43.952148701, 96.390, 1139.0, 33.7491
43.978409266, 96.390, 1151.0, 33.9264
44.004669832, 96.390, 1101.0, 33.1813
44.030930397, 96.390, 1095.0, 33.0908
44.057190962, 96.390, 1098.0, 33.1361
44.083451528, 96.390, 1068.0, 32.6803
44.109712093, 96.390, 1114.0, 33.3766
44.135972658, 96.390, 1143.0, 33.8083
44.162233224, 96.390, 1077.0, 32.8177
44.188493789, 96.390, 1186.0, 34.4384
44.214754354, 96.390, 1064.0, 32.6190
44.241014920, 96.390, 1139.0, 33.7491
44.267275485, 96.390, 1101.0, 33.1813
44.293536051, 96.390, 1110.0, 33.3167
44.319796616, 96.390, 1113.0, 33.3617
44.346057181, 96.390, 1078.0, 32.8329
44.372317747, 96.390, 1077.0, 32.8177
44.398578312, 96.390, 1132.0, 33.6452
44.424838877, 96.390, 1116.0, 33.4066
44.451099443, 96.390, 1119.0, 33.4515
44.477360008, 96.390, 1139.0, 33.7491
44.503620573, 96.390, 1111.0, 33.3317
44.529881139, 96.390, 1129.0, 33.6006
44.556141704, 96.390, 1147.0, 33.8674
44.582402269, 96.390, 1040.0, 32.2490
44.608662835, 96.390, 1075.0, 32.7872
44.634923400, 96.390, 1176.0, 34.2929
44.661183966, 96.390, 1140.0, 33.7639
44.687444531, 96.390, 1107.0, 33.2716
44.713705096, 96.390, 1090.0, 33.0151
44.739965662, 96.390, 1118.0, 33.4365
44.766226227, 96.390, 1131.0, 33.6303
44.792486792, 96.390, 1083.0, 32.9090
44.818747358, 96.390, 1051.0, 32.4191
44.845007923, 96.390, 1105.0, 33.2415
44.871268488, 96.390, 1101.0, 33.1813
44.897529054, 96.390, 1142.0, 33.7935
44.923789619, 96.390, 1047.0, 32.3574
44.950050184, 96.390, 1062.0, 32.5883
44.976310750, 96.390, 1075.0, 32.7872
45.002571315, 96.390, 1100.0, 33.1662
45.028831880, 96.390, 1145.0, 33.8378
45.055092446, 96.390, 1124.0, 33.5261
45.081353011, 96.390, 1075.0, 32.7872
45.107613577, 96.390, 1102.0, 33.1964
45.133874142, 96.390, 1042.0, 32.2800
45.160134707, 96.390, 1085.0, 32.9393
45.186395273, 96.390, 1157.0, 34.0147
45.212655838, 96.390, 1178.0, 34.3220
45.238916403, 96.390, 1074.0, 32.7719
45.265176969, 96.390, 1133.0, 33.6601
45.291437534, 96.390, 1157.0, 34.0147
45.317698099, 96.390, 1185.0, 34.4238
45.343958665, 96.390, 1138.0, 33.7343
45.370219230, 96.390, 1106.0, 33.2566
45.396479795, 96.390, 1144.0, 33.8231
45.422740361, 96.390, 1208.0, 34.7563
45.449000926, 96.390, 1102.0, 33.1964
45.475261492, 96.390, 1180.0, 34.3511
45.501522057, 96.390, 1235.0, 35.1426
45.527782622, 96.390, 1131.0, 33.6303
45.554043188, 96.390, 1158.0, 34.0294
45.580303753, 96.390, 1178.0, 34.3220
45.606564318, 96.390, 1184.0, 34.4093
45.632824884, 96.390, 1219.0, 34.9142
45.659085449, 96.390, 1247.0, 35.3129
45.685346014, 96.390, 1221.0, 34.9428
45.711606580, 96.390, 1197.0, 34.5977
45.737867145, 96.390, 1212.0, 34.8138
45.764127710, 96.390, 1167.0, 34.1614
45.790388276, 96.390, 1216.0, 34.8712
45.816648841, 96.390, 1218.0, 34.8999
45.842909406, 96.390, 1215.0, 34.8569
45.869169972, 96.390, 1150.0, 33.9116
45.895430537, 96.390, 1212.0, 34.8138
45.921691103, 96.390, 1142.0, 33.7935
45.947951668, 96.390, 1146.0, 33.8526
45.974212233, 96.390, 1132.0, 33.6452
46.000472799, 96.390, 1143.0, 33.8083
46.026733364, 96.390, 1185.0, 34.4238
46.052993929, 96.390, 1169.0, 34.1906
46.079254495, 96.390, 1190.0, 34.4964
46.105515060, 96.390, 1144.0, 33.8231
46.131775625, 96.390, 1139.0, 33.7491
46.158036191, 96.390, 1228.0, 35.0428
46.184296756, 96.390, 1225.0, 35.0000
46.210557321, 96.390, 1189.0, 34.4819
46.236817887, 96.390, 1153.0, 33.9559
46.263078452, 96.390, 1171.0, 34.2199
46.289339017, 96.390, 1135.0, 33.6898
46.315599583, 96.390, 1082.0, 32.8938
46.341860148, 96.390, 1168.0, 34.1760
46.368120714, 96.390, 1184.0, 34.4093
46.394381279, 96.390, 1158.0, 34.0294
46.420641844, 96.390, 1085.0, 32.9393
46.446902410, 96.390, 1127.0, 33.5708
46.473162975, 96.390, 1139.0, 33.7491
46.499423540, 96.390, 1194.0, 34.5543
46.525684106, 96.390, 1120.0, 33.4664
46.551944671, 96.390, 1159.0, 34.0441
46.578205236, 96.390, 1167.0, 34.1614
46.604465802, 96.390, 1095.0, 33.0908
46.630726367, 96.390, 1112.0, 33.3467
46.656986932, 96.390, 1161.0, 34.0735
46.683247498, 96.390, 1059.0, 32.5423
46.709508063, 96.390, 1164.0, 34.1174
46.735768629, 96.390, 1091.0, 33.0303
46.762029194, 96.390, 1180.0, 34.3511
46.788289759, 96.390, 1129.0, 33.6006
46.814550325, 96.390, 1157.0, 34.0147
46.840810890, 96.390, 1123.0, 33.5112
46.867071455, 96.390, 1118.0, 33.4365
46.893332021, 96.390, 1057.0, 32.5115
46.919592586, 96.390, 1125.0, 33.5410
46.945853151, 96.390, 1068.0, 32.6803
46.972113717, 96.390, 1045.0, 32.3265
46.998374282, 96.390, 1115.0, 33.3916
47.024634847, 96.390, 1051.0, 32.4191
47.050895413, 96.390, 1059.0, 32.5423
47.077155978, 96.390, 1080.0, 32.8634
47.103416543, 96.390, 1070.0, 32.7109
47.129677109, 96.390, 1112.0, 33.3467
47.155937674, 96.390, 1043.0, 32.2955
47.182198240, 96.390, 1053.0, 32.4500
47.208458805, 96.390, 1102.0, 33.1964
47.234719370, 96.390, 1120.0, 33.4664
47.260979936, 96.390, 1116.0, 33.4066
47.287240501, 96.390, 1204.0, 34.6987
47.313501066, 96.390, 1193.0, 34.5398
47.339761632, 96.390, 1192.0, 34.5254
47.366022197, 96.390, 1142.0, 33.7935
47.392282762, 96.390, 1186.0, 34.4384
47.418543328, 96.390, 1156.0, 34.0000
47.444803893, 96.390, 1173.0, 34.2491
47.471064458, 96.390, 1126.0, 33.5559
47.497325024, 96.390, 1166.0, 34.1467
47.523585589, 96.390, 1080.0, 32.8634
47.549846155, 96.390, 1100.0, 33.1662
47.576106720, 96.390, 1128.0, 33.5857
47.602367285, 96.390, 1082.0, 32.8938
47.628627851, 96.390, 1095.0, 33.0908
47.654888416, 96.390, 1135.0, 33.6898
47.681148981, 96.390, 1023.0, 31.9844
47.707409547, 96.390, 987.0, 31.4166
47.733670112, 96.390, 1039.0, 32.2335
47.759930677, 96.390, 1009.0, 31.7648
47.786191243, 96.390, 988.0, 31.4325
47.812451808, 96.390, 1037.0, 32.2025
47.838712373, 96.390, 1016.0, 31.8748
47.864972939, 96.390, 1122.0, 33.4963
47.891233504, 96.390, 1014.0, 31.8434
47.917494069, 96.390, 999.0, 31.6070
47.943754635, 96.390, 994.0, 31.5278
47.970015200, 96.390, 976.0, 31.2410
47.996275766, 96.390, 1034.0, 32.1559
48.022536331, 96.390, 1084.0, 32.9242
48.048796896, 96.390, 1010.0, 31.7805
48.075057462, 96.390, 1028.0, 32.0624
48.101318027, 96.390, 1044.0, 32.3110
48.127578592, 96.390, 1047.0, 32.3574
48.153839158, 96.390, 1053.0, 32.4500
48.180099723, 96.390, 1094.0, 33.0757
48.206360288, 96.390, 1058.0, 32.5269
48.232620854, 96.390, 1069.0, 32.6956
48.258881419, 96.390, 1094.0, 33.0757
48.285141984, 96.390, 1091.0, 33.0303
48.311402550, 96.390, 1113.0, 33.3617
48.337663115, 96.390, 1118.0, 33.4365
48.363923681, 96.390, 1113.0, 33.3617
48.390184246, 96.390, 1100.0, 33.1662
48.416444811, 96.390, 1021.0, 31.9531
48.442705377, 96.390, 1114.0, 33.3766
48.468965942, 96.390, 1112.0, 33.3467
48.495226507, 96.390, 1098.0, 33.1361
48.521487073, 96.390, 1057.0, 32.5115
48.547747638, 96.390, 1091.0, 33.0303
48.574008203, 96.390, 1060.0, 32.5576
48.600268769, 96.390, 1063.0, 32.6037
48.626529334, 96.390, 1029.0, 32.0780
48.652789899, 96.390, 1056.0, 32.4962
48.679050465, 96.390, 985.0, 31.3847
48.705311030, 96.390, 1096.0, 33.1059
48.731571595, 96.390, 1031.0, 32.1092
48.757832161, 96.390, 1081.0, 32.8786
48.784092726, 96.390, 1024.0, 32.0000
48.810353292, 96.390, 1039.0, 32.2335
48.836613857, 96.390, 1052.0, 32.4345
48.862874422, 96.390, 1064.0, 32.6190
48.889134988, 96.390, 1066.0, 32.6497
48.915395553, 96.390, 1016.0, 31.8748
48.941656118, 96.390, 1093.0, 33.0606
48.967916684, 96.390, 1035.0, 32.1714
48.994177249, 96.390, 1128.0, 33.5857
49.020437814, 96.390, 1076.0, 32.8024
49.046698380, 96.390, 1091.0, 33.0303
49.072958945, 96.390, 1093.0, 33.0606
49.099219510, 96.390, 1053.0, 32.4500
49.125480076, 96.390, 1095.0, 33.0908
49.151740641, 96.390, 1107.0, 33.2716
49.178001207, 96.390, 1086.0, 32.9545
49.204261772, 96.390, 1088.0, 32.9848
49.230522337, 96.390, 1064.0, 32.6190
49.256782903, 96.390, 1083.0, 32.9090
49.283043468, 96.390, 1081.0, 32.8786
49.309304033, 96.390, 1106.0, 33.2566
49.335564599, 96.390, 1007.0, 31.7333
49.361825164, 96.390, 1061.0, 32.5730
49.388085729, 96.390, 1035.0, 32.1714
49.414346295, 96.390, 1061.0, 32.5730
49.440606860, 96.390, 1140.0, 33.7639
49.466867425, 96.390, 1044.0, 32.3110
49.493127991, 96.390, 1070.0, 32.7109
49.519388556, 96.390, 1057.0, 32.5115
49.545649121, 96.390, 980.0, 31.3050
49.571909687, 96.390, 949.0, 30.8058
49.598170252, 96.390, 1015.0, 31.8591
49.624430818, 96.390, 1030.0, 32.0936
49.650691383, 96.390, 982.0, 31.3369
49.676951948, 96.390, 978.0, 31.2730
49.703212514, 96.390, 1029.0, 32.0780
49.729473079, 96.390, 994.0, 31.5278
49.755733644, 96.390, 913.0, 30.2159
49.781994210, 96.390, 902.0, 30.0333
49.808254775, 96.390, 948.0, 30.7896
49.834515340, 96.390, 899.0, 29.9833
49.860775906, 96.390, 911.0, 30.1828
49.887036471, 96.390, 915.0, 30.2490
49.913297036, 96.390, 882.0, 29.6985
49.939557602, 96.390, 907.0, 30.1164
49.965818167, 96.390, 864.0, 29.3939
49.992078733, 96.390, 893.0, 29.8831
50.018339298, 96.390, 919.0, 30.3150
50.044599863, 96.390, 879.0, 29.6479
50.070860429, 96.390, 949.0, 30.8058
50.097120994, 96.390, 889.0, 29.8161
50.123381559, 96.390, 895.0, 29.9166
50.149642125, 96.390, 890.0, 29.8329
50.175902690, 96.390, 910.0, 30.1662
50.202163255, 96.390, 913.0, 30.2159
50.228423821, 96.390, 905.0, 30.0832
50.254684386, 96.390, 863.0, 29.3769
50.280944951, 96.390, 925.0, 30.4138
50.307205517, 96.390, 828.0, 28.7750
50.333466082, 96.390, 910.0, 30.1662
50.359726647, 96.390, 937.0, 30.6105
50.385987213, 96.390, 874.0, 29.5635
50.412247778, 96.390, 898.0, 29.9666
50.438508344, 96.390, 829.0, 28.7924
50.464768909, 96.390, 856.0, 29.2575
50.491029474, 96.390, 855.0, 29.2404
50.517290040, 96.390, 836.0, 28.9137
50.543550605, 96.390, 858.0, 29.2916
50.569811170, 96.390, 868.0, 29.4618
50.596071736, 96.390, 896.0, 29.9333
50.622332301, 96.390, 866.0, 29.4279
50.648592866, 96.390, 862.0, 29.3598
50.674853432, 96.390, 904.0, 30.0666
50.701113997, 96.390, 873.0, 29.5466
50.727374562, 96.390, 819.0, 28.6182
50.753635128, 96.390, 883.0, 29.7153
50.779895693, 96.390, 900.0, 30.0000
50.806156258, 96.390, 866.0, 29.4279
50.832416824, 96.390, 856.0, 29.2575
50.858677389, 96.390, 845.0, 29.0689
50.884937955, 96.390, 857.0, 29.2746
50.911198520, 96.390, 825.0, 28.7228
50.937459085, 96.390, 840.0, 28.9828
50.963719651, 96.390, 861.0, 29.3428
50.989980216, 96.390, 852.0, 29.1890
51.016240781, 96.390, 887.0, 29.7825
51.042501347, 96.390, 831.0, 28.8271
51.068761912, 96.390, 856.0, 29.2575
51.095022477, 96.390, 845.0, 29.0689
51.121283043, 96.390, 872.0, 29.5296
51.147543608, 96.390, 822.0, 28.6705
51.173804173, 96.390, 836.0, 28.9137
51.200064739, 96.390, 836.0, 28.9137
51.226325304, 96.390, 758.0, 27.5318
51.252585870, 96.390, 855.0, 29.2404
51.278846435, 96.390, 891.0, 29.8496
51.305107000, 96.390, 851.0, 29.1719
51.331367566, 96.390, 830.0, 28.8097
51.357628131, 96.390, 844.0, 29.0517
51.383888696, 96.390, 818.0, 28.6007
51.410149262, 96.390, 799.0, 28.2666
51.436409827, 96.390, 778.0, 27.8927
51.462670392, 96.390, 810.0, 28.4605
51.488930958, 96.390, 823.0, 28.6880
51.515191523, 96.390, 891.0, 29.8496
51.541452088, 96.390, 840.0, 28.9828
51.567712654, 96.390, 798.0, 28.2489
51.593973219, 96.390, 814.0, 28.5307
51.620233784, 96.390, 828.0, 28.7750
51.646494350, 96.390, 785.0, 28.0179
51.672754915, 96.390, 827.0, 28.7576
51.699015481, 96.390, 801.0, 28.3019
51.725276046, 96.390, 808.0, 28.4253
51.751536611, 96.390, 867.0, 29.4449
51.777797177, 96.390, 831.0, 28.8271
51.804057742, 96.390, 790.0, 28.1069
51.830318307, 96.390, 810.0, 28.4605
51.856578873, 96.390, 741.0, 27.2213
51.882839438, 96.390, 771.0, 27.7669
51.909100003, 96.390, 779.0, 27.9106
51.935360569, 96.390, 808.0, 28.4253
51.961621134, 96.390, 823.0, 28.6880
51.987881699, 96.390, 826.0, 28.7402
52.014142265, 96.390, 853.0, 29.2062
52.040402830, 96.390, 817.0, 28.5832
52.066663396, 96.390, 775.0, 27.8388
52.092923961, 96.390, 793.0, 28.1603
52.119184526, 96.390, 859.0, 29.3087
52.145445092, 96.390, 865.0, 29.4109
52.171705657, 96.390, 859.0, 29.3087
52.197966222, 96.390, 895.0, 29.9166
52.224226788, 96.390, 863.0, 29.3769
52.250487353, 96.390, 902.0, 30.0333
52.276747918, 96.390, 861.0, 29.3428
52.303008484, 96.390, 922.0, 30.3645
52.329269049, 96.390, 923.0, 30.3809
52.355529614, 96.390, 942.0, 30.6920
52.381790180, 96.390, 860.0, 29.3258
52.408050745, 96.390, 910.0, 30.1662
52.434311310, 96.390, 860.0, 29.3258
52.460571876, 96.390, 945.0, 30.7409
52.486832441, 96.390, 873.0, 29.5466
52.513093007, 96.390, 868.0, 29.4618
52.539353572, 96.390, 859.0, 29.3087
52.565614137, 96.390, 839.0, 28.9655
52.591874703, 96.390, 841.0, 29.0000
52.618135268, 96.390, 838.0, 28.9482
52.644395833, 96.390, 840.0, 28.9828
52.670656399, 96.390, 783.0, 27.9821
52.696916964, 96.390, 782.0, 27.9643
52.723177529, 96.390, 852.0, 29.1890
52.749438095, 96.390, 831.0, 28.8271
52.775698660, 96.390, 828.0, 28.7750
52.801959225, 96.390, 845.0, 29.0689
52.828219791, 96.390, 825.0, 28.7228
52.854480356, 96.390, 846.0, 29.0861
52.880740922, 96.390, 812.0, 28.4956
52.907001487, 96.390, 744.0, 27.2764
52.933262052, 96.390, 785.0, 28.0179
52.959522618, 96.390, 780.0, 27.9285
52.985783183, 96.390, 849.0, 29.1376
53.012043748, 96.390, 802.0, 28.3196
53.038304314, 96.390, 838.0, 28.9482
53.064564879, 96.390, 807.0, 28.4077
53.090825444, 96.390, 842.0, 29.0172
53.117086010, 96.390, 815.0, 28.5482
53.143346575, 96.390, 848.0, 29.1204
53.169607140, 96.390, 817.0, 28.5832
53.195867706, 96.390, 851.0, 29.1719
53.222128271, 96.390, 832.0, 28.8444
53.248388836, 96.390, 826.0, 28.7402
53.274649402, 96.390, 787.0, 28.0535
53.300909967, 96.390, 814.0, 28.5307
53.327170533, 96.390, 827.0, 28.7576
53.353431098, 96.390, 840.0, 28.9828
53.379691663, 96.390, 844.0, 29.0517
53.405952229, 96.390, 868.0, 29.4618
53.432212794, 96.390, 859.0, 29.3087
53.458473359, 96.390, 875.0, 29.5804
53.484733925, 96.390, 887.0, 29.7825
53.510994490, 96.390, 907.0, 30.1164
53.537255055, 96.390, 854.0, 29.2233
53.563515621, 96.390, 893.0, 29.8831
53.589776186, 96.390, 909.0, 30.1496
53.616036751, 96.390, 880.0, 29.6648
53.642297317, 96.390, 897.0, 29.9500
53.668557882, 96.390, 885.0, 29.7489
53.694818448, 96.390, 827.0, 28.7576
53.721079013, 96.390, 849.0, 29.1376
53.747339578, 96.390, 864.0, 29.3939
53.773600144, 96.390, 831.0, 28.8271
53.799860709, 96.390, 786.0, 28.0357
53.826121274, 96.390, 820.0, 28.6356
53.852381840, 96.390, 843.0, 29.0345
53.878642405, 96.390, 802.0, 28.3196
53.904902970, 96.390, 837.0, 28.9310
53.931163536, 96.390, 818.0, 28.6007
53.957424101, 96.390, 829.0, 28.7924
53.983684666, 96.390, 826.0, 28.7402
54.009945232, 96.390, 773.0, 27.8029
54.036205797, 96.390, 768.0, 27.7128
54.062466362, 96.390, 774.0, 27.8209
54.088726928, 96.390, 827.0, 28.7576
54.114987493, 96.390, 729.0, 27.0000
54.141248059, 96.390, 796.0, 28.2135
54.167508624, 96.390, 815.0, 28.5482
54.193769189, 96.390, 849.0, 29.1376
54.220029755, 96.390, 792.0, 28.1425
54.246290320, 96.390, 785.0, 28.0179
54.272550885, 96.390, 814.0, 28.5307
54.298811451, 96.390, 778.0, 27.8927
54.325072016, 96.390, 766.0, 27.6767
54.351332581, 96.390, 789.0, 28.0891
54.377593147, 96.390, 787.0, 28.0535
54.403853712, 96.390, 803.0, 28.3373
54.430114277, 96.390, 739.0, 27.1846
54.456374843, 96.390, 854.0, 29.2233
54.482635408, 96.390, 758.0, 27.5318
54.508895973, 96.390, 796.0, 28.2135
54.535156539, 96.390, 785.0, 28.0179
54.561417104, 96.390, 846.0, 29.0861
54.587677670, 96.390, 778.0, 27.8927
54.613938235, 96.390, 802.0, 28.3196
54.640198800, 96.390, 762.0, 27.6043
54.666459366, 96.390, 762.0, 27.6043
54.692719931, 96.390, 773.0, 27.8029
54.718980496, 96.390, 783.0, 27.9821
54.745241062, 96.390, 725.0, 26.9258
54.771501627, 96.390, 730.0, 27.0185
54.797762192, 96.390, 780.0, 27.9285
54.824022758, 96.390, 844.0, 29.0517
54.850283323, 96.390, 773.0, 27.8029
54.876543888, 96.390, 788.0, 28.0713
54.902804454, 96.390, 802.0, 28.3196
54.929065019, 96.390, 805.0, 28.3725
54.955325585, 96.390, 799.0, 28.2666
54.981586150, 96.390, 675.0, 25.9808
55.007846715, 96.390, 763.0, 27.6225
55.034107281, 96.390, 819.0, 28.6182
55.060367846, 96.390, 731.0, 27.0370
55.086628411, 96.390, 797.0, 28.2312
55.112888977, 96.390, 746.0, 27.3130
55.139149542, 96.390, 772.0, 27.7849
55.165410107, 96.390, 770.0, 27.7489
55.191670673, 96.390, 763.0, 27.6225
55.217931238, 96.390, 779.0, 27.9106
55.244191803, 96.390, 717.0, 26.7769
55.270452369, 96.390, 769.0, 27.7308
55.296712934, 96.390, 746.0, 27.3130
55.322973499, 96.390, 725.0, 26.9258
55.349234065, 96.390, 768.0, 27.7128
55.375494630, 96.390, 775.0, 27.8388
55.401755196, 96.390, 771.0, 27.7669
55.428015761, 96.390, 733.0, 27.0740
55.454276326, 96.390, 731.0, 27.0370
55.480536892, 96.390, 716.0, 26.7582
55.506797457, 96.390, 800.0, 28.2843
55.533058022, 96.390, 766.0, 27.6767
55.559318588, 96.390, 749.0, 27.3679
55.585579153, 96.390, 728.0, 26.9815
55.611839718, 96.390, 752.0, 27.4226
55.638100284, 96.390, 743.0, 27.2580
55.664360849, 96.390, 699.0, 26.4386
55.690621414, 96.390, 753.0, 27.4408
55.716881980, 96.390, 723.0, 26.8887
55.743142545, 96.390, 762.0, 27.6043
55.769403111, 96.390, 733.0, 27.0740
55.795663676, 96.390, 690.0, 26.2679
55.821924241, 96.390, 730.0, 27.0185
55.848184807, 96.390, 765.0, 27.6586
55.874445372, 96.390, 737.0, 27.1477
55.900705937, 96.390, 724.0, 26.9072
55.926966503, 96.390, 757.0, 27.5136
55.953227068, 96.390, 761.0, 27.5862
55.979487633, 96.390, 728.0, 26.9815
56.005748199, 96.390, 764.0, 27.6405
56.032008764, 96.390, 744.0, 27.2764
56.058269329, 96.390, 739.0, 27.1846
56.084529895, 96.390, 737.0, 27.1477
56.110790460, 96.390, 765.0, 27.6586
56.137051025, 96.390, 753.0, 27.4408
56.163311591, 96.390, 763.0, 27.6225
56.189572156, 96.390, 752.0, 27.4226
56.215832722, 96.390, 719.0, 26.8142
56.242093287, 96.390, 751.0, 27.4044
56.268353852, 96.390, 719.0, 26.8142
56.294614418, 96.390, 798.0, 28.2489
56.320874983, 96.390, 731.0, 27.0370
56.347135548, 96.390, 787.0, 28.0535
56.373396114, 96.390, 771.0, 27.7669
56.399656679, 96.390, 753.0, 27.4408
56.425917244, 96.390, 756.0, 27.4955
56.452177810, 96.390, 718.0, 26.7955
56.478438375, 96.390, 780.0, 27.9285
56.504698940, 96.390, 845.0, 29.0689
56.530959506, 96.390, 739.0, 27.1846
56.557220071, 96.390, 769.0, 27.7308
56.583480637, 96.390, 731.0, 27.0370
56.609741202, 96.390, 812.0, 28.4956
56.636001767, 96.390, 752.0, 27.4226
56.662262333, 96.390, 782.0, 27.9643
56.688522898, 96.390, 761.0, 27.5862
56.714783463, 96.390, 830.0, 28.8097
56.741044029, 96.390, 778.0, 27.8927
56.767304594, 96.390, 782.0, 27.9643
56.793565159, 96.390, 718.0, 26.7955
56.819825725, 96.390, 789.0, 28.0891
56.846086290, 96.390, 671.0, 25.9037
56.872346855, 96.390, 715.0, 26.7395
56.898607421, 96.390, 734.0, 27.0924
56.924867986, 96.390, 789.0, 28.0891
56.951128551, 96.390, 704.0, 26.5330
56.977389117, 96.390, 760.0, 27.5681
57.003649682, 96.390, 783.0, 27.9821
57.029910248, 96.390, 721.0, 26.8514
57.056170813, 96.390, 755.0, 27.4773
57.082431378, 96.390, 706.0, 26.5707
57.108691944, 96.390, 728.0, 26.9815
57.134952509, 96.390, 747.0, 27.3313
57.161213074, 96.390, 777.0, 27.8747
57.187473640, 96.390, 758.0, 27.5318
57.213734205, 96.390, 693.0, 26.3249
57.239994770, 96.390, 722.0, 26.8701
57.266255336, 96.390, 749.0, 27.3679
57.292515901, 96.390, 742.0, 27.2397
57.318776466, 96.390, 700.0, 26.4575
57.345037032, 96.390, 732.0, 27.0555
57.371297597, 96.390, 681.0, 26.0960
57.397558163, 96.390, 733.0, 27.0740
57.423818728, 96.390, 729.0, 27.0000
57.450079293, 96.390, 749.0, 27.3679
57.476339859, 96.390, 784.0, 28.0000
57.502600424, 96.390, 742.0, 27.2397
57.528860989, 96.390, 757.0, 27.5136
57.555121555, 96.390, 712.0, 26.6833
57.581382120, 96.390, 715.0, 26.7395
57.607642685, 96.390, 789.0, 28.0891
57.633903251, 96.390, 746.0, 27.3130
57.660163816, 96.390, 705.0, 26.5518
57.686424381, 96.390, 735.0, 27.1109
57.712684947, 96.390, 764.0, 27.6405
57.738945512, 96.390, 717.0, 26.7769
57.765206077, 96.390, 763.0, 27.6225
57.791466643, 96.390, 799.0, 28.2666
57.817727208, 96.390, 775.0, 27.8388
57.843987774, 96.390, 764.0, 27.6405
57.870248339, 96.390, 790.0, 28.1069
57.896508904, 96.390, 823.0, 28.6880
57.922769470, 96.390, 811.0, 28.4781
57.949030035, 96.390, 791.0, 28.1247
57.975290600, 96.390, 783.0, 27.9821
58.001551166, 96.390, 824.0, 28.7054
58.027811731, 96.390, 781.0, 27.9464
58.054072296, 96.390, 759.0, 27.5500
58.080332862, 96.390, 779.0, 27.9106
58.106593427, 96.390, 785.0, 28.0179
58.132853992, 96.390, 745.0, 27.2947
58.159114558, 96.390, 767.0, 27.6948
58.185375123, 96.390, 800.0, 28.2843
58.211635689, 96.390, 751.0, 27.4044
58.237896254, 96.390, 701.0, 26.4764
58.264156819, 96.390, 747.0, 27.3313
58.290417385, 96.390, 766.0, 27.6767
58.316677950, 96.390, 787.0, 28.0535
58.342938515, 96.390, 727.0, 26.9629
58.369199081, 96.390, 762.0, 27.6043
58.395459646, 96.390, 746.0, 27.3130
58.421720211, 96.390, 755.0, 27.4773
58.447980777, 96.390, 722.0, 26.8701
58.474241342, 96.390, 758.0, 27.5318
58.500501907, 96.390, 753.0, 27.4408
58.526762473, 96.390, 748.0, 27.3496
58.553023038, 96.390, 743.0, 27.2580
58.579283603, 96.390, 739.0, 27.1846
58.605544169, 96.390, 763.0, 27.6225
58.631804734, 96.390, 736.0, 27.1293
58.658065300, 96.390, 740.0, 27.2029
58.684325865, 96.390, 775.0, 27.8388
58.710586430, 96.390, 780.0, 27.9285
58.736846996, 96.390, 733.0, 27.0740
58.763107561, 96.390, 775.0, 27.8388
58.789368126, 96.390, 762.0, 27.6043
58.815628692, 96.390, 711.0, 26.6646
58.841889257, 96.390, 729.0, 27.0000
58.868149822, 96.390, 791.0, 28.1247
58.894410388, 96.390, 779.0, 27.9106
58.920670953, 96.390, 781.0, 27.9464
58.946931518, 96.390, 800.0, 28.2843
58.973192084, 96.390, 740.0, 27.2029
58.999452649, 96.390, 742.0, 27.2397
59.025713214, 96.390, 763.0, 27.6225
59.051973780, 96.390, 796.0, 28.2135
59.078234345, 96.390, 759.0, 27.5500
59.104494911, 96.390, 782.0, 27.9643
59.130755476, 96.390, 822.0, 28.6705
59.157016041, 96.390, 791.0, 28.1247
59.183276607, 96.390, 760.0, 27.5681
59.209537172, 96.390, 769.0, 27.7308
59.235797737, 96.390, 783.0, 27.9821
59.262058303, 96.390, 808.0, 28.4253
59.288318868, 96.390, 737.0, 27.1477
59.314579433, 96.390, 829.0, 28.7924
59.340839999, 96.390, 884.0, 29.7321
59.367100564, 96.390, 801.0, 28.3019
59.393361129, 96.390, 819.0, 28.6182
59.419621695, 96.390, 804.0, 28.3549
59.445882260, 96.390, 814.0, 28.5307
59.472142826, 96.390, 843.0, 29.0345
59.498403391, 96.390, 839.0, 28.9655
59.524663956, 96.390, 792.0, 28.1425
59.550924522, 96.390, 891.0, 29.8496
59.577185087, 96.390, 834.0, 28.8791
59.603445652, 96.390, 827.0, 28.7576
59.629706218, 96.390, 840.0, 28.9828
59.655966783, 96.390, 841.0, 29.0000
59.682227348, 96.390, 890.0, 29.8329
59.708487914, 96.390, 895.0, 29.9166
59.734748479, 96.390, 914.0, 30.2324
59.761009044, 96.390, 940.0, 30.6594
59.787269610, 96.390, 885.0, 29.7489
59.813530175, 96.390, 944.0, 30.7246
59.839790740, 96.390, 993.0, 31.5119
59.866051306, 96.390, 940.0, 30.6594
59.892311871, 96.390, 928.0, 30.4631
59.918572437, 96.390, 963.0, 31.0322
59.944833002, 96.390, 981.0, 31.3209
59.971093567, 96.390, 990.0, 31.4643
59.997354133, 96.390, 1085.0, 32.9393
60.023614698, 96.390, 1033.0, 32.1403
60.049875263, 96.390, 1077.0, 32.8177
60.076135829, 96.390, 1101.0, 33.1813
60.102396394, 96.390, 1017.0, 31.8904
60.128656959, 96.390, 1152.0, 33.9411
60.154917525, 96.390, 1167.0, 34.1614
60.181178090, 96.390, 1137.0, 33.7194
60.207438655, 96.390, 1151.0, 33.9264
60.233699221, 96.390, 1117.0, 33.4215
60.259959786, 96.390, 1226.0, 35.0143
60.286220352, 96.390, 1216.0, 34.8712
60.312480917, 96.390, 1223.0, 34.9714
60.338741482, 96.390, 1231.0, 35.0856
60.365002048, 96.390, 1230.0, 35.0714
60.391262613, 96.390, 1248.0, 35.3270
60.417523178, 96.390, 1315.0, 36.2629
60.443783744, 96.390, 1369.0, 37.0000
60.470044309, 96.390, 1298.0, 36.0278
60.496304874, 96.390, 1368.0, 36.9865
60.522565440, 96.390, 1388.0, 37.2559
60.548826005, 96.390, 1379.0, 37.1349
60.575086570, 96.390, 1409.0, 37.5366
60.601347136, 96.390, 1402.0, 37.4433
60.627607701, 96.390, 1339.0, 36.5923
60.653868266, 96.390, 1408.0, 37.5233
60.680128832, 96.390, 1441.0, 37.9605
60.706389397, 96.390, 1411.0, 37.5633
60.732649963, 96.390, 1354.0, 36.7967
60.758910528, 96.390, 1387.0, 37.2424
60.785171093, 96.390, 1442.0, 37.9737
60.811431659, 96.390, 1404.0, 37.4700
60.837692224, 96.390, 1464.0, 38.2623
60.863952789, 96.390, 1388.0, 37.2559
60.890213355, 96.390, 1344.0, 36.6606
60.916473920, 96.390, 1412.0, 37.5766
60.942734485, 96.390, 1367.0, 36.9730
60.968995051, 96.390, 1330.0, 36.4692
60.995255616, 96.390, 1340.0, 36.6060
61.021516181, 96.390, 1328.0, 36.4417
61.047776747, 96.390, 1359.0, 36.8646
61.074037312, 96.390, 1365.0, 36.9459
61.100297878, 96.390, 1361.0, 36.8917
61.126558443, 96.390, 1291.0, 35.9305
61.152819008, 96.390, 1295.0, 35.9861
61.179079574, 96.390, 1294.0, 35.9722
61.205340139, 96.390, 1319.0, 36.3180
61.231600704, 96.390, 1320.0, 36.3318
61.257861270, 96.390, 1245.0, 35.2846
61.284121835, 96.390, 1204.0, 34.6987
61.310382400, 96.390, 1260.0, 35.4965
61.336642966, 96.390, 1240.0, 35.2136
61.362903531, 96.390, 1190.0, 34.4964
61.389164096, 96.390, 1207.0, 34.7419
61.415424662, 96.390, 1184.0, 34.4093
61.441685227, 96.390, 1181.0, 34.3657
61.467945792, 96.390, 1226.0, 35.0143
61.494206358, 96.390, 1105.0, 33.2415
61.520466923, 96.390, 1099.0, 33.1512
61.546727489, 96.390, 1146.0, 33.8526
61.572988054, 96.390, 1209.0, 34.7707
61.599248619, 96.390, 1159.0, 34.0441
61.625509185, 96.390, 1141.0, 33.7787
61.651769750, 96.390, 1157.0, 34.0147
61.678030315, 96.390, 1104.0, 33.2265
61.704290881, 96.390, 1142.0, 33.7935
61.730551446, 96.390, 1118.0, 33.4365
61.756812011, 96.390, 1104.0, 33.2265
61.783072577, 96.390, 1130.0, 33.6155
61.809333142, 96.390, 1156.0, 34.0000
61.835593707, 96.390, 1113.0, 33.3617
61.861854273, 96.390, 1126.0, 33.5559
61.888114838, 96.390, 1078.0, 32.8329
61.914375404, 96.390, 1023.0, 31.9844
61.940635969, 96.390, 1052.0, 32.4345
61.966896534, 96.390, 1068.0, 32.6803
61.993157100, 96.390, 1038.0, 32.2180
62.019417665, 96.390, 1046.0, 32.3419
62.045678230, 96.390, 999.0, 31.6070
62.071938796, 96.390, 1023.0, 31.9844
62.098199361, 96.390, 1017.0, 31.8904
62.124459926, 96.390, 1011.0, 31.7962
62.150720492, 96.390, 1022.0, 31.9687
62.176981057, 96.390, 1017.0, 31.8904
62.203241622, 96.390, 960.0, 30.9839
62.229502188, 96.390, 1007.0, 31.7333
62.255762753, 96.390, 925.0, 30.4138
62.282023318, 96.390, 976.0, 31.2410
62.308283884, 96.390, 1005.0, 31.7017
62.334544449, 96.390, 948.0, 30.7896
62.360805015, 96.390, 915.0, 30.2490
62.387065580, 96.390, 916.0, 30.2655
62.413326145, 96.390, 861.0, 29.3428
62.439586711, 96.390, 877.0, 29.6142
62.465847276, 96.390, 857.0, 29.2746
62.492107841, 96.390, 783.0, 27.9821
62.518368407, 96.390, 855.0, 29.2404
62.544628972, 96.390, 853.0, 29.2062
62.570889537, 96.390, 886.0, 29.7658
62.597150103, 96.390, 874.0, 29.5635
62.623410668, 96.390, 789.0, 28.0891
62.649671233, 96.390, 801.0, 28.3019
62.675931799, 96.390, 821.0, 28.6531
62.702192364, 96.390, 767.0, 27.6948
62.728452930, 96.390, 716.0, 26.7582
62.754713495, 96.390, 780.0, 27.9285
62.780974060, 96.390, 702.0, 26.4953
62.807234626, 96.390, 738.0, 27.1662
62.833495191, 96.390, 736.0, 27.1293
62.859755756, 96.390, 755.0, 27.4773
62.886016322, 96.390, 742.0, 27.2397
62.912276887, 96.390, 752.0, 27.4226
62.938537452, 96.390, 726.0, 26.9444
62.964798018, 96.390, 725.0, 26.9258
62.991058583, 96.390, 687.0, 26.2107
63.017319148, 96.390, 754.0, 27.4591
63.043579714, 96.390, 742.0, 27.2397
63.069840279, 96.390, 675.0, 25.9808
63.096100844, 96.390, 675.0, 25.9808
63.122361410, 96.390, 665.0, 25.7876
63.148621975, 96.390, 741.0, 27.2213
63.174882541, 96.390, 685.0, 26.1725
63.201143106, 96.390, 664.0, 25.7682
63.227403671, 96.390, 710.0, 26.6458
63.253664237, 96.390, 651.0, 25.5147
63.279924802, 96.390, 693.0, 26.3249
63.306185367, 96.390, 662.0, 25.7294
63.332445933, 96.390, 663.0, 25.7488
63.358706498, 96.390, 666.0, 25.8070
63.384967063, 96.390, 727.0, 26.9629
63.411227629, 96.390, 629.0, 25.0799
63.437488194, 96.390, 651.0, 25.5147
63.463748759, 96.390, 650.0, 25.4951
63.490009325, 96.390, 658.0, 25.6515
63.516269890, 96.390, 614.0, 24.7790
63.542530455, 96.390, 644.0, 25.3772
63.568791021, 96.390, 654.0, 25.5734
63.595051586, 96.390, 628.0, 25.0599
63.621312152, 96.390, 628.0, 25.0599
63.647572717, 96.390, 648.0, 25.4558
63.673833282, 96.390, 620.0, 24.8998
63.700093848, 96.390, 642.0, 25.3377
63.726354413, 96.390, 674.0, 25.9615
63.752614978, 96.390, 609.0, 24.6779
63.778875544, 96.390, 660.0, 25.6905
63.805136109, 96.390, 677.0, 26.0192
63.831396674, 96.390, 666.0, 25.8070
63.857657240, 96.390, 685.0, 26.1725
63.883917805, 96.390, 609.0, 24.6779
63.910178370, 96.390, 588.0, 24.2487
63.936438936, 96.390, 627.0, 25.0400
63.962699501, 96.390, 649.0, 25.4755
63.988960067, 96.390, 614.0, 24.7790
64.015220632, 96.390, 615.0, 24.7992
64.041481197, 96.390, 621.0, 24.9199
64.067741763, 96.390, 645.0, 25.3969
64.094002328, 96.390, 642.0, 25.3377
64.120262893, 96.390, 573.0, 23.9374
64.146523459, 96.390, 662.0, 25.7294
64.172784024, 96.390, 637.0, 25.2389
64.199044589, 96.390, 626.0, 25.0200
64.225305155, 96.390, 628.0, 25.0599
64.251565720, 96.390, 623.0, 24.9600
64.277826285, 96.390, 647.0, 25.4362
64.304086851, 96.390, 677.0, 26.0192
64.330347416, 96.390, 650.0, 25.4951
64.356607981, 96.390, 679.0, 26.0576
64.382868547, 96.390, 646.0, 25.4165
64.409129112, 96.390, 627.0, 25.0400
64.435389678, 96.390, 674.0, 25.9615
64.461650243, 96.390, 666.0, 25.8070
64.487910808, 96.390, 642.0, 25.3377
64.514171374, 96.390, 650.0, 25.4951
64.540431939, 96.390, 642.0, 25.3377
64.566692504, 96.390, 628.0, 25.0599
64.592953070, 96.390, 601.0, 24.5153
64.619213635, 96.390, 624.0, 24.9800
64.645474200, 96.390, 641.0, 25.3180
64.671734766, 96.390, 637.0, 25.2389
64.697995331, 96.390, 614.0, 24.7790
64.724255896, 96.390, 606.0, 24.6171
64.750516462, 96.390, 610.0, 24.6982
64.776777027, 96.390, 627.0, 25.0400
64.803037593, 96.390, 633.0, 25.1595
64.829298158, 96.390, 594.0, 24.3721
64.855558723, 96.390, 611.0, 24.7184
64.881819289, 96.390, 643.0, 25.3574
64.908079854, 96.390, 522.0, 22.8473
64.934340419, 96.390, 643.0, 25.3574
64.960600985, 96.390, 603.0, 24.5561
64.986861550, 96.390, 582.0, 24.1247
