[Measurement conditions]
Sample identification,33_MgCorner17Dec21_Act08Jan22_B2_0714M_NaOH_LS0173_SolventExchange
Comment - 1,"Configuration=Stage for Flat Samples/Holders, Owner=User-1, Creation date=7/1/2020 9:53:24 AM"
Comment - 2,"Goniometer=Theta/Theta; Minimum step size 2Theta:0.0001; Minimum step size Omega:0.0001"
Comment - 3,"Sample stage=Stage for flat samples/holders"
Comment - 4,"Diffractometer system=EMPYREAN"
Comment - 5,"Measurement program=C:\Users\tmr79\OneDrive - The Pennsylvania State University\Documents\NEUP\XRD\Cement\Zerobackground scan.xrdmp, Identifier={98A3B11C-88F9-4AA6-982C-73314A311EF5}"
Anode material,Cu
K-Alpha1 wavelength,1.5405980
K-Alpha2 wavelength,1.5444260
Ratio K-Alpha2/K-Alpha1,0.500
Divergence slit,Fixed,0.25
Monochromator used,NO
Generator voltage, 45
Tube current, 40
File date and time,25/Apr/2023 15:25
Unit cell,
h k l, 0 0 0
Scan axis,Gonio
Scan range,4.994599997,64.999991833
Scan step size,0.0262606
No. of points, 2285
Scan type,CONTINUOUS
Time per step,96.390
[Scan points]
Angle, TimePerStep, Intensity, ESD
5.007730280, 96.390, 3883.0, 62.3137
5.033990845, 96.390, 3826.0, 61.8547
5.060251411, 96.390, 3807.0, 61.7009
5.086511976, 96.390, 3811.0, 61.7333
5.112772541, 96.390, 3705.0, 60.8687
5.139033107, 96.390, 3799.0, 61.6360
5.165293672, 96.390, 3799.0, 61.6360
5.191554237, 96.390, 3827.0, 61.8628
5.217814803, 96.390, 3728.0, 61.0574
5.244075368, 96.390, 3690.0, 60.7454
5.270335934, 96.390, 3742.0, 61.1719
5.296596499, 96.390, 3734.0, 61.1065
5.322857064, 96.390, 3718.0, 60.9754
5.349117630, 96.390, 3748.0, 61.2209
5.375378195, 96.390, 3714.0, 60.9426
5.401638760, 96.390, 3751.0, 61.2454
5.427899326, 96.390, 3734.0, 61.1065
5.454159891, 96.390, 3737.0, 61.1310
5.480420456, 96.390, 3778.0, 61.4654
5.506681022, 96.390, 3855.0, 62.0886
5.532941587, 96.390, 3647.0, 60.3904
5.559202152, 96.390, 3734.0, 61.1065
5.585462718, 96.390, 3696.0, 60.7947
5.611723283, 96.390, 3543.0, 59.5231
5.637983849, 96.390, 3610.0, 60.0833
5.664244414, 96.390, 3785.0, 61.5224
5.690504979, 96.390, 3704.0, 60.8605
5.716765545, 96.390, 3718.0, 60.9754
5.743026110, 96.390, 3798.0, 61.6279
5.769286675, 96.390, 3748.0, 61.2209
5.795547241, 96.390, 3781.0, 61.4898
5.821807806, 96.390, 3608.0, 60.0666
5.848068371, 96.390, 3625.0, 60.2080
5.874328937, 96.390, 3793.0, 61.5873
5.900589502, 96.390, 3813.0, 61.7495
5.926850067, 96.390, 3689.0, 60.7371
5.953110633, 96.390, 3736.0, 61.1228
5.979371198, 96.390, 3578.0, 59.8164
6.005631763, 96.390, 3712.0, 60.9262
6.031892329, 96.390, 3715.0, 60.9508
6.058152894, 96.390, 3706.0, 60.8769
6.084413460, 96.390, 3606.0, 60.0500
6.110674025, 96.390, 3772.0, 61.4166
6.136934590, 96.390, 3756.0, 61.2862
6.163195156, 96.390, 3607.0, 60.0583
6.189455721, 96.390, 3641.0, 60.3407
6.215716286, 96.390, 3790.0, 61.5630
6.241976852, 96.390, 3768.0, 61.3840
6.268237417, 96.390, 3760.0, 61.3188
6.294497982, 96.390, 3733.0, 61.0983
6.320758548, 96.390, 3740.0, 61.1555
6.347019113, 96.390, 3745.0, 61.1964
6.373279678, 96.390, 3757.0, 61.2944
6.399540244, 96.390, 3761.0, 61.3270
6.425800809, 96.390, 3653.0, 60.4401
6.452061375, 96.390, 3827.0, 61.8628
6.478321940, 96.390, 3789.0, 61.5549
6.504582505, 96.390, 3769.0, 61.3922
6.530843071, 96.390, 3728.0, 61.0574
6.557103636, 96.390, 3769.0, 61.3922
6.583364201, 96.390, 3782.0, 61.4980
6.609624767, 96.390, 3774.0, 61.4329
6.635885332, 96.390, 3677.0, 60.6383
6.662145897, 96.390, 3710.0, 60.9098
6.688406463, 96.390, 3861.0, 62.1369
6.714667028, 96.390, 3823.0, 61.8304
6.740927593, 96.390, 3771.0, 61.4085
6.767188159, 96.390, 3801.0, 61.6523
6.793448724, 96.390, 3685.0, 60.7042
6.819709289, 96.390, 3677.0, 60.6383
6.845969855, 96.390, 3648.0, 60.3987
6.872230420, 96.390, 3704.0, 60.8605
6.898490986, 96.390, 3749.0, 61.2291
6.924751551, 96.390, 3706.0, 60.8769
6.951012116, 96.390, 3586.0, 59.8832
6.977272682, 96.390, 3770.0, 61.4003
7.003533247, 96.390, 3698.0, 60.8112
7.029793812, 96.390, 3765.0, 61.3596
7.056054378, 96.390, 3707.0, 60.8851
7.082314943, 96.390, 3663.0, 60.5227
7.108575508, 96.390, 3724.0, 61.0246
7.134836074, 96.390, 3716.0, 60.9590
7.161096639, 96.390, 3667.0, 60.5558
7.187357204, 96.390, 3769.0, 61.3922
7.213617770, 96.390, 3711.0, 60.9180
7.239878335, 96.390, 3668.0, 60.5640
7.266138900, 96.390, 3596.0, 59.9667
7.292399466, 96.390, 3649.0, 60.4070
7.318660031, 96.390, 3619.0, 60.1581
7.344920597, 96.390, 3646.0, 60.3821
7.371181162, 96.390, 3631.0, 60.2578
7.397441727, 96.390, 3609.0, 60.0750
7.423702293, 96.390, 3634.0, 60.2827
7.449962858, 96.390, 3502.0, 59.1777
7.476223423, 96.390, 3627.0, 60.2246
7.502483989, 96.390, 3499.0, 59.1523
7.528744554, 96.390, 3564.0, 59.6992
7.555005119, 96.390, 3468.0, 58.8897
7.581265685, 96.390, 3508.0, 59.2284
7.607526250, 96.390, 3484.0, 59.0254
7.633786815, 96.390, 3495.0, 59.1185
7.660047381, 96.390, 3525.0, 59.3717
7.686307946, 96.390, 3425.0, 58.5235
7.712568512, 96.390, 3339.0, 57.7841
7.738829077, 96.390, 3418.0, 58.4637
7.765089642, 96.390, 3397.0, 58.2838
7.791350208, 96.390, 3308.0, 57.5152
7.817610773, 96.390, 3370.0, 58.0517
7.843871338, 96.390, 3229.0, 56.8243
7.870131904, 96.390, 3367.0, 58.0259
7.896392469, 96.390, 3379.0, 58.1292
7.922653034, 96.390, 3347.0, 57.8533
7.948913600, 96.390, 3421.0, 58.4893
7.975174165, 96.390, 3349.0, 57.8705
8.001434730, 96.390, 3329.0, 57.6975
8.027695296, 96.390, 3288.0, 57.3411
8.053955861, 96.390, 3390.0, 58.2237
8.080216426, 96.390, 3386.0, 58.1893
8.106476992, 96.390, 3332.0, 57.7235
8.132737557, 96.390, 3657.0, 60.4731
8.158998123, 96.390, 3654.0, 60.4483
8.185258688, 96.390, 3663.0, 60.5227
8.211519253, 96.390, 3397.0, 58.2838
8.237779819, 96.390, 3238.0, 56.9034
8.264040384, 96.390, 3170.0, 56.3028
8.290300949, 96.390, 3149.0, 56.1160
8.316561515, 96.390, 3072.0, 55.4256
8.342822080, 96.390, 3078.0, 55.4797
8.369082645, 96.390, 3016.0, 54.9181
8.395343211, 96.390, 2984.0, 54.6260
8.421603776, 96.390, 3060.0, 55.3173
8.447864341, 96.390, 3063.0, 55.3444
8.474124907, 96.390, 3100.0, 55.6776
8.500385472, 96.390, 3126.0, 55.9106
8.526646038, 96.390, 3008.0, 54.8452
8.552906603, 96.390, 2941.0, 54.2310
8.579167168, 96.390, 2968.0, 54.4794
8.605427734, 96.390, 2969.0, 54.4885
8.631688299, 96.390, 2902.0, 53.8702
8.657948864, 96.390, 3032.0, 55.0636
8.684209430, 96.390, 2920.0, 54.0370
8.710469995, 96.390, 2869.0, 53.5630
8.736730560, 96.390, 2936.0, 54.1849
8.762991126, 96.390, 2867.0, 53.5444
8.789251691, 96.390, 2992.0, 54.6992
8.815512256, 96.390, 2866.0, 53.5350
8.841772822, 96.390, 2988.0, 54.6626
8.868033387, 96.390, 2940.0, 54.2218
8.894293952, 96.390, 2868.0, 53.5537
8.920554518, 96.390, 2898.0, 53.8331
8.946815083, 96.390, 2882.0, 53.6843
8.973075649, 96.390, 2858.0, 53.4603
8.999336214, 96.390, 2793.0, 52.8488
9.025596779, 96.390, 2755.0, 52.4881
9.051857345, 96.390, 2886.0, 53.7215
9.078117910, 96.390, 2763.0, 52.5642
9.104378475, 96.390, 2947.0, 54.2863
9.130639041, 96.390, 2768.0, 52.6118
9.156899606, 96.390, 2774.0, 52.6688
9.183160171, 96.390, 2827.0, 53.1695
9.209420737, 96.390, 2877.0, 53.6377
9.235681302, 96.390, 2749.0, 52.4309
9.261941867, 96.390, 2818.0, 53.0848
9.288202433, 96.390, 2883.0, 53.6936
9.314462998, 96.390, 2865.0, 53.5257
9.340723564, 96.390, 2803.0, 52.9434
9.366984129, 96.390, 2816.0, 53.0660
9.393244694, 96.390, 2790.0, 52.8205
9.419505260, 96.390, 2751.0, 52.4500
9.445765825, 96.390, 2802.0, 52.9339
9.472026390, 96.390, 2724.0, 52.1920
9.498286956, 96.390, 2829.0, 53.1883
9.524547521, 96.390, 2881.0, 53.6749
9.550808086, 96.390, 2813.0, 53.0377
9.577068652, 96.390, 2835.0, 53.2447
9.603329217, 96.390, 2948.0, 54.2955
9.629589782, 96.390, 2833.0, 53.2259
9.655850348, 96.390, 2882.0, 53.6843
9.682110913, 96.390, 2931.0, 54.1387
9.708371478, 96.390, 2859.0, 53.4696
9.734632044, 96.390, 2871.0, 53.5817
9.760892609, 96.390, 3044.0, 55.1725
9.787153175, 96.390, 2955.0, 54.3599
9.813413740, 96.390, 2855.0, 53.4322
9.839674305, 96.390, 2840.0, 53.2917
9.865934871, 96.390, 2988.0, 54.6626
9.892195436, 96.390, 2939.0, 54.2125
9.918456001, 96.390, 2980.0, 54.5894
9.944716567, 96.390, 3039.0, 55.1271
9.970977132, 96.390, 2991.0, 54.6900
9.997237697, 96.390, 2956.0, 54.3691
10.023498263, 96.390, 3131.0, 55.9553
10.049758828, 96.390, 3002.0, 54.7905
10.076019393, 96.390, 3039.0, 55.1271
10.102279959, 96.390, 3114.0, 55.8032
10.128540524, 96.390, 3083.0, 55.5248
10.154801090, 96.390, 3125.0, 55.9017
10.181061655, 96.390, 3126.0, 55.9106
10.207322220, 96.390, 3198.0, 56.5509
10.233582786, 96.390, 3172.0, 56.3205
10.259843351, 96.390, 3302.0, 57.4630
10.286103916, 96.390, 3321.0, 57.6281
10.312364482, 96.390, 3297.0, 57.4195
10.338625047, 96.390, 3381.0, 58.1464
10.364885612, 96.390, 3332.0, 57.7235
10.391146178, 96.390, 3242.0, 56.9386
10.417406743, 96.390, 3396.0, 58.2752
10.443667308, 96.390, 3434.0, 58.6003
10.469927874, 96.390, 3514.0, 59.2790
10.496188439, 96.390, 3559.0, 59.6574
10.522449004, 96.390, 3412.0, 58.4123
10.548709570, 96.390, 3512.0, 59.2621
10.574970135, 96.390, 3488.0, 59.0593
10.601230701, 96.390, 3557.0, 59.6406
10.627491266, 96.390, 3570.0, 59.7495
10.653751831, 96.390, 3520.0, 59.3296
10.680012397, 96.390, 3657.0, 60.4731
10.706272962, 96.390, 3802.0, 61.6604
10.732533527, 96.390, 3737.0, 61.1310
10.758794093, 96.390, 3762.0, 61.3351
10.785054658, 96.390, 3922.0, 62.6259
10.811315223, 96.390, 3811.0, 61.7333
10.837575789, 96.390, 3798.0, 61.6279
10.863836354, 96.390, 3956.0, 62.8967
10.890096919, 96.390, 3918.0, 62.5939
10.916357485, 96.390, 4025.0, 63.4429
10.942618050, 96.390, 4011.0, 63.3325
10.968878616, 96.390, 4101.0, 64.0391
10.995139181, 96.390, 3933.0, 62.7136
11.021399746, 96.390, 4134.0, 64.2962
11.047660312, 96.390, 4331.0, 65.8103
11.073920877, 96.390, 4158.0, 64.4826
11.100181442, 96.390, 4376.0, 66.1513
11.126442008, 96.390, 4385.0, 66.2193
11.152702573, 96.390, 4784.0, 69.1665
11.178963138, 96.390, 4772.0, 69.0797
11.205223704, 96.390, 4905.0, 70.0357
11.231484269, 96.390, 5289.0, 72.7255
11.257744834, 96.390, 5467.0, 73.9392
11.284005400, 96.390, 6108.0, 78.1537
11.310265965, 96.390, 6687.0, 81.7741
11.336526530, 96.390, 7664.0, 87.5443
11.362787096, 96.390, 8683.0, 93.1826
11.389047661, 96.390, 10023.0, 100.1149
11.415308227, 96.390, 12217.0, 110.5305
11.441568792, 96.390, 13645.0, 116.8118
11.467829357, 96.390, 13728.0, 117.1665
11.494089923, 96.390, 13615.0, 116.6833
11.520350488, 96.390, 12821.0, 113.2299
11.546611053, 96.390, 10817.0, 104.0048
11.572871619, 96.390, 7505.0, 86.6314
11.599132184, 96.390, 5312.0, 72.8835
11.625392749, 96.390, 4261.0, 65.2763
11.651653315, 96.390, 3998.0, 63.2297
11.677913880, 96.390, 3738.0, 61.1392
11.704174445, 96.390, 3757.0, 61.2944
11.730435011, 96.390, 3717.0, 60.9672
11.756695576, 96.390, 3533.0, 59.4390
11.782956141, 96.390, 3418.0, 58.4637
11.809216707, 96.390, 3488.0, 59.0593
11.835477272, 96.390, 3330.0, 57.7062
11.861737838, 96.390, 3325.0, 57.6628
11.887998403, 96.390, 3273.0, 57.2101
11.914258968, 96.390, 3208.0, 56.6392
11.940519534, 96.390, 3210.0, 56.6569
11.966780099, 96.390, 3215.0, 56.7010
11.993040664, 96.390, 3121.0, 55.8659
12.019301230, 96.390, 3022.0, 54.9727
12.045561795, 96.390, 2980.0, 54.5894
12.071822360, 96.390, 2935.0, 54.1756
12.098082926, 96.390, 2939.0, 54.2125
12.124343491, 96.390, 2870.0, 53.5724
12.150604056, 96.390, 2894.0, 53.7959
12.176864622, 96.390, 2818.0, 53.0848
12.203125187, 96.390, 2826.0, 53.1601
12.229385753, 96.390, 2763.0, 52.5642
12.255646318, 96.390, 2688.0, 51.8459
12.281906883, 96.390, 2728.0, 52.2303
12.308167449, 96.390, 2681.0, 51.7784
12.334428014, 96.390, 2689.0, 51.8556
12.360688579, 96.390, 2574.0, 50.7346
12.386949145, 96.390, 2575.0, 50.7445
12.413209710, 96.390, 2564.0, 50.6360
12.439470275, 96.390, 2472.0, 49.7192
12.465730841, 96.390, 2570.0, 50.6952
12.491991406, 96.390, 2434.0, 49.3356
12.518251971, 96.390, 2321.0, 48.1768
12.544512537, 96.390, 2397.0, 48.9592
12.570773102, 96.390, 2331.0, 48.2804
12.597033667, 96.390, 2309.0, 48.0521
12.623294233, 96.390, 2360.0, 48.5798
12.649554798, 96.390, 2302.0, 47.9792
12.675815364, 96.390, 2282.0, 47.7703
12.702075929, 96.390, 2277.0, 47.7179
12.728336494, 96.390, 2320.0, 48.1664
12.754597060, 96.390, 2194.0, 46.8402
12.780857625, 96.390, 2206.0, 46.9681
12.807118190, 96.390, 2178.0, 46.6690
12.833378756, 96.390, 2206.0, 46.9681
12.859639321, 96.390, 2146.0, 46.3249
12.885899886, 96.390, 2190.0, 46.7974
12.912160452, 96.390, 2081.0, 45.6180
12.938421017, 96.390, 2052.0, 45.2990
12.964681582, 96.390, 1986.0, 44.5646
12.990942148, 96.390, 2074.0, 45.5412
13.017202713, 96.390, 2040.0, 45.1664
13.043463279, 96.390, 2009.0, 44.8219
13.069723844, 96.390, 1903.0, 43.6234
13.095984409, 96.390, 1956.0, 44.2267
13.122244975, 96.390, 1987.0, 44.5758
13.148505540, 96.390, 2022.0, 44.9667
13.174766105, 96.390, 1955.0, 44.2154
13.201026671, 96.390, 1946.0, 44.1135
13.227287236, 96.390, 1948.0, 44.1362
13.253547801, 96.390, 1912.0, 43.7264
13.279808367, 96.390, 1969.0, 44.3734
13.306068932, 96.390, 1908.0, 43.6807
13.332329497, 96.390, 1902.0, 43.6119
13.358590063, 96.390, 1950.0, 44.1588
13.384850628, 96.390, 1883.0, 43.3935
13.411111193, 96.390, 1876.0, 43.3128
13.437371759, 96.390, 1913.0, 43.7379
13.463632324, 96.390, 1897.0, 43.5546
13.489892890, 96.390, 1844.0, 42.9418
13.516153455, 96.390, 1803.0, 42.4617
13.542414020, 96.390, 1793.0, 42.3438
13.568674586, 96.390, 1737.0, 41.6773
13.594935151, 96.390, 1733.0, 41.6293
13.621195716, 96.390, 1812.0, 42.5676
13.647456282, 96.390, 1846.0, 42.9651
13.673716847, 96.390, 1712.0, 41.3763
13.699977412, 96.390, 1821.0, 42.6732
13.726237978, 96.390, 1777.0, 42.1545
13.752498543, 96.390, 1856.0, 43.0813
13.778759108, 96.390, 1746.0, 41.7852
13.805019674, 96.390, 1763.0, 41.9881
13.831280239, 96.390, 1711.0, 41.3642
13.857540805, 96.390, 1682.0, 41.0122
13.883801370, 96.390, 1643.0, 40.5339
13.910061935, 96.390, 1807.0, 42.5088
13.936322501, 96.390, 1690.0, 41.1096
13.962583066, 96.390, 1669.0, 40.8534
13.988843631, 96.390, 1684.0, 41.0366
14.015104197, 96.390, 1694.0, 41.1582
14.041364762, 96.390, 1687.0, 41.0731
14.067625327, 96.390, 1697.0, 41.1947
14.093885893, 96.390, 1627.0, 40.3361
14.120146458, 96.390, 1715.0, 41.4126
14.146407023, 96.390, 1711.0, 41.3642
14.172667589, 96.390, 1655.0, 40.6817
14.198928154, 96.390, 1661.0, 40.7554
14.225188719, 96.390, 1679.0, 40.9756
14.251449285, 96.390, 1759.0, 41.9404
14.277709850, 96.390, 1688.0, 41.0853
14.303970416, 96.390, 1661.0, 40.7554
14.330230981, 96.390, 1762.0, 41.9762
14.356491546, 96.390, 1743.0, 41.7493
14.382752112, 96.390, 1761.0, 41.9643
14.409012677, 96.390, 1797.0, 42.3910
14.435273242, 96.390, 1866.0, 43.1972
14.461533808, 96.390, 2138.0, 46.2385
14.487794373, 96.390, 2370.0, 48.6826
14.514054938, 96.390, 2466.0, 49.6588
14.540315504, 96.390, 2876.0, 53.6284
14.566576069, 96.390, 3048.0, 55.2087
14.592836634, 96.390, 2614.0, 51.1273
14.619097200, 96.390, 2147.0, 46.3357
14.645357765, 96.390, 1732.0, 41.6173
14.671618331, 96.390, 1659.0, 40.7308
14.697878896, 96.390, 1565.0, 39.5601
14.724139461, 96.390, 1682.0, 41.0122
14.750400027, 96.390, 1586.0, 39.8246
14.776660592, 96.390, 1511.0, 38.8716
14.802921157, 96.390, 1499.0, 38.7169
14.829181723, 96.390, 1596.0, 39.9500
14.855442288, 96.390, 1637.0, 40.4599
14.881702853, 96.390, 1550.0, 39.3700
14.907963419, 96.390, 1534.0, 39.1663
14.934223984, 96.390, 1589.0, 39.8623
14.960484549, 96.390, 1520.0, 38.9872
14.986745115, 96.390, 1573.0, 39.6611
15.013005680, 96.390, 1574.0, 39.6737
15.039266245, 96.390, 1660.0, 40.7431
15.065526811, 96.390, 1614.0, 40.1746
15.091787376, 96.390, 1712.0, 41.3763
15.118047942, 96.390, 1751.0, 41.8450
15.144308507, 96.390, 1830.0, 42.7785
15.170569072, 96.390, 1990.0, 44.6094
15.196829638, 96.390, 2200.0, 46.9042
15.223090203, 96.390, 2201.0, 46.9148
15.249350768, 96.390, 2181.0, 46.7012
15.275611334, 96.390, 2102.0, 45.8476
15.301871899, 96.390, 2036.0, 45.1221
15.328132464, 96.390, 1960.0, 44.2719
15.354393030, 96.390, 1664.0, 40.7922
15.380653595, 96.390, 1637.0, 40.4599
15.406914160, 96.390, 1537.0, 39.2046
15.433174726, 96.390, 1570.0, 39.6232
15.459435291, 96.390, 1477.0, 38.4318
15.485695857, 96.390, 1501.0, 38.7427
15.511956422, 96.390, 1498.0, 38.7040
15.538216987, 96.390, 1546.0, 39.3192
15.564477553, 96.390, 1560.0, 39.4968
15.590738118, 96.390, 1509.0, 38.8458
15.616998683, 96.390, 1535.0, 39.1791
15.643259249, 96.390, 1563.0, 39.5348
15.669519814, 96.390, 1593.0, 39.9124
15.695780379, 96.390, 1630.0, 40.3733
15.722040945, 96.390, 1716.0, 41.4246
15.748301510, 96.390, 1739.0, 41.7013
15.774562075, 96.390, 1691.0, 41.1218
15.800822641, 96.390, 1520.0, 38.9872
15.827083206, 96.390, 1542.0, 39.2683
15.853343771, 96.390, 1460.0, 38.2099
15.879604337, 96.390, 1463.0, 38.2492
15.905864902, 96.390, 1436.0, 37.8946
15.932125468, 96.390, 1464.0, 38.2623
15.958386033, 96.390, 1452.0, 38.1051
15.984646598, 96.390, 1416.0, 37.6298
16.010907164, 96.390, 1518.0, 38.9615
16.037167729, 96.390, 1462.0, 38.2361
16.063428294, 96.390, 1515.0, 38.9230
16.089688860, 96.390, 1523.0, 39.0256
16.115949425, 96.390, 1381.0, 37.1618
16.142209990, 96.390, 1515.0, 38.9230
16.168470556, 96.390, 1539.0, 39.2301
16.194731121, 96.390, 1582.0, 39.7744
16.220991686, 96.390, 1622.0, 40.2741
16.247252252, 96.390, 1649.0, 40.6079
16.273512817, 96.390, 1774.0, 42.1189
16.299773382, 96.390, 1912.0, 43.7264
16.326033948, 96.390, 2173.0, 46.6154
16.352294513, 96.390, 2471.0, 49.7092
16.378555079, 96.390, 2270.0, 47.6445
16.404815644, 96.390, 1825.0, 42.7200
16.431076209, 96.390, 1571.0, 39.6358
16.457336775, 96.390, 1451.0, 38.0920
16.483597340, 96.390, 1461.0, 38.2230
16.509857905, 96.390, 1418.0, 37.6563
16.536118471, 96.390, 1493.0, 38.6394
16.562379036, 96.390, 1426.0, 37.7624
16.588639601, 96.390, 1423.0, 37.7227
16.614900167, 96.390, 1388.0, 37.2559
16.641160732, 96.390, 1454.0, 38.1314
16.667421297, 96.390, 1480.0, 38.4708
16.693681863, 96.390, 1462.0, 38.2361
16.719942428, 96.390, 1359.0, 36.8646
16.746202994, 96.390, 1462.0, 38.2361
16.772463559, 96.390, 1439.0, 37.9342
16.798724124, 96.390, 1506.0, 38.8072
16.824984690, 96.390, 1419.0, 37.6696
16.851245255, 96.390, 1466.0, 38.2884
16.877505820, 96.390, 1420.0, 37.6829
16.903766386, 96.390, 1435.0, 37.8814
16.930026951, 96.390, 1419.0, 37.6696
16.956287516, 96.390, 1430.0, 37.8153
16.982548082, 96.390, 1406.0, 37.4967
17.008808647, 96.390, 1455.0, 38.1445
17.035069212, 96.390, 1390.0, 37.2827
17.061329778, 96.390, 1362.0, 36.9053
17.087590343, 96.390, 1391.0, 37.2961
17.113850908, 96.390, 1416.0, 37.6298
17.140111474, 96.390, 1426.0, 37.7624
17.166372039, 96.390, 1413.0, 37.5899
17.192632605, 96.390, 1398.0, 37.3898
17.218893170, 96.390, 1364.0, 36.9324
17.245153735, 96.390, 1423.0, 37.7227
17.271414301, 96.390, 1352.0, 36.7696
17.297674866, 96.390, 1332.0, 36.4966
17.323935431, 96.390, 1470.0, 38.3406
17.350195997, 96.390, 1394.0, 37.3363
17.376456562, 96.390, 1365.0, 36.9459
17.402717127, 96.390, 1334.0, 36.5240
17.428977693, 96.390, 1329.0, 36.4555
17.455238258, 96.390, 1389.0, 37.2693
17.481498823, 96.390, 1342.0, 36.6333
17.507759389, 96.390, 1333.0, 36.5103
17.534019954, 96.390, 1412.0, 37.5766
17.560280520, 96.390, 1410.0, 37.5500
17.586541085, 96.390, 1387.0, 37.2424
17.612801650, 96.390, 1376.0, 37.0945
17.639062216, 96.390, 1436.0, 37.8946
17.665322781, 96.390, 1460.0, 38.2099
17.691583346, 96.390, 1485.0, 38.5357
17.717843912, 96.390, 1392.0, 37.3095
17.744104477, 96.390, 1358.0, 36.8511
17.770365042, 96.390, 1406.0, 37.4967
17.796625608, 96.390, 1405.0, 37.4833
17.822886173, 96.390, 1342.0, 36.6333
17.849146738, 96.390, 1472.0, 38.3667
17.875407304, 96.390, 1387.0, 37.2424
17.901667869, 96.390, 1450.0, 38.0789
17.927928434, 96.390, 1377.0, 37.1080
17.954189000, 96.390, 1401.0, 37.4299
17.980449565, 96.390, 1412.0, 37.5766
18.006710131, 96.390, 1341.0, 36.6197
18.032970696, 96.390, 1337.0, 36.5650
18.059231261, 96.390, 1340.0, 36.6060
18.085491827, 96.390, 1398.0, 37.3898
18.111752392, 96.390, 1410.0, 37.5500
18.138012957, 96.390, 1431.0, 37.8286
18.164273523, 96.390, 1433.0, 37.8550
18.190534088, 96.390, 1403.0, 37.4566
18.216794653, 96.390, 1440.0, 37.9473
18.243055219, 96.390, 1416.0, 37.6298
18.269315784, 96.390, 1420.0, 37.6829
18.295576349, 96.390, 1429.0, 37.8021
18.321836915, 96.390, 1410.0, 37.5500
18.348097480, 96.390, 1466.0, 38.2884
18.374358046, 96.390, 1439.0, 37.9342
18.400618611, 96.390, 1381.0, 37.1618
18.426879176, 96.390, 1352.0, 36.7696
18.453139742, 96.390, 1450.0, 38.0789
18.479400307, 96.390, 1475.0, 38.4057
18.505660872, 96.390, 1390.0, 37.2827
18.531921438, 96.390, 1349.0, 36.7287
18.558182003, 96.390, 1440.0, 37.9473
18.584442568, 96.390, 1438.0, 37.9210
18.610703134, 96.390, 1450.0, 38.0789
18.636963699, 96.390, 1405.0, 37.4833
18.663224264, 96.390, 1442.0, 37.9737
18.689484830, 96.390, 1488.0, 38.5746
18.715745395, 96.390, 1549.0, 39.3573
18.742005960, 96.390, 1521.0, 39.0000
18.768266526, 96.390, 1586.0, 39.8246
18.794527091, 96.390, 1721.0, 41.4849
18.820787657, 96.390, 1840.0, 42.8952
18.847048222, 96.390, 2060.0, 45.3872
18.873308787, 96.390, 2298.0, 47.9375
18.899569353, 96.390, 2436.0, 49.3559
18.925829918, 96.390, 2556.0, 50.5569
18.952090483, 96.390, 2611.0, 51.0979
18.978351049, 96.390, 2561.0, 50.6063
19.004611614, 96.390, 2645.0, 51.4296
19.030872179, 96.390, 2356.0, 48.5386
19.057132745, 96.390, 2071.0, 45.5082
19.083393310, 96.390, 1904.0, 43.6348
19.109653875, 96.390, 1898.0, 43.5660
19.135914441, 96.390, 1900.0, 43.5890
19.162175006, 96.390, 1764.0, 42.0000
19.188435572, 96.390, 1677.0, 40.9512
19.214696137, 96.390, 1549.0, 39.3573
19.240956702, 96.390, 1574.0, 39.6737
19.267217268, 96.390, 1624.0, 40.2989
19.293477833, 96.390, 1652.0, 40.6448
19.319738398, 96.390, 1574.0, 39.6737
19.345998964, 96.390, 1742.0, 41.7373
19.372259529, 96.390, 1696.0, 41.1825
19.398520094, 96.390, 1715.0, 41.4126
19.424780660, 96.390, 1582.0, 39.7744
19.451041225, 96.390, 1543.0, 39.2810
19.477301790, 96.390, 1531.0, 39.1280
19.503562356, 96.390, 1507.0, 38.8201
19.529822921, 96.390, 1593.0, 39.9124
19.556083486, 96.390, 1547.0, 39.3319
19.582344052, 96.390, 1482.0, 38.4968
19.608604617, 96.390, 1577.0, 39.7115
19.634865183, 96.390, 1577.0, 39.7115
19.661125748, 96.390, 1533.0, 39.1535
19.687386313, 96.390, 1488.0, 38.5746
19.713646879, 96.390, 1477.0, 38.4318
19.739907444, 96.390, 1580.0, 39.7492
19.766168009, 96.390, 1507.0, 38.8201
19.792428575, 96.390, 1525.0, 39.0512
19.818689140, 96.390, 1524.0, 39.0384
19.844949705, 96.390, 1548.0, 39.3446
19.871210271, 96.390, 1442.0, 37.9737
19.897470836, 96.390, 1517.0, 38.9487
19.923731401, 96.390, 1548.0, 39.3446
19.949991967, 96.390, 1496.0, 38.6782
19.976252532, 96.390, 1501.0, 38.7427
20.002513098, 96.390, 1543.0, 39.2810
20.028773663, 96.390, 1551.0, 39.3827
20.055034228, 96.390, 1476.0, 38.4187
20.081294794, 96.390, 1582.0, 39.7744
20.107555359, 96.390, 1562.0, 39.5221
20.133815924, 96.390, 1595.0, 39.9375
20.160076490, 96.390, 1607.0, 40.0874
20.186337055, 96.390, 1574.0, 39.6737
20.212597620, 96.390, 1527.0, 39.0768
20.238858186, 96.390, 1550.0, 39.3700
20.265118751, 96.390, 1590.0, 39.8748
20.291379316, 96.390, 1610.0, 40.1248
20.317639882, 96.390, 1551.0, 39.3827
20.343900447, 96.390, 1673.0, 40.9023
20.370161012, 96.390, 1649.0, 40.6079
20.396421578, 96.390, 1695.0, 41.1704
20.422682143, 96.390, 1759.0, 41.9404
20.448942709, 96.390, 1693.0, 41.1461
20.475203274, 96.390, 1692.0, 41.1339
20.501463839, 96.390, 1728.0, 41.5692
20.527724405, 96.390, 1888.0, 43.4511
20.553984970, 96.390, 1907.0, 43.6692
20.580245535, 96.390, 1996.0, 44.6766
20.606506101, 96.390, 2072.0, 45.5192
20.632766666, 96.390, 2215.0, 47.0638
20.659027231, 96.390, 2316.0, 48.1248
20.685287797, 96.390, 2503.0, 50.0300
20.711548362, 96.390, 2501.0, 50.0100
20.737808927, 96.390, 2595.0, 50.9411
20.764069493, 96.390, 2446.0, 49.4571
20.790330058, 96.390, 2213.0, 47.0425
20.816590623, 96.390, 2188.0, 46.7761
20.842851189, 96.390, 2047.0, 45.2438
20.869111754, 96.390, 1987.0, 44.5758
20.895372320, 96.390, 1945.0, 44.1022
20.921632885, 96.390, 1907.0, 43.6692
20.947893450, 96.390, 1832.0, 42.8019
20.974154016, 96.390, 1778.0, 42.1663
21.000414581, 96.390, 1700.0, 41.2311
21.026675146, 96.390, 1690.0, 41.1096
21.052935712, 96.390, 1685.0, 41.0488
21.079196277, 96.390, 1670.0, 40.8656
21.105456842, 96.390, 1691.0, 41.1218
21.131717408, 96.390, 1710.0, 41.3521
21.157977973, 96.390, 1725.0, 41.5331
21.184238538, 96.390, 1672.0, 40.8901
21.210499104, 96.390, 1799.0, 42.4146
21.236759669, 96.390, 1743.0, 41.7493
21.263020235, 96.390, 1838.0, 42.8719
21.289280800, 96.390, 1878.0, 43.3359
21.315541365, 96.390, 2094.0, 45.7602
21.341801931, 96.390, 2239.0, 47.3181
21.368062496, 96.390, 2222.0, 47.1381
21.394323061, 96.390, 2028.0, 45.0333
21.420583627, 96.390, 1886.0, 43.4281
21.446844192, 96.390, 1801.0, 42.4382
21.473104757, 96.390, 1775.0, 42.1307
21.499365323, 96.390, 1856.0, 43.0813
21.525625888, 96.390, 1888.0, 43.4511
21.551886453, 96.390, 1965.0, 44.3283
21.578147019, 96.390, 2155.0, 46.4220
21.604407584, 96.390, 2330.0, 48.2701
21.630668149, 96.390, 2488.0, 49.8799
21.656928715, 96.390, 2783.0, 52.7541
21.683189280, 96.390, 2528.0, 50.2792
21.709449846, 96.390, 2306.0, 48.0208
21.735710411, 96.390, 2029.0, 45.0444
21.761970976, 96.390, 1927.0, 43.8976
21.788231542, 96.390, 1858.0, 43.1045
21.814492107, 96.390, 1836.0, 42.8486
21.840752672, 96.390, 1942.0, 44.0681
21.867013238, 96.390, 1894.0, 43.5201
21.893273803, 96.390, 1847.0, 42.9767
21.919534368, 96.390, 1882.0, 43.3820
21.945794934, 96.390, 2014.0, 44.8776
21.972055499, 96.390, 1882.0, 43.3820
21.998316064, 96.390, 1902.0, 43.6119
22.024576630, 96.390, 1937.0, 44.0114
22.050837195, 96.390, 1832.0, 42.8019
22.077097761, 96.390, 2043.0, 45.1996
22.103358326, 96.390, 2003.0, 44.7549
22.129618891, 96.390, 1959.0, 44.2606
22.155879457, 96.390, 2083.0, 45.6399
22.182140022, 96.390, 2067.0, 45.4643
22.208400587, 96.390, 2104.0, 45.8694
22.234661153, 96.390, 2016.0, 44.8999
22.260921718, 96.390, 2116.0, 46.0000
22.287182283, 96.390, 2155.0, 46.4220
22.313442849, 96.390, 2081.0, 45.6180
22.339703414, 96.390, 2242.0, 47.3498
22.365963979, 96.390, 2308.0, 48.0416
22.392224545, 96.390, 2307.0, 48.0312
22.418485110, 96.390, 2332.0, 48.2908
22.444745675, 96.390, 2222.0, 47.1381
22.471006241, 96.390, 2301.0, 47.9687
22.497266806, 96.390, 2242.0, 47.3498
22.523527372, 96.390, 2295.0, 47.9062
22.549787937, 96.390, 2276.0, 47.7074
22.576048502, 96.390, 2431.0, 49.3052
22.602309068, 96.390, 2394.0, 48.9285
22.628569633, 96.390, 2646.0, 51.4393
22.654830198, 96.390, 2579.0, 50.7839
22.681090764, 96.390, 2456.0, 49.5580
22.707351329, 96.390, 2492.0, 49.9199
22.733611894, 96.390, 2550.0, 50.4975
22.759872460, 96.390, 2638.0, 51.3615
22.786133025, 96.390, 2872.0, 53.5910
22.812393590, 96.390, 3122.0, 55.8749
22.838654156, 96.390, 3456.0, 58.7878
22.864914721, 96.390, 3925.0, 62.6498
22.891175287, 96.390, 4364.0, 66.0606
22.917435852, 96.390, 4774.0, 69.0941
22.943696417, 96.390, 4886.0, 69.8999
22.969956983, 96.390, 4936.0, 70.2567
22.996217548, 96.390, 4778.0, 69.1231
23.022478113, 96.390, 4934.0, 70.2424
23.048738679, 96.390, 5006.0, 70.7531
23.074999244, 96.390, 5018.0, 70.8378
23.101259809, 96.390, 5251.0, 72.4638
23.127520375, 96.390, 5278.0, 72.6498
23.153780940, 96.390, 5113.0, 71.5052
23.180041505, 96.390, 4868.0, 69.7711
23.206302071, 96.390, 4583.0, 67.6979
23.232562636, 96.390, 4025.0, 63.4429
23.258823201, 96.390, 3562.0, 59.6825
23.285083767, 96.390, 2968.0, 54.4794
23.311344332, 96.390, 2641.0, 51.3907
23.337604898, 96.390, 2524.0, 50.2394
23.363865463, 96.390, 2517.0, 50.1697
23.390126028, 96.390, 2775.0, 52.6783
23.416386594, 96.390, 2887.0, 53.7308
23.442647159, 96.390, 2594.0, 50.9313
23.468907724, 96.390, 2556.0, 50.5569
23.495168290, 96.390, 2301.0, 47.9687
23.521428855, 96.390, 2209.0, 47.0000
23.547689420, 96.390, 2176.0, 46.6476
23.573949986, 96.390, 2367.0, 48.6518
23.600210551, 96.390, 2274.0, 47.6865
23.626471116, 96.390, 2107.0, 45.9021
23.652731682, 96.390, 2044.0, 45.2106
23.678992247, 96.390, 2081.0, 45.6180
23.705252813, 96.390, 1952.0, 44.1814
23.731513378, 96.390, 1917.0, 43.7836
23.757773943, 96.390, 1897.0, 43.5546
23.784034509, 96.390, 1800.0, 42.4264
23.810295074, 96.390, 1822.0, 42.6849
23.836555639, 96.390, 1810.0, 42.5441
23.862816205, 96.390, 1835.0, 42.8369
23.889076770, 96.390, 1793.0, 42.3438
23.915337335, 96.390, 1812.0, 42.5676
23.941597901, 96.390, 1866.0, 43.1972
23.967858466, 96.390, 1858.0, 43.1045
23.994119031, 96.390, 1728.0, 41.5692
24.020379597, 96.390, 1746.0, 41.7852
24.046640162, 96.390, 1746.0, 41.7852
24.072900727, 96.390, 1706.0, 41.3038
24.099161293, 96.390, 1683.0, 41.0244
24.125421858, 96.390, 1748.0, 41.8091
24.151682424, 96.390, 1728.0, 41.5692
24.177942989, 96.390, 1643.0, 40.5339
24.204203554, 96.390, 1563.0, 39.5348
24.230464120, 96.390, 1590.0, 39.8748
24.256724685, 96.390, 1605.0, 40.0625
24.282985250, 96.390, 1609.0, 40.1123
24.309245816, 96.390, 1578.0, 39.7240
24.335506381, 96.390, 1522.0, 39.0128
24.361766946, 96.390, 1488.0, 38.5746
24.388027512, 96.390, 1497.0, 38.6911
24.414288077, 96.390, 1502.0, 38.7556
24.440548642, 96.390, 1460.0, 38.2099
24.466809208, 96.390, 1456.0, 38.1576
24.493069773, 96.390, 1493.0, 38.6394
24.519330338, 96.390, 1456.0, 38.1576
24.545590904, 96.390, 1487.0, 38.5616
24.571851469, 96.390, 1509.0, 38.8458
24.598112035, 96.390, 1468.0, 38.3145
24.624372600, 96.390, 1478.0, 38.4448
24.650633165, 96.390, 1497.0, 38.6911
24.676893731, 96.390, 1448.0, 38.0526
24.703154296, 96.390, 1379.0, 37.1349
24.729414861, 96.390, 1419.0, 37.6696
24.755675427, 96.390, 1449.0, 38.0657
24.781935992, 96.390, 1506.0, 38.8072
24.808196557, 96.390, 1527.0, 39.0768
24.834457123, 96.390, 1566.0, 39.5727
24.860717688, 96.390, 1409.0, 37.5366
24.886978253, 96.390, 1501.0, 38.7427
24.913238819, 96.390, 1419.0, 37.6696
24.939499384, 96.390, 1403.0, 37.4566
24.965759950, 96.390, 1459.0, 38.1969
24.992020515, 96.390, 1425.0, 37.7492
25.018281080, 96.390, 1374.0, 37.0675
25.044541646, 96.390, 1342.0, 36.6333
25.070802211, 96.390, 1348.0, 36.7151
25.097062776, 96.390, 1329.0, 36.4555
25.123323342, 96.390, 1344.0, 36.6606
25.149583907, 96.390, 1343.0, 36.6470
25.175844472, 96.390, 1249.0, 35.3412
25.202105038, 96.390, 1358.0, 36.8511
25.228365603, 96.390, 1290.0, 35.9166
25.254626168, 96.390, 1277.0, 35.7351
25.280886734, 96.390, 1327.0, 36.4280
25.307147299, 96.390, 1329.0, 36.4555
25.333407864, 96.390, 1284.0, 35.8329
25.359668430, 96.390, 1266.0, 35.5809
25.385928995, 96.390, 1334.0, 36.5240
25.412189561, 96.390, 1289.0, 35.9026
25.438450126, 96.390, 1228.0, 35.0428
25.464710691, 96.390, 1311.0, 36.2077
25.490971257, 96.390, 1285.0, 35.8469
25.517231822, 96.390, 1272.0, 35.6651
25.543492387, 96.390, 1313.0, 36.2353
25.569752953, 96.390, 1310.0, 36.1939
25.596013518, 96.390, 1239.0, 35.1994
25.622274083, 96.390, 1250.0, 35.3553
25.648534649, 96.390, 1311.0, 36.2077
25.674795214, 96.390, 1248.0, 35.3270
25.701055779, 96.390, 1267.0, 35.5949
25.727316345, 96.390, 1319.0, 36.3180
25.753576910, 96.390, 1237.0, 35.1710
25.779837476, 96.390, 1243.0, 35.2562
25.806098041, 96.390, 1320.0, 36.3318
25.832358606, 96.390, 1268.0, 35.6090
25.858619172, 96.390, 1329.0, 36.4555
25.884879737, 96.390, 1332.0, 36.4966
25.911140302, 96.390, 1331.0, 36.4829
25.937400868, 96.390, 1327.0, 36.4280
25.963661433, 96.390, 1216.0, 34.8712
25.989921998, 96.390, 1337.0, 36.5650
26.016182564, 96.390, 1366.0, 36.9594
26.042443129, 96.390, 1366.0, 36.9594
26.068703694, 96.390, 1357.0, 36.8375
26.094964260, 96.390, 1301.0, 36.0694
26.121224825, 96.390, 1328.0, 36.4417
26.147485390, 96.390, 1369.0, 37.0000
26.173745956, 96.390, 1291.0, 35.9305
26.200006521, 96.390, 1292.0, 35.9444
26.226267087, 96.390, 1244.0, 35.2704
26.252527652, 96.390, 1279.0, 35.7631
26.278788217, 96.390, 1240.0, 35.2136
26.305048783, 96.390, 1237.0, 35.1710
26.331309348, 96.390, 1254.0, 35.4119
26.357569913, 96.390, 1294.0, 35.9722
26.383830479, 96.390, 1325.0, 36.4005
26.410091044, 96.390, 1186.0, 34.4384
26.436351609, 96.390, 1236.0, 35.1568
26.462612175, 96.390, 1296.0, 36.0000
26.488872740, 96.390, 1286.0, 35.8608
26.515133305, 96.390, 1288.0, 35.8887
26.541393871, 96.390, 1193.0, 34.5398
26.567654436, 96.390, 1311.0, 36.2077
26.593915002, 96.390, 1242.0, 35.2420
26.620175567, 96.390, 1329.0, 36.4555
26.646436132, 96.390, 1333.0, 36.5103
26.672696698, 96.390, 1370.0, 37.0135
26.698957263, 96.390, 1459.0, 38.1969
26.725217828, 96.390, 1569.0, 39.6106
26.751478394, 96.390, 1790.0, 42.3084
26.777738959, 96.390, 1916.0, 43.7721
26.803999524, 96.390, 2179.0, 46.6798
26.830260090, 96.390, 2359.0, 48.5695
26.856520655, 96.390, 2410.0, 49.0918
26.882781220, 96.390, 1916.0, 43.7721
26.909041786, 96.390, 1902.0, 43.6119
26.935302351, 96.390, 1758.0, 41.9285
26.961562916, 96.390, 1693.0, 41.1461
26.987823482, 96.390, 1745.0, 41.7732
27.014084047, 96.390, 1932.0, 43.9545
27.040344613, 96.390, 2262.0, 47.5605
27.066605178, 96.390, 2423.0, 49.2240
27.092865743, 96.390, 2484.0, 49.8397
27.119126309, 96.390, 2104.0, 45.8694
27.145386874, 96.390, 2319.0, 48.1560
27.171647439, 96.390, 2432.0, 49.3153
27.197908005, 96.390, 2503.0, 50.0300
27.224168570, 96.390, 2717.0, 52.1249
27.250429135, 96.390, 2544.0, 50.4381
27.276689701, 96.390, 2090.0, 45.7165
27.302950266, 96.390, 1803.0, 42.4617
27.329210831, 96.390, 1679.0, 40.9756
27.355471397, 96.390, 1394.0, 37.3363
27.381731962, 96.390, 1345.0, 36.6742
27.407992528, 96.390, 1364.0, 36.9324
27.434253093, 96.390, 1389.0, 37.2693
27.460513658, 96.390, 1407.0, 37.5100
27.486774224, 96.390, 1285.0, 35.8469
27.513034789, 96.390, 1231.0, 35.0856
27.539295354, 96.390, 1229.0, 35.0571
27.565555920, 96.390, 1223.0, 34.9714
27.591816485, 96.390, 1274.0, 35.6931
27.618077050, 96.390, 1237.0, 35.1710
27.644337616, 96.390, 1222.0, 34.9571
27.670598181, 96.390, 1208.0, 34.7563
27.696858746, 96.390, 1254.0, 35.4119
27.723119312, 96.390, 1215.0, 34.8569
27.749379877, 96.390, 1263.0, 35.5387
27.775640442, 96.390, 1292.0, 35.9444
27.801901008, 96.390, 1240.0, 35.2136
27.828161573, 96.390, 1181.0, 34.3657
27.854422139, 96.390, 1235.0, 35.1426
27.880682704, 96.390, 1282.0, 35.8050
27.906943269, 96.390, 1202.0, 34.6699
27.933203835, 96.390, 1305.0, 36.1248
27.959464400, 96.390, 1219.0, 34.9142
27.985724965, 96.390, 1259.0, 35.4824
28.011985531, 96.390, 1249.0, 35.3412
28.038246096, 96.390, 1304.0, 36.1109
28.064506661, 96.390, 1254.0, 35.4119
28.090767227, 96.390, 1257.0, 35.4542
28.117027792, 96.390, 1243.0, 35.2562
28.143288357, 96.390, 1265.0, 35.5668
28.169548923, 96.390, 1264.0, 35.5528
28.195809488, 96.390, 1269.0, 35.6230
28.222070054, 96.390, 1260.0, 35.4965
28.248330619, 96.390, 1219.0, 34.9142
28.274591184, 96.390, 1267.0, 35.5949
28.300851750, 96.390, 1297.0, 36.0139
28.327112315, 96.390, 1233.0, 35.1141
28.353372880, 96.390, 1362.0, 36.9053
28.379633446, 96.390, 1367.0, 36.9730
28.405894011, 96.390, 1425.0, 37.7492
28.432154576, 96.390, 1398.0, 37.3898
28.458415142, 96.390, 1350.0, 36.7423
28.484675707, 96.390, 1325.0, 36.4005
28.510936272, 96.390, 1374.0, 37.0675
28.537196838, 96.390, 1362.0, 36.9053
28.563457403, 96.390, 1395.0, 37.3497
28.589717968, 96.390, 1296.0, 36.0000
28.615978534, 96.390, 1281.0, 35.7911
28.642239099, 96.390, 1272.0, 35.6651
28.668499665, 96.390, 1304.0, 36.1109
28.694760230, 96.390, 1256.0, 35.4401
28.721020795, 96.390, 1231.0, 35.0856
28.747281361, 96.390, 1271.0, 35.6511
28.773541926, 96.390, 1300.0, 36.0555
28.799802491, 96.390, 1241.0, 35.2278
28.826063057, 96.390, 1363.0, 36.9188
28.852323622, 96.390, 1293.0, 35.9583
28.878584187, 96.390, 1388.0, 37.2559
28.904844753, 96.390, 1346.0, 36.6879
28.931105318, 96.390, 1314.0, 36.2491
28.957365883, 96.390, 1324.0, 36.3868
28.983626449, 96.390, 1377.0, 37.1080
29.009887014, 96.390, 1274.0, 35.6931
29.036147579, 96.390, 1321.0, 36.3456
29.062408145, 96.390, 1331.0, 36.4829
29.088668710, 96.390, 1360.0, 36.8782
29.114929276, 96.390, 1493.0, 38.6394
29.141189841, 96.390, 1604.0, 40.0500
29.167450406, 96.390, 1756.0, 41.9047
29.193710972, 96.390, 2017.0, 44.9110
29.219971537, 96.390, 2004.0, 44.7661
29.246232102, 96.390, 2012.0, 44.8553
29.272492668, 96.390, 2279.0, 47.7389
29.298753233, 96.390, 2596.0, 50.9510
29.325013798, 96.390, 2635.0, 51.3323
29.351274364, 96.390, 2606.0, 51.0490
29.377534929, 96.390, 2335.0, 48.3218
29.403795494, 96.390, 2231.0, 47.2335
29.430056060, 96.390, 2153.0, 46.4004
29.456316625, 96.390, 2175.0, 46.6369
29.482577191, 96.390, 2204.0, 46.9468
29.508837756, 96.390, 2424.0, 49.2341
29.535098321, 96.390, 2448.0, 49.4773
29.561358887, 96.390, 2112.0, 45.9565
29.587619452, 96.390, 1868.0, 43.2204
29.613880017, 96.390, 1813.0, 42.5793
29.640140583, 96.390, 1663.0, 40.7799
29.666401148, 96.390, 1537.0, 39.2046
29.692661713, 96.390, 1565.0, 39.5601
29.718922279, 96.390, 1489.0, 38.5876
29.745182844, 96.390, 1495.0, 38.6652
29.771443409, 96.390, 1478.0, 38.4448
29.797703975, 96.390, 1431.0, 37.8286
29.823964540, 96.390, 1331.0, 36.4829
29.850225105, 96.390, 1338.0, 36.5787
29.876485671, 96.390, 1339.0, 36.5923
29.902746236, 96.390, 1207.0, 34.7419
29.929006802, 96.390, 1303.0, 36.0971
29.955267367, 96.390, 1305.0, 36.1248
29.981527932, 96.390, 1359.0, 36.8646
30.007788498, 96.390, 1448.0, 38.0526
30.034049063, 96.390, 1492.0, 38.6264
30.060309628, 96.390, 1403.0, 37.4566
30.086570194, 96.390, 1401.0, 37.4299
30.112830759, 96.390, 1354.0, 36.7967
30.139091324, 96.390, 1316.0, 36.2767
30.165351890, 96.390, 1312.0, 36.2215
30.191612455, 96.390, 1263.0, 35.5387
30.217873020, 96.390, 1266.0, 35.5809
30.244133586, 96.390, 1269.0, 35.6230
30.270394151, 96.390, 1235.0, 35.1426
30.296654717, 96.390, 1191.0, 34.5109
30.322915282, 96.390, 1267.0, 35.5949
30.349175847, 96.390, 1168.0, 34.1760
30.375436413, 96.390, 1257.0, 35.4542
30.401696978, 96.390, 1257.0, 35.4542
30.427957543, 96.390, 1319.0, 36.3180
30.454218109, 96.390, 1310.0, 36.1939
30.480478674, 96.390, 1305.0, 36.1248
30.506739239, 96.390, 1220.0, 34.9285
30.532999805, 96.390, 1244.0, 35.2704
30.559260370, 96.390, 1233.0, 35.1141
30.585520935, 96.390, 1270.0, 35.6371
30.611781501, 96.390, 1341.0, 36.6197
30.638042066, 96.390, 1410.0, 37.5500
30.664302631, 96.390, 1395.0, 37.3497
30.690563197, 96.390, 1478.0, 38.4448
30.716823762, 96.390, 1449.0, 38.0657
30.743084328, 96.390, 1354.0, 36.7967
30.769344893, 96.390, 1459.0, 38.1969
30.795605458, 96.390, 1456.0, 38.1576
30.821866024, 96.390, 1520.0, 38.9872
30.848126589, 96.390, 1587.0, 39.8372
30.874387154, 96.390, 1631.0, 40.3856
30.900647720, 96.390, 1525.0, 39.0512
30.926908285, 96.390, 1481.0, 38.4838
30.953168850, 96.390, 1419.0, 37.6696
30.979429416, 96.390, 1296.0, 36.0000
31.005689981, 96.390, 1315.0, 36.2629
31.031950546, 96.390, 1358.0, 36.8511
31.058211112, 96.390, 1312.0, 36.2215
31.084471677, 96.390, 1349.0, 36.7287
31.110732243, 96.390, 1387.0, 37.2424
31.136992808, 96.390, 1336.0, 36.5513
31.163253373, 96.390, 1404.0, 37.4700
31.189513939, 96.390, 1503.0, 38.7685
31.215774504, 96.390, 1703.0, 41.2674
31.242035069, 96.390, 1898.0, 43.5660
31.268295635, 96.390, 2341.0, 48.3839
31.294556200, 96.390, 2372.0, 48.7032
31.320816765, 96.390, 2399.0, 48.9796
31.347077331, 96.390, 2355.0, 48.5283
31.373337896, 96.390, 2231.0, 47.2335
31.399598461, 96.390, 2182.0, 46.7119
31.425859027, 96.390, 1993.0, 44.6430
31.452119592, 96.390, 1808.0, 42.5206
31.478380157, 96.390, 1564.0, 39.5474
31.504640723, 96.390, 1535.0, 39.1791
31.530901288, 96.390, 1458.0, 38.1838
31.557161854, 96.390, 1371.0, 37.0270
31.583422419, 96.390, 1323.0, 36.3731
31.609682984, 96.390, 1266.0, 35.5809
31.635943550, 96.390, 1298.0, 36.0278
31.662204115, 96.390, 1249.0, 35.3412
31.688464680, 96.390, 1178.0, 34.3220
31.714725246, 96.390, 1179.0, 34.3366
31.740985811, 96.390, 1234.0, 35.1283
31.767246376, 96.390, 1205.0, 34.7131
31.793506942, 96.390, 1280.0, 35.7771
31.819767507, 96.390, 1261.0, 35.5106
31.846028072, 96.390, 1335.0, 36.5377
31.872288638, 96.390, 1324.0, 36.3868
31.898549203, 96.390, 1415.0, 37.6165
31.924809769, 96.390, 1436.0, 37.8946
31.951070334, 96.390, 1517.0, 38.9487
31.977330899, 96.390, 1416.0, 37.6298
32.003591465, 96.390, 1453.0, 38.1182
32.029852030, 96.390, 1486.0, 38.5487
32.056112595, 96.390, 1467.0, 38.3014
32.082373161, 96.390, 1557.0, 39.4588
32.108633726, 96.390, 1611.0, 40.1373
32.134894291, 96.390, 1653.0, 40.6571
32.161154857, 96.390, 1764.0, 42.0000
32.187415422, 96.390, 1759.0, 41.9404
32.213675987, 96.390, 1733.0, 41.6293
32.239936553, 96.390, 1983.0, 44.5309
32.266197118, 96.390, 2033.0, 45.0888
32.292457683, 96.390, 2249.0, 47.4236
32.318718249, 96.390, 2274.0, 47.6865
32.344978814, 96.390, 1911.0, 43.7150
32.371239380, 96.390, 1729.0, 41.5812
32.397499945, 96.390, 1788.0, 42.2847
32.423760510, 96.390, 1532.0, 39.1408
32.450021076, 96.390, 1325.0, 36.4005
32.476281641, 96.390, 1365.0, 36.9459
32.502542206, 96.390, 1336.0, 36.5513
32.528802772, 96.390, 1307.0, 36.1525
32.555063337, 96.390, 1305.0, 36.1248
32.581323902, 96.390, 1282.0, 35.8050
32.607584468, 96.390, 1312.0, 36.2215
32.633845033, 96.390, 1362.0, 36.9053
32.660105598, 96.390, 1351.0, 36.7560
32.686366164, 96.390, 1506.0, 38.8072
32.712626729, 96.390, 1536.0, 39.1918
32.738887295, 96.390, 1584.0, 39.7995
32.765147860, 96.390, 1432.0, 37.8418
32.791408425, 96.390, 1486.0, 38.5487
32.817668991, 96.390, 1397.0, 37.3765
32.843929556, 96.390, 1455.0, 38.1445
32.870190121, 96.390, 1424.0, 37.7359
32.896450687, 96.390, 1445.0, 38.0132
32.922711252, 96.390, 1484.0, 38.5227
32.948971817, 96.390, 1516.0, 38.9358
32.975232383, 96.390, 1610.0, 40.1248
33.001492948, 96.390, 1516.0, 38.9358
33.027753513, 96.390, 1578.0, 39.7240
33.054014079, 96.390, 1678.0, 40.9634
33.080274644, 96.390, 1663.0, 40.7799
33.106535209, 96.390, 1652.0, 40.6448
33.132795775, 96.390, 1632.0, 40.3980
33.159056340, 96.390, 1504.0, 38.7814
33.185316906, 96.390, 1561.0, 39.5095
33.211577471, 96.390, 1609.0, 40.1123
33.237838036, 96.390, 1696.0, 41.1825
33.264098602, 96.390, 1656.0, 40.6940
33.290359167, 96.390, 1710.0, 41.3521
33.316619732, 96.390, 1616.0, 40.1995
33.342880298, 96.390, 1619.0, 40.2368
33.369140863, 96.390, 1498.0, 38.7040
33.395401428, 96.390, 1468.0, 38.3145
33.421661994, 96.390, 1574.0, 39.6737
33.447922559, 96.390, 1531.0, 39.1280
33.474183124, 96.390, 1572.0, 39.6485
33.500443690, 96.390, 1621.0, 40.2616
33.526704255, 96.390, 1689.0, 41.0974
33.552964820, 96.390, 1705.0, 41.2916
33.579225386, 96.390, 1729.0, 41.5812
33.605485951, 96.390, 1768.0, 42.0476
33.631746517, 96.390, 1853.0, 43.0465
33.658007082, 96.390, 2047.0, 45.2438
33.684267647, 96.390, 1969.0, 44.3734
33.710528213, 96.390, 2094.0, 45.7602
33.736788778, 96.390, 2150.0, 46.3681
33.763049343, 96.390, 2069.0, 45.4863
33.789309909, 96.390, 2140.0, 46.2601
33.815570474, 96.390, 2185.0, 46.7440
33.841831039, 96.390, 2264.0, 47.5815
33.868091605, 96.390, 2419.0, 49.1833
33.894352170, 96.390, 2446.0, 49.4571
33.920612735, 96.390, 2552.0, 50.5173
33.946873301, 96.390, 2665.0, 51.6236
33.973133866, 96.390, 2706.0, 52.0192
33.999394432, 96.390, 2807.0, 52.9811
34.025654997, 96.390, 2863.0, 53.5070
34.051915562, 96.390, 3083.0, 55.5248
34.078176128, 96.390, 3241.0, 56.9298
34.104436693, 96.390, 3080.0, 55.4977
34.130697258, 96.390, 3209.0, 56.6480
34.156957824, 96.390, 3196.0, 56.5332
34.183218389, 96.390, 3153.0, 56.1516
34.209478954, 96.390, 3147.0, 56.0981
34.235739520, 96.390, 2934.0, 54.1664
34.262000085, 96.390, 2987.0, 54.6535
34.288260650, 96.390, 3105.0, 55.7225
34.314521216, 96.390, 2992.0, 54.6992
34.340781781, 96.390, 3120.0, 55.8570
34.367042346, 96.390, 3011.0, 54.8726
34.393302912, 96.390, 3178.0, 56.3738
34.419563477, 96.390, 3171.0, 56.3116
34.445824043, 96.390, 3228.0, 56.8155
34.472084608, 96.390, 3331.0, 57.7148
34.498345173, 96.390, 3649.0, 60.4070
34.524605739, 96.390, 3728.0, 61.0574
34.550866304, 96.390, 3676.0, 60.6300
34.577126869, 96.390, 3895.0, 62.4099
34.603387435, 96.390, 4125.0, 64.2262
34.629648000, 96.390, 4082.0, 63.8905
34.655908565, 96.390, 4180.0, 64.6529
34.682169131, 96.390, 4329.0, 65.7951
34.708429696, 96.390, 4685.0, 68.4471
34.734690261, 96.390, 4866.0, 69.7567
34.760950827, 96.390, 4808.0, 69.3397
34.787211392, 96.390, 4568.0, 67.5870
34.813471958, 96.390, 4164.0, 64.5291
34.839732523, 96.390, 3826.0, 61.8547
34.865993088, 96.390, 3687.0, 60.7207
34.892253654, 96.390, 3195.0, 56.5243
34.918514219, 96.390, 2941.0, 54.2310
34.944774784, 96.390, 2760.0, 52.5357
34.971035350, 96.390, 2765.0, 52.5833
34.997295915, 96.390, 2589.0, 50.8822
35.023556480, 96.390, 2754.0, 52.4786
35.049817046, 96.390, 2700.0, 51.9615
35.076077611, 96.390, 2714.0, 52.0961
35.102338176, 96.390, 2709.0, 52.0481
35.128598742, 96.390, 2793.0, 52.8488
35.154859307, 96.390, 2651.0, 51.4879
35.181119872, 96.390, 2679.0, 51.7591
35.207380438, 96.390, 2694.0, 51.9038
35.233641003, 96.390, 2712.0, 52.0769
35.259901569, 96.390, 2598.0, 50.9706
35.286162134, 96.390, 2575.0, 50.7445
35.312422699, 96.390, 2535.0, 50.3488
35.338683265, 96.390, 2438.0, 49.3761
35.364943830, 96.390, 2350.0, 48.4768
35.391204395, 96.390, 2207.0, 46.9787
35.417464961, 96.390, 2246.0, 47.3920
35.443725526, 96.390, 2277.0, 47.7179
35.469986091, 96.390, 2150.0, 46.3681
35.496246657, 96.390, 2168.0, 46.5618
35.522507222, 96.390, 2122.0, 46.0652
35.548767787, 96.390, 2197.0, 46.8722
35.575028353, 96.390, 2130.0, 46.1519
35.601288918, 96.390, 2110.0, 45.9347
35.627549484, 96.390, 2103.0, 45.8585
35.653810049, 96.390, 2165.0, 46.5296
35.680070614, 96.390, 2213.0, 47.0425
35.706331180, 96.390, 2209.0, 47.0000
35.732591745, 96.390, 2279.0, 47.7389
35.758852310, 96.390, 2285.0, 47.8017
35.785112876, 96.390, 2214.0, 47.0532
35.811373441, 96.390, 2290.0, 47.8539
35.837634006, 96.390, 2338.0, 48.3529
35.863894572, 96.390, 2485.0, 49.8498
35.890155137, 96.390, 2576.0, 50.7543
35.916415702, 96.390, 2732.0, 52.2685
35.942676268, 96.390, 2855.0, 53.4322
35.968936833, 96.390, 2954.0, 54.3507
35.995197398, 96.390, 3018.0, 54.9363
36.021457964, 96.390, 2746.0, 52.4023
36.047718529, 96.390, 2689.0, 51.8556
36.073979095, 96.390, 2753.0, 52.4690
36.100239660, 96.390, 2900.0, 53.8516
36.126500225, 96.390, 2774.0, 52.6688
36.152760791, 96.390, 2872.0, 53.5910
36.179021356, 96.390, 3044.0, 55.1725
36.205281921, 96.390, 3517.0, 59.3043
36.231542487, 96.390, 3643.0, 60.3573
36.257803052, 96.390, 3314.0, 57.5674
36.284063617, 96.390, 2805.0, 52.9623
36.310324183, 96.390, 2709.0, 52.0481
36.336584748, 96.390, 2591.0, 50.9019
36.362845313, 96.390, 2199.0, 46.8935
36.389105879, 96.390, 1986.0, 44.5646
36.415366444, 96.390, 1955.0, 44.2154
36.441627010, 96.390, 1902.0, 43.6119
36.467887575, 96.390, 1870.0, 43.2435
36.494148140, 96.390, 1854.0, 43.0581
36.520408706, 96.390, 1901.0, 43.6005
36.546669271, 96.390, 1860.0, 43.1277
36.572929836, 96.390, 1913.0, 43.7379
36.599190402, 96.390, 1969.0, 44.3734
36.625450967, 96.390, 2024.0, 44.9889
36.651711532, 96.390, 1920.0, 43.8178
36.677972098, 96.390, 1850.0, 43.0116
36.704232663, 96.390, 1847.0, 42.9767
36.730493228, 96.390, 1902.0, 43.6119
36.756753794, 96.390, 1852.0, 43.0349
36.783014359, 96.390, 1874.0, 43.2897
36.809274924, 96.390, 1837.0, 42.8602
36.835535490, 96.390, 1894.0, 43.5201
36.861796055, 96.390, 1892.0, 43.4971
36.888056621, 96.390, 1868.0, 43.2204
36.914317186, 96.390, 1834.0, 42.8252
36.940577751, 96.390, 1850.0, 43.0116
36.966838317, 96.390, 1939.0, 44.0341
36.993098882, 96.390, 1847.0, 42.9767
37.019359447, 96.390, 1852.0, 43.0349
37.045620013, 96.390, 1820.0, 42.6615
37.071880578, 96.390, 1818.0, 42.6380
37.098141143, 96.390, 1838.0, 42.8719
37.124401709, 96.390, 1863.0, 43.1625
37.150662274, 96.390, 1993.0, 44.6430
37.176922839, 96.390, 1944.0, 44.0908
37.203183405, 96.390, 1986.0, 44.5646
37.229443970, 96.390, 2033.0, 45.0888
37.255704535, 96.390, 2072.0, 45.5192
37.281965101, 96.390, 2018.0, 44.9222
37.308225666, 96.390, 1924.0, 43.8634
37.334486232, 96.390, 2021.0, 44.9555
37.360746797, 96.390, 1995.0, 44.6654
37.387007362, 96.390, 2070.0, 45.4973
37.413267928, 96.390, 2036.0, 45.1221
37.439528493, 96.390, 1998.0, 44.6990
37.465789058, 96.390, 2134.0, 46.1952
37.492049624, 96.390, 2138.0, 46.2385
37.518310189, 96.390, 2215.0, 47.0638
37.544570754, 96.390, 2180.0, 46.6905
37.570831320, 96.390, 2150.0, 46.3681
37.597091885, 96.390, 2297.0, 47.9270
37.623352450, 96.390, 2168.0, 46.5618
37.649613016, 96.390, 2041.0, 45.1774
37.675873581, 96.390, 1972.0, 44.4072
37.702134147, 96.390, 1990.0, 44.6094
37.728394712, 96.390, 2017.0, 44.9110
37.754655277, 96.390, 1989.0, 44.5982
37.780915843, 96.390, 2171.0, 46.5940
37.807176408, 96.390, 2208.0, 46.9894
37.833436973, 96.390, 2487.0, 49.8698
37.859697539, 96.390, 2576.0, 50.7543
37.885958104, 96.390, 2604.0, 51.0294
37.912218669, 96.390, 2503.0, 50.0300
37.938479235, 96.390, 2406.0, 49.0510
37.964739800, 96.390, 2356.0, 48.5386
37.991000365, 96.390, 2397.0, 48.9592
38.017260931, 96.390, 2218.0, 47.0956
38.043521496, 96.390, 2188.0, 46.7761
38.069782061, 96.390, 2113.0, 45.9674
38.096042627, 96.390, 2075.0, 45.5522
38.122303192, 96.390, 2006.0, 44.7884
38.148563758, 96.390, 1995.0, 44.6654
38.174824323, 96.390, 2109.0, 45.9239
38.201084888, 96.390, 2253.0, 47.4658
38.227345454, 96.390, 2050.0, 45.2769
38.253606019, 96.390, 2121.0, 46.0543
38.279866584, 96.390, 1982.0, 44.5197
38.306127150, 96.390, 1932.0, 43.9545
38.332387715, 96.390, 1977.0, 44.4635
38.358648280, 96.390, 1865.0, 43.1856
38.384908846, 96.390, 1873.0, 43.2782
38.411169411, 96.390, 1849.0, 43.0000
38.437429976, 96.390, 1758.0, 41.9285
38.463690542, 96.390, 1688.0, 41.0853
38.489951107, 96.390, 1831.0, 42.7902
38.516211673, 96.390, 1862.0, 43.1509
38.542472238, 96.390, 1772.0, 42.0951
38.568732803, 96.390, 1788.0, 42.2847
38.594993369, 96.390, 1807.0, 42.5088
38.621253934, 96.390, 1811.0, 42.5558
38.647514499, 96.390, 1732.0, 41.6173
38.673775065, 96.390, 1728.0, 41.5692
38.700035630, 96.390, 1664.0, 40.7922
38.726296195, 96.390, 1737.0, 41.6773
38.752556761, 96.390, 1663.0, 40.7799
38.778817326, 96.390, 1704.0, 41.2795
38.805077891, 96.390, 1811.0, 42.5558
38.831338457, 96.390, 1762.0, 41.9762
38.857599022, 96.390, 1655.0, 40.6817
38.883859587, 96.390, 1721.0, 41.4849
38.910120153, 96.390, 1729.0, 41.5812
38.936380718, 96.390, 1794.0, 42.3556
38.962641284, 96.390, 1824.0, 42.7083
38.988901849, 96.390, 1914.0, 43.7493
39.015162414, 96.390, 2091.0, 45.7275
39.041422980, 96.390, 2158.0, 46.4543
39.067683545, 96.390, 2456.0, 49.5580
39.093944110, 96.390, 2686.0, 51.8266
39.120204676, 96.390, 2932.0, 54.1479
39.146465241, 96.390, 3088.0, 55.5698
39.172725806, 96.390, 3096.0, 55.6417
39.198986372, 96.390, 3275.0, 57.2276
39.225246937, 96.390, 3279.0, 57.2626
39.251507502, 96.390, 3056.0, 55.2811
39.277768068, 96.390, 2952.0, 54.3323
39.304028633, 96.390, 2533.0, 50.3289
39.330289199, 96.390, 2327.0, 48.2390
39.356549764, 96.390, 2209.0, 47.0000
39.382810329, 96.390, 1972.0, 44.4072
39.409070895, 96.390, 1861.0, 43.1393
39.435331460, 96.390, 1807.0, 42.5088
39.461592025, 96.390, 1622.0, 40.2741
39.487852591, 96.390, 1655.0, 40.6817
39.514113156, 96.390, 1622.0, 40.2741
39.540373721, 96.390, 1503.0, 38.7685
39.566634287, 96.390, 1581.0, 39.7618
39.592894852, 96.390, 1583.0, 39.7869
39.619155417, 96.390, 1599.0, 39.9875
39.645415983, 96.390, 1595.0, 39.9375
39.671676548, 96.390, 1537.0, 39.2046
39.697937113, 96.390, 1574.0, 39.6737
39.724197679, 96.390, 1546.0, 39.3192
39.750458244, 96.390, 1479.0, 38.4578
39.776718810, 96.390, 1500.0, 38.7298
39.802979375, 96.390, 1614.0, 40.1746
39.829239940, 96.390, 1592.0, 39.8999
39.855500506, 96.390, 1609.0, 40.1123
39.881761071, 96.390, 1602.0, 40.0250
39.908021636, 96.390, 1502.0, 38.7556
39.934282202, 96.390, 1567.0, 39.5854
39.960542767, 96.390, 1582.0, 39.7744
39.986803332, 96.390, 1628.0, 40.3485
40.013063898, 96.390, 1581.0, 39.7618
40.039324463, 96.390, 1575.0, 39.6863
40.065585028, 96.390, 1519.0, 38.9744
40.091845594, 96.390, 1541.0, 39.2556
40.118106159, 96.390, 1500.0, 38.7298
40.144366725, 96.390, 1491.0, 38.6135
40.170627290, 96.390, 1407.0, 37.5100
40.196887855, 96.390, 1486.0, 38.5487
40.223148421, 96.390, 1372.0, 37.0405
40.249408986, 96.390, 1419.0, 37.6696
40.275669551, 96.390, 1389.0, 37.2693
40.301930117, 96.390, 1343.0, 36.6470
40.328190682, 96.390, 1361.0, 36.8917
40.354451247, 96.390, 1366.0, 36.9594
40.380711813, 96.390, 1373.0, 37.0540
40.406972378, 96.390, 1321.0, 36.3456
40.433232943, 96.390, 1361.0, 36.8917
40.459493509, 96.390, 1332.0, 36.4966
40.485754074, 96.390, 1397.0, 37.3765
40.512014639, 96.390, 1336.0, 36.5513
40.538275205, 96.390, 1375.0, 37.0810
40.564535770, 96.390, 1377.0, 37.1080
40.590796336, 96.390, 1402.0, 37.4433
40.617056901, 96.390, 1488.0, 38.5746
40.643317466, 96.390, 1395.0, 37.3497
40.669578032, 96.390, 1482.0, 38.4968
40.695838597, 96.390, 1467.0, 38.3014
40.722099162, 96.390, 1525.0, 39.0512
40.748359728, 96.390, 1490.0, 38.6005
40.774620293, 96.390, 1402.0, 37.4433
40.800880858, 96.390, 1408.0, 37.5233
40.827141424, 96.390, 1351.0, 36.7560
40.853401989, 96.390, 1404.0, 37.4700
40.879662554, 96.390, 1324.0, 36.3868
40.905923120, 96.390, 1371.0, 37.0270
40.932183685, 96.390, 1297.0, 36.0139
40.958444251, 96.390, 1265.0, 35.5668
40.984704816, 96.390, 1308.0, 36.1663
41.010965381, 96.390, 1362.0, 36.9053
41.037225947, 96.390, 1376.0, 37.0945
41.063486512, 96.390, 1379.0, 37.1349
41.089747077, 96.390, 1365.0, 36.9459
41.116007643, 96.390, 1370.0, 37.0135
41.142268208, 96.390, 1364.0, 36.9324
41.168528773, 96.390, 1290.0, 35.9166
41.194789339, 96.390, 1305.0, 36.1248
41.221049904, 96.390, 1380.0, 37.1484
41.247310469, 96.390, 1423.0, 37.7227
41.273571035, 96.390, 1381.0, 37.1618
41.299831600, 96.390, 1384.0, 37.2022
41.326092165, 96.390, 1375.0, 37.0810
41.352352731, 96.390, 1413.0, 37.5899
41.378613296, 96.390, 1463.0, 38.2492
41.404873862, 96.390, 1402.0, 37.4433
41.431134427, 96.390, 1409.0, 37.5366
41.457394992, 96.390, 1399.0, 37.4032
41.483655558, 96.390, 1354.0, 36.7967
41.509916123, 96.390, 1436.0, 37.8946
41.536176688, 96.390, 1379.0, 37.1349
41.562437254, 96.390, 1315.0, 36.2629
41.588697819, 96.390, 1359.0, 36.8646
41.614958384, 96.390, 1350.0, 36.7423
41.641218950, 96.390, 1322.0, 36.3593
41.667479515, 96.390, 1267.0, 35.5949
41.693740080, 96.390, 1235.0, 35.1426
41.720000646, 96.390, 1342.0, 36.6333
41.746261211, 96.390, 1409.0, 37.5366
41.772521776, 96.390, 1375.0, 37.0810
41.798782342, 96.390, 1425.0, 37.7492
41.825042907, 96.390, 1445.0, 38.0132
41.851303473, 96.390, 1349.0, 36.7287
41.877564038, 96.390, 1366.0, 36.9594
41.903824603, 96.390, 1319.0, 36.3180
41.930085169, 96.390, 1318.0, 36.3043
41.956345734, 96.390, 1324.0, 36.3868
41.982606299, 96.390, 1234.0, 35.1283
42.008866865, 96.390, 1224.0, 34.9857
42.035127430, 96.390, 1259.0, 35.4824
42.061387995, 96.390, 1351.0, 36.7560
42.087648561, 96.390, 1538.0, 39.2173
42.113909126, 96.390, 1584.0, 39.7995
42.140169691, 96.390, 1824.0, 42.7083
42.166430257, 96.390, 1772.0, 42.0951
42.192690822, 96.390, 1850.0, 43.0116
42.218951388, 96.390, 1607.0, 40.0874
42.245211953, 96.390, 1608.0, 40.0999
42.271472518, 96.390, 1576.0, 39.6989
42.297733084, 96.390, 1509.0, 38.8458
42.323993649, 96.390, 1427.0, 37.7757
42.350254214, 96.390, 1351.0, 36.7560
42.376514780, 96.390, 1298.0, 36.0278
42.402775345, 96.390, 1255.0, 35.4260
42.429035910, 96.390, 1208.0, 34.7563
42.455296476, 96.390, 1187.0, 34.4529
42.481557041, 96.390, 1162.0, 34.0881
42.507817606, 96.390, 1191.0, 34.5109
42.534078172, 96.390, 1187.0, 34.4529
42.560338737, 96.390, 1140.0, 33.7639
42.586599302, 96.390, 1134.0, 33.6749
42.612859868, 96.390, 1177.0, 34.3074
42.639120433, 96.390, 1157.0, 34.0147
42.665380999, 96.390, 1179.0, 34.3366
42.691641564, 96.390, 1251.0, 35.3695
42.717902129, 96.390, 1324.0, 36.3868
42.744162695, 96.390, 1332.0, 36.4966
42.770423260, 96.390, 1231.0, 35.0856
42.796683825, 96.390, 1315.0, 36.2629
42.822944391, 96.390, 1236.0, 35.1568
42.849204956, 96.390, 1209.0, 34.7707
42.875465521, 96.390, 1221.0, 34.9428
42.901726087, 96.390, 1202.0, 34.6699
42.927986652, 96.390, 1152.0, 33.9411
42.954247217, 96.390, 1134.0, 33.6749
42.980507783, 96.390, 1150.0, 33.9116
43.006768348, 96.390, 1143.0, 33.8083
43.033028914, 96.390, 1159.0, 34.0441
43.059289479, 96.390, 1166.0, 34.1467
43.085550044, 96.390, 1197.0, 34.5977
43.111810610, 96.390, 1166.0, 34.1467
43.138071175, 96.390, 1252.0, 35.3836
43.164331740, 96.390, 1314.0, 36.2491
43.190592306, 96.390, 1215.0, 34.8569
43.216852871, 96.390, 1254.0, 35.4119
43.243113436, 96.390, 1159.0, 34.0441
43.269374002, 96.390, 1153.0, 33.9559
43.295634567, 96.390, 1166.0, 34.1467
43.321895132, 96.390, 1176.0, 34.2929
43.348155698, 96.390, 1168.0, 34.1760
43.374416263, 96.390, 1133.0, 33.6601
43.400676828, 96.390, 1082.0, 32.8938
43.426937394, 96.390, 1085.0, 32.9393
43.453197959, 96.390, 1129.0, 33.6006
43.479458525, 96.390, 1157.0, 34.0147
43.505719090, 96.390, 1128.0, 33.5857
43.531979655, 96.390, 1119.0, 33.4515
43.558240221, 96.390, 1205.0, 34.7131
43.584500786, 96.390, 1151.0, 33.9264
43.610761351, 96.390, 1133.0, 33.6601
43.637021917, 96.390, 1149.0, 33.8969
43.663282482, 96.390, 1140.0, 33.7639
43.689543047, 96.390, 1177.0, 34.3074
43.715803613, 96.390, 1145.0, 33.8378
43.742064178, 96.390, 1107.0, 33.2716
43.768324743, 96.390, 1209.0, 34.7707
43.794585309, 96.390, 1201.0, 34.6554
43.820845874, 96.390, 1115.0, 33.3916
43.847106440, 96.390, 1209.0, 34.7707
43.873367005, 96.390, 1207.0, 34.7419
43.899627570, 96.390, 1198.0, 34.6121
43.925888136, 96.390, 1209.0, 34.7707
43.952148701, 96.390, 1136.0, 33.7046
43.978409266, 96.390, 1187.0, 34.4529
44.004669832, 96.390, 1187.0, 34.4529
44.030930397, 96.390, 1190.0, 34.4964
44.057190962, 96.390, 1165.0, 34.1321
44.083451528, 96.390, 1208.0, 34.7563
44.109712093, 96.390, 1161.0, 34.0735
44.135972658, 96.390, 1265.0, 35.5668
44.162233224, 96.390, 1218.0, 34.8999
44.188493789, 96.390, 1164.0, 34.1174
44.214754354, 96.390, 1183.0, 34.3948
44.241014920, 96.390, 1263.0, 35.5387
44.267275485, 96.390, 1204.0, 34.6987
44.293536051, 96.390, 1166.0, 34.1467
44.319796616, 96.390, 1291.0, 35.9305
44.346057181, 96.390, 1245.0, 35.2846
44.372317747, 96.390, 1241.0, 35.2278
44.398578312, 96.390, 1213.0, 34.8281
44.424838877, 96.390, 1186.0, 34.4384
44.451099443, 96.390, 1151.0, 33.9264
44.477360008, 96.390, 1216.0, 34.8712
44.503620573, 96.390, 1194.0, 34.5543
44.529881139, 96.390, 1181.0, 34.3657
44.556141704, 96.390, 1169.0, 34.1906
44.582402269, 96.390, 1255.0, 35.4260
44.608662835, 96.390, 1277.0, 35.7351
44.634923400, 96.390, 1198.0, 34.6121
44.661183966, 96.390, 1277.0, 35.7351
44.687444531, 96.390, 1225.0, 35.0000
44.713705096, 96.390, 1241.0, 35.2278
44.739965662, 96.390, 1271.0, 35.6511
44.766226227, 96.390, 1255.0, 35.4260
44.792486792, 96.390, 1233.0, 35.1141
44.818747358, 96.390, 1307.0, 36.1525
44.845007923, 96.390, 1341.0, 36.6197
44.871268488, 96.390, 1277.0, 35.7351
44.897529054, 96.390, 1206.0, 34.7275
44.923789619, 96.390, 1125.0, 33.5410
44.950050184, 96.390, 1277.0, 35.7351
44.976310750, 96.390, 1235.0, 35.1426
45.002571315, 96.390, 1256.0, 35.4401
45.028831880, 96.390, 1212.0, 34.8138
45.055092446, 96.390, 1265.0, 35.5668
45.081353011, 96.390, 1258.0, 35.4683
45.107613577, 96.390, 1267.0, 35.5949
45.133874142, 96.390, 1370.0, 37.0135
45.160134707, 96.390, 1285.0, 35.8469
45.186395273, 96.390, 1306.0, 36.1386
45.212655838, 96.390, 1309.0, 36.1801
45.238916403, 96.390, 1331.0, 36.4829
45.265176969, 96.390, 1206.0, 34.7275
45.291437534, 96.390, 1279.0, 35.7631
45.317698099, 96.390, 1250.0, 35.3553
45.343958665, 96.390, 1217.0, 34.8855
45.370219230, 96.390, 1107.0, 33.2716
45.396479795, 96.390, 1133.0, 33.6601
45.422740361, 96.390, 1146.0, 33.8526
45.449000926, 96.390, 1074.0, 32.7719
45.475261492, 96.390, 1127.0, 33.5708
45.501522057, 96.390, 1159.0, 34.0441
45.527782622, 96.390, 1138.0, 33.7343
45.554043188, 96.390, 1096.0, 33.1059
45.580303753, 96.390, 1122.0, 33.4963
45.606564318, 96.390, 1116.0, 33.4066
45.632824884, 96.390, 1154.0, 33.9706
45.659085449, 96.390, 1145.0, 33.8378
45.685346014, 96.390, 1150.0, 33.9116
45.711606580, 96.390, 1080.0, 32.8634
45.737867145, 96.390, 1127.0, 33.5708
45.764127710, 96.390, 1147.0, 33.8674
45.790388276, 96.390, 1147.0, 33.8674
45.816648841, 96.390, 1124.0, 33.5261
45.842909406, 96.390, 1105.0, 33.2415
45.869169972, 96.390, 1043.0, 32.2955
45.895430537, 96.390, 1135.0, 33.6898
45.921691103, 96.390, 1085.0, 32.9393
45.947951668, 96.390, 1090.0, 33.0151
45.974212233, 96.390, 1146.0, 33.8526
46.000472799, 96.390, 1077.0, 32.8177
46.026733364, 96.390, 1157.0, 34.0147
46.052993929, 96.390, 1154.0, 33.9706
46.079254495, 96.390, 1220.0, 34.9285
46.105515060, 96.390, 1310.0, 36.1939
46.131775625, 96.390, 1335.0, 36.5377
46.158036191, 96.390, 1456.0, 38.1576
46.184296756, 96.390, 1633.0, 40.4104
46.210557321, 96.390, 1725.0, 41.5331
46.236817887, 96.390, 1783.0, 42.2256
46.263078452, 96.390, 2005.0, 44.7772
46.289339017, 96.390, 2076.0, 45.5631
46.315599583, 96.390, 2225.0, 47.1699
46.341860148, 96.390, 2156.0, 46.4327
46.368120714, 96.390, 2272.0, 47.6655
46.394381279, 96.390, 2230.0, 47.2229
46.420641844, 96.390, 2316.0, 48.1248
46.446902410, 96.390, 2338.0, 48.3529
46.473162975, 96.390, 2366.0, 48.6415
46.499423540, 96.390, 2369.0, 48.6724
46.525684106, 96.390, 2409.0, 49.0816
46.551944671, 96.390, 2243.0, 47.3603
46.578205236, 96.390, 2113.0, 45.9674
46.604465802, 96.390, 2010.0, 44.8330
46.630726367, 96.390, 1960.0, 44.2719
46.656986932, 96.390, 1839.0, 42.8836
46.683247498, 96.390, 1724.0, 41.5211
46.709508063, 96.390, 1647.0, 40.5832
46.735768629, 96.390, 1515.0, 38.9230
46.762029194, 96.390, 1432.0, 37.8418
46.788289759, 96.390, 1372.0, 37.0405
46.814550325, 96.390, 1207.0, 34.7419
46.840810890, 96.390, 1250.0, 35.3553
46.867071455, 96.390, 1156.0, 34.0000
46.893332021, 96.390, 1156.0, 34.0000
46.919592586, 96.390, 1065.0, 32.6343
46.945853151, 96.390, 1082.0, 32.8938
46.972113717, 96.390, 1071.0, 32.7261
46.998374282, 96.390, 1063.0, 32.6037
47.024634847, 96.390, 1007.0, 31.7333
47.050895413, 96.390, 1008.0, 31.7490
47.077155978, 96.390, 1029.0, 32.0780
47.103416543, 96.390, 1058.0, 32.5269
47.129677109, 96.390, 1048.0, 32.3728
47.155937674, 96.390, 1028.0, 32.0624
47.182198240, 96.390, 1046.0, 32.3419
47.208458805, 96.390, 1040.0, 32.2490
47.234719370, 96.390, 1014.0, 31.8434
47.260979936, 96.390, 1045.0, 32.3265
47.287240501, 96.390, 1075.0, 32.7872
47.313501066, 96.390, 1074.0, 32.7719
47.339761632, 96.390, 1050.0, 32.4037
47.366022197, 96.390, 1079.0, 32.8481
47.392282762, 96.390, 1092.0, 33.0454
47.418543328, 96.390, 1101.0, 33.1813
47.444803893, 96.390, 1156.0, 34.0000
47.471064458, 96.390, 1142.0, 33.7935
47.497325024, 96.390, 1135.0, 33.6898
47.523585589, 96.390, 1151.0, 33.9264
47.549846155, 96.390, 1083.0, 32.9090
47.576106720, 96.390, 1028.0, 32.0624
47.602367285, 96.390, 1019.0, 31.9218
47.628627851, 96.390, 1086.0, 32.9545
47.654888416, 96.390, 1037.0, 32.2025
47.681148981, 96.390, 1093.0, 33.0606
47.707409547, 96.390, 1070.0, 32.7109
47.733670112, 96.390, 1061.0, 32.5730
47.759930677, 96.390, 1186.0, 34.4384
47.786191243, 96.390, 1153.0, 33.9559
47.812451808, 96.390, 1231.0, 35.0856
47.838712373, 96.390, 1277.0, 35.7351
47.864972939, 96.390, 1104.0, 33.2265
47.891233504, 96.390, 1047.0, 32.3574
47.917494069, 96.390, 1066.0, 32.6497
47.943754635, 96.390, 1064.0, 32.6190
47.970015200, 96.390, 1089.0, 33.0000
47.996275766, 96.390, 1080.0, 32.8634
48.022536331, 96.390, 986.0, 31.4006
48.048796896, 96.390, 1028.0, 32.0624
48.075057462, 96.390, 999.0, 31.6070
48.101318027, 96.390, 960.0, 30.9839
48.127578592, 96.390, 1004.0, 31.6860
48.153839158, 96.390, 1039.0, 32.2335
48.180099723, 96.390, 1056.0, 32.4962
48.206360288, 96.390, 1059.0, 32.5423
48.232620854, 96.390, 1015.0, 31.8591
48.258881419, 96.390, 1040.0, 32.2490
48.285141984, 96.390, 1046.0, 32.3419
48.311402550, 96.390, 1099.0, 33.1512
48.337663115, 96.390, 1041.0, 32.2645
48.363923681, 96.390, 1171.0, 34.2199
48.390184246, 96.390, 1168.0, 34.1760
48.416444811, 96.390, 1281.0, 35.7911
48.442705377, 96.390, 1351.0, 36.7560
48.468965942, 96.390, 1356.0, 36.8239
48.495226507, 96.390, 1353.0, 36.7831
48.521487073, 96.390, 1201.0, 34.6554
48.547747638, 96.390, 1161.0, 34.0735
48.574008203, 96.390, 1133.0, 33.6601
48.600268769, 96.390, 1178.0, 34.3220
48.626529334, 96.390, 1118.0, 33.4365
48.652789899, 96.390, 1048.0, 32.3728
48.679050465, 96.390, 971.0, 31.1609
48.705311030, 96.390, 936.0, 30.5941
48.731571595, 96.390, 923.0, 30.3809
48.757832161, 96.390, 1017.0, 31.8904
48.784092726, 96.390, 969.0, 31.1288
48.810353292, 96.390, 892.0, 29.8664
48.836613857, 96.390, 946.0, 30.7571
48.862874422, 96.390, 1014.0, 31.8434
48.889134988, 96.390, 1024.0, 32.0000
48.915395553, 96.390, 969.0, 31.1288
48.941656118, 96.390, 1002.0, 31.6544
48.967916684, 96.390, 1010.0, 31.7805
48.994177249, 96.390, 973.0, 31.1929
49.020437814, 96.390, 1094.0, 33.0757
49.046698380, 96.390, 1066.0, 32.6497
49.072958945, 96.390, 1058.0, 32.5269
49.099219510, 96.390, 1082.0, 32.8938
49.125480076, 96.390, 1129.0, 33.6006
49.151740641, 96.390, 1120.0, 33.4664
49.178001207, 96.390, 1154.0, 33.9706
49.204261772, 96.390, 1225.0, 35.0000
49.230522337, 96.390, 1185.0, 34.4238
49.256782903, 96.390, 1156.0, 34.0000
49.283043468, 96.390, 1105.0, 33.2415
49.309304033, 96.390, 1078.0, 32.8329
49.335564599, 96.390, 1057.0, 32.5115
49.361825164, 96.390, 1078.0, 32.8329
49.388085729, 96.390, 1124.0, 33.5261
49.414346295, 96.390, 1103.0, 33.2114
49.440606860, 96.390, 1036.0, 32.1870
49.466867425, 96.390, 1037.0, 32.2025
49.493127991, 96.390, 1002.0, 31.6544
49.519388556, 96.390, 978.0, 31.2730
49.545649121, 96.390, 1023.0, 31.9844
49.571909687, 96.390, 1015.0, 31.8591
49.598170252, 96.390, 1015.0, 31.8591
49.624430818, 96.390, 1017.0, 31.8904
49.650691383, 96.390, 998.0, 31.5911
49.676951948, 96.390, 999.0, 31.6070
49.703212514, 96.390, 1022.0, 31.9687
49.729473079, 96.390, 980.0, 31.3050
49.755733644, 96.390, 935.0, 30.5778
49.781994210, 96.390, 1035.0, 32.1714
49.808254775, 96.390, 989.0, 31.4484
49.834515340, 96.390, 982.0, 31.3369
49.860775906, 96.390, 952.0, 30.8545
49.887036471, 96.390, 886.0, 29.7658
49.913297036, 96.390, 883.0, 29.7153
49.939557602, 96.390, 889.0, 29.8161
49.965818167, 96.390, 886.0, 29.7658
49.992078733, 96.390, 851.0, 29.1719
50.018339298, 96.390, 825.0, 28.7228
50.044599863, 96.390, 846.0, 29.0861
50.070860429, 96.390, 882.0, 29.6985
50.097120994, 96.390, 872.0, 29.5296
50.123381559, 96.390, 816.0, 28.5657
50.149642125, 96.390, 843.0, 29.0345
50.175902690, 96.390, 849.0, 29.1376
50.202163255, 96.390, 804.0, 28.3549
50.228423821, 96.390, 841.0, 29.0000
50.254684386, 96.390, 845.0, 29.0689
50.280944951, 96.390, 839.0, 28.9655
50.307205517, 96.390, 894.0, 29.8998
50.333466082, 96.390, 840.0, 28.9828
50.359726647, 96.390, 906.0, 30.0998
50.385987213, 96.390, 879.0, 29.6479
50.412247778, 96.390, 901.0, 30.0167
50.438508344, 96.390, 1012.0, 31.8119
50.464768909, 96.390, 1018.0, 31.9061
50.491029474, 96.390, 1112.0, 33.3467
50.517290040, 96.390, 1203.0, 34.6843
50.543550605, 96.390, 1185.0, 34.4238
50.569811170, 96.390, 1195.0, 34.5688
50.596071736, 96.390, 1045.0, 32.3265
50.622332301, 96.390, 1023.0, 31.9844
50.648592866, 96.390, 989.0, 31.4484
50.674853432, 96.390, 1019.0, 31.9218
50.701113997, 96.390, 1052.0, 32.4345
50.727374562, 96.390, 909.0, 30.1496
50.753635128, 96.390, 927.0, 30.4467
50.779895693, 96.390, 986.0, 31.4006
50.806156258, 96.390, 924.0, 30.3974
50.832416824, 96.390, 934.0, 30.5614
50.858677389, 96.390, 985.0, 31.3847
50.884937955, 96.390, 951.0, 30.8383
50.911198520, 96.390, 903.0, 30.0500
50.937459085, 96.390, 933.0, 30.5450
50.963719651, 96.390, 938.0, 30.6268
50.989980216, 96.390, 951.0, 30.8383
51.016240781, 96.390, 1063.0, 32.6037
51.042501347, 96.390, 1067.0, 32.6650
51.068761912, 96.390, 1120.0, 33.4664
51.095022477, 96.390, 1058.0, 32.5269
51.121283043, 96.390, 1038.0, 32.2180
51.147543608, 96.390, 1022.0, 31.9687
51.173804173, 96.390, 966.0, 31.0805
51.200064739, 96.390, 928.0, 30.4631
51.226325304, 96.390, 958.0, 30.9516
51.252585870, 96.390, 938.0, 30.6268
51.278846435, 96.390, 903.0, 30.0500
51.305107000, 96.390, 867.0, 29.4449
51.331367566, 96.390, 860.0, 29.3258
51.357628131, 96.390, 811.0, 28.4781
51.383888696, 96.390, 829.0, 28.7924
51.410149262, 96.390, 803.0, 28.3373
51.436409827, 96.390, 778.0, 27.8927
51.462670392, 96.390, 792.0, 28.1425
51.488930958, 96.390, 769.0, 27.7308
51.515191523, 96.390, 757.0, 27.5136
51.541452088, 96.390, 755.0, 27.4773
51.567712654, 96.390, 750.0, 27.3861
51.593973219, 96.390, 787.0, 28.0535
51.620233784, 96.390, 792.0, 28.1425
51.646494350, 96.390, 840.0, 28.9828
51.672754915, 96.390, 797.0, 28.2312
51.699015481, 96.390, 764.0, 27.6405
51.725276046, 96.390, 816.0, 28.5657
51.751536611, 96.390, 861.0, 29.3428
51.777797177, 96.390, 824.0, 28.7054
51.804057742, 96.390, 871.0, 29.5127
51.830318307, 96.390, 908.0, 30.1330
51.856578873, 96.390, 922.0, 30.3645
51.882839438, 96.390, 916.0, 30.2655
51.909100003, 96.390, 874.0, 29.5635
51.935360569, 96.390, 899.0, 29.9833
51.961621134, 96.390, 868.0, 29.4618
51.987881699, 96.390, 885.0, 29.7489
52.014142265, 96.390, 886.0, 29.7658
52.040402830, 96.390, 895.0, 29.9166
52.066663396, 96.390, 877.0, 29.6142
52.092923961, 96.390, 808.0, 28.4253
52.119184526, 96.390, 848.0, 29.1204
52.145445092, 96.390, 843.0, 29.0345
52.171705657, 96.390, 890.0, 29.8329
52.197966222, 96.390, 879.0, 29.6479
52.224226788, 96.390, 864.0, 29.3939
52.250487353, 96.390, 893.0, 29.8831
52.276747918, 96.390, 989.0, 31.4484
52.303008484, 96.390, 913.0, 30.2159
52.329269049, 96.390, 918.0, 30.2985
52.355529614, 96.390, 942.0, 30.6920
52.381790180, 96.390, 961.0, 31.0000
52.408050745, 96.390, 975.0, 31.2250
52.434311310, 96.390, 961.0, 31.0000
52.460571876, 96.390, 1027.0, 32.0468
52.486832441, 96.390, 1053.0, 32.4500
52.513093007, 96.390, 1067.0, 32.6650
52.539353572, 96.390, 1006.0, 31.7175
52.565614137, 96.390, 1084.0, 32.9242
52.591874703, 96.390, 1013.0, 31.8277
52.618135268, 96.390, 997.0, 31.5753
52.644395833, 96.390, 930.0, 30.4959
52.670656399, 96.390, 962.0, 31.0161
52.696916964, 96.390, 943.0, 30.7083
52.723177529, 96.390, 950.0, 30.8221
52.749438095, 96.390, 915.0, 30.2490
52.775698660, 96.390, 906.0, 30.0998
52.801959225, 96.390, 911.0, 30.1828
52.828219791, 96.390, 849.0, 29.1376
52.854480356, 96.390, 868.0, 29.4618
52.880740922, 96.390, 886.0, 29.7658
52.907001487, 96.390, 806.0, 28.3901
52.933262052, 96.390, 901.0, 30.0167
52.959522618, 96.390, 875.0, 29.5804
52.985783183, 96.390, 827.0, 28.7576
53.012043748, 96.390, 842.0, 29.0172
53.038304314, 96.390, 808.0, 28.4253
53.064564879, 96.390, 790.0, 28.1069
53.090825444, 96.390, 846.0, 29.0861
53.117086010, 96.390, 814.0, 28.5307
53.143346575, 96.390, 889.0, 29.8161
53.169607140, 96.390, 835.0, 28.8964
53.195867706, 96.390, 800.0, 28.2843
53.222128271, 96.390, 755.0, 27.4773
53.248388836, 96.390, 827.0, 28.7576
53.274649402, 96.390, 788.0, 28.0713
53.300909967, 96.390, 864.0, 29.3939
53.327170533, 96.390, 815.0, 28.5482
53.353431098, 96.390, 822.0, 28.6705
53.379691663, 96.390, 827.0, 28.7576
53.405952229, 96.390, 894.0, 29.8998
53.432212794, 96.390, 841.0, 29.0000
53.458473359, 96.390, 870.0, 29.4958
53.484733925, 96.390, 834.0, 28.8791
53.510994490, 96.390, 873.0, 29.5466
53.537255055, 96.390, 895.0, 29.9166
53.563515621, 96.390, 797.0, 28.2312
53.589776186, 96.390, 832.0, 28.8444
53.616036751, 96.390, 825.0, 28.7228
53.642297317, 96.390, 861.0, 29.3428
53.668557882, 96.390, 782.0, 27.9643
53.694818448, 96.390, 762.0, 27.6043
53.721079013, 96.390, 809.0, 28.4429
53.747339578, 96.390, 757.0, 27.5136
53.773600144, 96.390, 782.0, 27.9643
53.799860709, 96.390, 792.0, 28.1425
53.826121274, 96.390, 834.0, 28.8791
53.852381840, 96.390, 902.0, 30.0333
53.878642405, 96.390, 988.0, 31.4325
53.904902970, 96.390, 992.0, 31.4960
53.931163536, 96.390, 971.0, 31.1609
53.957424101, 96.390, 1044.0, 32.3110
53.983684666, 96.390, 1024.0, 32.0000
54.009945232, 96.390, 996.0, 31.5595
54.036205797, 96.390, 961.0, 31.0000
54.062466362, 96.390, 1003.0, 31.6702
54.088726928, 96.390, 1016.0, 31.8748
54.114987493, 96.390, 889.0, 29.8161
54.141248059, 96.390, 910.0, 30.1662
54.167508624, 96.390, 828.0, 28.7750
54.193769189, 96.390, 910.0, 30.1662
54.220029755, 96.390, 883.0, 29.7153
54.246290320, 96.390, 918.0, 30.2985
54.272550885, 96.390, 908.0, 30.1330
54.298811451, 96.390, 881.0, 29.6816
54.325072016, 96.390, 864.0, 29.3939
54.351332581, 96.390, 884.0, 29.7321
54.377593147, 96.390, 905.0, 30.0832
54.403853712, 96.390, 898.0, 29.9666
54.430114277, 96.390, 920.0, 30.3315
54.456374843, 96.390, 880.0, 29.6648
54.482635408, 96.390, 860.0, 29.3258
54.508895973, 96.390, 837.0, 28.9310
54.535156539, 96.390, 853.0, 29.2062
54.561417104, 96.390, 808.0, 28.4253
54.587677670, 96.390, 806.0, 28.3901
54.613938235, 96.390, 814.0, 28.5307
54.640198800, 96.390, 756.0, 27.4955
54.666459366, 96.390, 727.0, 26.9629
54.692719931, 96.390, 707.0, 26.5895
54.718980496, 96.390, 738.0, 27.1662
54.745241062, 96.390, 714.0, 26.7208
54.771501627, 96.390, 712.0, 26.6833
54.797762192, 96.390, 759.0, 27.5500
54.824022758, 96.390, 746.0, 27.3130
54.850283323, 96.390, 771.0, 27.7669
54.876543888, 96.390, 774.0, 27.8209
54.902804454, 96.390, 753.0, 27.4408
54.929065019, 96.390, 751.0, 27.4044
54.955325585, 96.390, 722.0, 26.8701
54.981586150, 96.390, 793.0, 28.1603
55.007846715, 96.390, 747.0, 27.3313
55.034107281, 96.390, 745.0, 27.2947
55.060367846, 96.390, 736.0, 27.1293
55.086628411, 96.390, 739.0, 27.1846
55.112888977, 96.390, 780.0, 27.9285
55.139149542, 96.390, 720.0, 26.8328
55.165410107, 96.390, 717.0, 26.7769
55.191670673, 96.390, 671.0, 25.9037
55.217931238, 96.390, 765.0, 27.6586
55.244191803, 96.390, 763.0, 27.6225
55.270452369, 96.390, 770.0, 27.7489
55.296712934, 96.390, 784.0, 28.0000
55.322973499, 96.390, 834.0, 28.8791
55.349234065, 96.390, 836.0, 28.9137
55.375494630, 96.390, 911.0, 30.1828
55.401755196, 96.390, 848.0, 29.1204
55.428015761, 96.390, 882.0, 29.6985
55.454276326, 96.390, 791.0, 28.1247
55.480536892, 96.390, 852.0, 29.1890
55.506797457, 96.390, 836.0, 28.9137
55.533058022, 96.390, 870.0, 29.4958
55.559318588, 96.390, 895.0, 29.9166
55.585579153, 96.390, 894.0, 29.8998
55.611839718, 96.390, 855.0, 29.2404
55.638100284, 96.390, 801.0, 28.3019
55.664360849, 96.390, 851.0, 29.1719
55.690621414, 96.390, 862.0, 29.3598
55.716881980, 96.390, 881.0, 29.6816
55.743142545, 96.390, 852.0, 29.1890
55.769403111, 96.390, 875.0, 29.5804
55.795663676, 96.390, 881.0, 29.6816
55.821924241, 96.390, 912.0, 30.1993
55.848184807, 96.390, 846.0, 29.0861
55.874445372, 96.390, 936.0, 30.5941
55.900705937, 96.390, 961.0, 31.0000
55.926966503, 96.390, 891.0, 29.8496
55.953227068, 96.390, 882.0, 29.6985
55.979487633, 96.390, 871.0, 29.5127
56.005748199, 96.390, 933.0, 30.5450
56.032008764, 96.390, 906.0, 30.0998
56.058269329, 96.390, 926.0, 30.4302
56.084529895, 96.390, 961.0, 31.0000
56.110790460, 96.390, 968.0, 31.1127
56.137051025, 96.390, 945.0, 30.7409
56.163311591, 96.390, 854.0, 29.2233
56.189572156, 96.390, 923.0, 30.3809
56.215832722, 96.390, 907.0, 30.1164
56.242093287, 96.390, 879.0, 29.6479
56.268353852, 96.390, 855.0, 29.2404
56.294614418, 96.390, 790.0, 28.1069
56.320874983, 96.390, 811.0, 28.4781
56.347135548, 96.390, 829.0, 28.7924
56.373396114, 96.390, 823.0, 28.6880
56.399656679, 96.390, 779.0, 27.9106
56.425917244, 96.390, 840.0, 28.9828
56.452177810, 96.390, 837.0, 28.9310
56.478438375, 96.390, 801.0, 28.3019
56.504698940, 96.390, 776.0, 27.8568
56.530959506, 96.390, 878.0, 29.6311
56.557220071, 96.390, 802.0, 28.3196
56.583480637, 96.390, 790.0, 28.1069
56.609741202, 96.390, 793.0, 28.1603
56.636001767, 96.390, 788.0, 28.0713
56.662262333, 96.390, 811.0, 28.4781
56.688522898, 96.390, 761.0, 27.5862
56.714783463, 96.390, 705.0, 26.5518
56.741044029, 96.390, 718.0, 26.7955
56.767304594, 96.390, 730.0, 27.0185
56.793565159, 96.390, 708.0, 26.6083
56.819825725, 96.390, 724.0, 26.9072
56.846086290, 96.390, 696.0, 26.3818
56.872346855, 96.390, 735.0, 27.1109
56.898607421, 96.390, 744.0, 27.2764
56.924867986, 96.390, 710.0, 26.6458
56.951128551, 96.390, 775.0, 27.8388
56.977389117, 96.390, 687.0, 26.2107
57.003649682, 96.390, 715.0, 26.7395
57.029910248, 96.390, 691.0, 26.2869
57.056170813, 96.390, 687.0, 26.2107
57.082431378, 96.390, 712.0, 26.6833
57.108691944, 96.390, 732.0, 27.0555
57.134952509, 96.390, 800.0, 28.2843
57.161213074, 96.390, 800.0, 28.2843
57.187473640, 96.390, 861.0, 29.3428
57.213734205, 96.390, 905.0, 30.0832
57.239994770, 96.390, 823.0, 28.6880
57.266255336, 96.390, 830.0, 28.8097
57.292515901, 96.390, 856.0, 29.2575
57.318776466, 96.390, 776.0, 27.8568
57.345037032, 96.390, 818.0, 28.6007
57.371297597, 96.390, 757.0, 27.5136
57.397558163, 96.390, 789.0, 28.0891
57.423818728, 96.390, 776.0, 27.8568
57.450079293, 96.390, 688.0, 26.2298
57.476339859, 96.390, 755.0, 27.4773
57.502600424, 96.390, 757.0, 27.5136
57.528860989, 96.390, 780.0, 27.9285
57.555121555, 96.390, 744.0, 27.2764
57.581382120, 96.390, 741.0, 27.2213
57.607642685, 96.390, 724.0, 26.9072
57.633903251, 96.390, 738.0, 27.1662
57.660163816, 96.390, 741.0, 27.2213
57.686424381, 96.390, 781.0, 27.9464
57.712684947, 96.390, 807.0, 28.4077
57.738945512, 96.390, 787.0, 28.0535
57.765206077, 96.390, 849.0, 29.1376
57.791466643, 96.390, 826.0, 28.7402
57.817727208, 96.390, 840.0, 28.9828
57.843987774, 96.390, 840.0, 28.9828
57.870248339, 96.390, 775.0, 27.8388
57.896508904, 96.390, 785.0, 28.0179
57.922769470, 96.390, 762.0, 27.6043
57.949030035, 96.390, 822.0, 28.6705
57.975290600, 96.390, 784.0, 28.0000
58.001551166, 96.390, 848.0, 29.1204
58.027811731, 96.390, 762.0, 27.6043
58.054072296, 96.390, 820.0, 28.6356
58.080332862, 96.390, 828.0, 28.7750
58.106593427, 96.390, 815.0, 28.5482
58.132853992, 96.390, 822.0, 28.6705
58.159114558, 96.390, 784.0, 28.0000
58.185375123, 96.390, 822.0, 28.6705
58.211635689, 96.390, 776.0, 27.8568
58.237896254, 96.390, 796.0, 28.2135
58.264156819, 96.390, 706.0, 26.5707
58.290417385, 96.390, 802.0, 28.3196
58.316677950, 96.390, 759.0, 27.5500
58.342938515, 96.390, 757.0, 27.5136
58.369199081, 96.390, 762.0, 27.6043
58.395459646, 96.390, 801.0, 28.3019
58.421720211, 96.390, 784.0, 28.0000
58.447980777, 96.390, 834.0, 28.8791
58.474241342, 96.390, 807.0, 28.4077
58.500501907, 96.390, 780.0, 27.9285
58.526762473, 96.390, 838.0, 28.9482
58.553023038, 96.390, 800.0, 28.2843
58.579283603, 96.390, 807.0, 28.4077
58.605544169, 96.390, 766.0, 27.6767
58.631804734, 96.390, 797.0, 28.2312
58.658065300, 96.390, 782.0, 27.9643
58.684325865, 96.390, 799.0, 28.2666
58.710586430, 96.390, 824.0, 28.7054
58.736846996, 96.390, 834.0, 28.8791
58.763107561, 96.390, 811.0, 28.4781
58.789368126, 96.390, 820.0, 28.6356
58.815628692, 96.390, 781.0, 27.9464
58.841889257, 96.390, 854.0, 29.2233
58.868149822, 96.390, 882.0, 29.6985
58.894410388, 96.390, 871.0, 29.5127
58.920670953, 96.390, 887.0, 29.7825
58.946931518, 96.390, 961.0, 31.0000
58.973192084, 96.390, 934.0, 30.5614
58.999452649, 96.390, 958.0, 30.9516
59.025713214, 96.390, 930.0, 30.4959
59.051973780, 96.390, 883.0, 29.7153
59.078234345, 96.390, 935.0, 30.5778
59.104494911, 96.390, 980.0, 31.3050
59.130755476, 96.390, 980.0, 31.3050
59.157016041, 96.390, 955.0, 30.9031
59.183276607, 96.390, 891.0, 29.8496
59.209537172, 96.390, 1001.0, 31.6386
59.235797737, 96.390, 1054.0, 32.4654
59.262058303, 96.390, 983.0, 31.3528
59.288318868, 96.390, 1011.0, 31.7962
59.314579433, 96.390, 969.0, 31.1288
59.340839999, 96.390, 1044.0, 32.3110
59.367100564, 96.390, 1082.0, 32.8938
59.393361129, 96.390, 1056.0, 32.4962
59.419621695, 96.390, 1030.0, 32.0936
59.445882260, 96.390, 1201.0, 34.6554
59.472142826, 96.390, 1145.0, 33.8378
59.498403391, 96.390, 1167.0, 34.1614
59.524663956, 96.390, 1152.0, 33.9411
59.550924522, 96.390, 1153.0, 33.9559
59.577185087, 96.390, 1192.0, 34.5254
59.603445652, 96.390, 1231.0, 35.0856
59.629706218, 96.390, 1218.0, 34.8999
59.655966783, 96.390, 1241.0, 35.2278
59.682227348, 96.390, 1334.0, 36.5240
59.708487914, 96.390, 1253.0, 35.3977
59.734748479, 96.390, 1366.0, 36.9594
59.761009044, 96.390, 1331.0, 36.4829
59.787269610, 96.390, 1309.0, 36.1801
59.813530175, 96.390, 1368.0, 36.9865
59.839790740, 96.390, 1349.0, 36.7287
59.866051306, 96.390, 1447.0, 38.0395
59.892311871, 96.390, 1423.0, 37.7227
59.918572437, 96.390, 1389.0, 37.2693
59.944833002, 96.390, 1490.0, 38.6005
59.971093567, 96.390, 1471.0, 38.3536
59.997354133, 96.390, 1506.0, 38.8072
60.023614698, 96.390, 1526.0, 39.0640
60.049875263, 96.390, 1507.0, 38.8201
60.076135829, 96.390, 1563.0, 39.5348
60.102396394, 96.390, 1671.0, 40.8779
60.128656959, 96.390, 1563.0, 39.5348
60.154917525, 96.390, 1616.0, 40.1995
60.181178090, 96.390, 1626.0, 40.3237
60.207438655, 96.390, 1727.0, 41.5572
60.233699221, 96.390, 1689.0, 41.0974
60.259959786, 96.390, 1721.0, 41.4849
60.286220352, 96.390, 1763.0, 41.9881
60.312480917, 96.390, 1840.0, 42.8952
60.338741482, 96.390, 1746.0, 41.7852
60.365002048, 96.390, 1749.0, 41.8210
60.391262613, 96.390, 1803.0, 42.4617
60.417523178, 96.390, 1925.0, 43.8748
60.443783744, 96.390, 1837.0, 42.8602
60.470044309, 96.390, 2010.0, 44.8330
60.496304874, 96.390, 2186.0, 46.7547
60.522565440, 96.390, 2237.0, 47.2969
60.548826005, 96.390, 2205.0, 46.9574
60.575086570, 96.390, 2269.0, 47.6340
60.601347136, 96.390, 2148.0, 46.3465
60.627607701, 96.390, 2033.0, 45.0888
60.653868266, 96.390, 2065.0, 45.4423
60.680128832, 96.390, 1998.0, 44.6990
60.706389397, 96.390, 1917.0, 43.7836
60.732649963, 96.390, 1859.0, 43.1161
60.758910528, 96.390, 1754.0, 41.8808
60.785171093, 96.390, 1746.0, 41.7852
60.811431659, 96.390, 1638.0, 40.4722
60.837692224, 96.390, 1488.0, 38.5746
60.863952789, 96.390, 1538.0, 39.2173
60.890213355, 96.390, 1529.0, 39.1024
60.916473920, 96.390, 1460.0, 38.2099
60.942734485, 96.390, 1375.0, 37.0810
60.968995051, 96.390, 1487.0, 38.5616
60.995255616, 96.390, 1419.0, 37.6696
61.021516181, 96.390, 1321.0, 36.3456
61.047776747, 96.390, 1427.0, 37.7757
61.074037312, 96.390, 1382.0, 37.1753
61.100297878, 96.390, 1336.0, 36.5513
61.126558443, 96.390, 1425.0, 37.7492
61.152819008, 96.390, 1391.0, 37.2961
61.179079574, 96.390, 1347.0, 36.7015
61.205340139, 96.390, 1373.0, 37.0540
61.231600704, 96.390, 1285.0, 35.8469
61.257861270, 96.390, 1375.0, 37.0810
61.284121835, 96.390, 1336.0, 36.5513
61.310382400, 96.390, 1225.0, 35.0000
61.336642966, 96.390, 1247.0, 35.3129
61.362903531, 96.390, 1266.0, 35.5809
61.389164096, 96.390, 1209.0, 34.7707
61.415424662, 96.390, 1156.0, 34.0000
61.441685227, 96.390, 1222.0, 34.9571
61.467945792, 96.390, 1240.0, 35.2136
61.494206358, 96.390, 1176.0, 34.2929
61.520466923, 96.390, 1292.0, 35.9444
61.546727489, 96.390, 1194.0, 34.5543
61.572988054, 96.390, 1141.0, 33.7787
61.599248619, 96.390, 1212.0, 34.8138
61.625509185, 96.390, 1145.0, 33.8378
61.651769750, 96.390, 1226.0, 35.0143
61.678030315, 96.390, 1223.0, 34.9714
61.704290881, 96.390, 1254.0, 35.4119
61.730551446, 96.390, 1375.0, 37.0810
61.756812011, 96.390, 1483.0, 38.5097
61.783072577, 96.390, 1557.0, 39.4588
61.809333142, 96.390, 1606.0, 40.0749
61.835593707, 96.390, 1684.0, 41.0366
61.861854273, 96.390, 1679.0, 40.9756
61.888114838, 96.390, 1593.0, 39.9124
61.914375404, 96.390, 1600.0, 40.0000
61.940635969, 96.390, 1508.0, 38.8330
61.966896534, 96.390, 1461.0, 38.2230
61.993157100, 96.390, 1307.0, 36.1525
62.019417665, 96.390, 1343.0, 36.6470
62.045678230, 96.390, 1234.0, 35.1283
62.071938796, 96.390, 1156.0, 34.0000
62.098199361, 96.390, 1117.0, 33.4215
62.124459926, 96.390, 1100.0, 33.1662
62.150720492, 96.390, 999.0, 31.6070
62.176981057, 96.390, 940.0, 30.6594
62.203241622, 96.390, 965.0, 31.0644
62.229502188, 96.390, 892.0, 29.8664
62.255762753, 96.390, 838.0, 28.9482
62.282023318, 96.390, 927.0, 30.4467
62.308283884, 96.390, 854.0, 29.2233
62.334544449, 96.390, 839.0, 28.9655
62.360805015, 96.390, 862.0, 29.3598
62.387065580, 96.390, 850.0, 29.1548
62.413326145, 96.390, 868.0, 29.4618
62.439586711, 96.390, 797.0, 28.2312
62.465847276, 96.390, 803.0, 28.3373
62.492107841, 96.390, 848.0, 29.1204
62.518368407, 96.390, 833.0, 28.8617
62.544628972, 96.390, 846.0, 29.0861
62.570889537, 96.390, 790.0, 28.1069
62.597150103, 96.390, 824.0, 28.7054
62.623410668, 96.390, 796.0, 28.2135
62.649671233, 96.390, 811.0, 28.4781
62.675931799, 96.390, 800.0, 28.2843
62.702192364, 96.390, 780.0, 27.9285
62.728452930, 96.390, 779.0, 27.9106
62.754713495, 96.390, 830.0, 28.8097
62.780974060, 96.390, 778.0, 27.8927
62.807234626, 96.390, 893.0, 29.8831
62.833495191, 96.390, 809.0, 28.4429
62.859755756, 96.390, 838.0, 28.9482
62.886016322, 96.390, 766.0, 27.6767
62.912276887, 96.390, 738.0, 27.1662
62.938537452, 96.390, 779.0, 27.9106
62.964798018, 96.390, 754.0, 27.4591
62.991058583, 96.390, 784.0, 28.0000
63.017319148, 96.390, 777.0, 27.8747
63.043579714, 96.390, 739.0, 27.1846
63.069840279, 96.390, 692.0, 26.3059
63.096100844, 96.390, 702.0, 26.4953
63.122361410, 96.390, 713.0, 26.7021
63.148621975, 96.390, 679.0, 26.0576
63.174882541, 96.390, 706.0, 26.5707
63.201143106, 96.390, 655.0, 25.5930
63.227403671, 96.390, 700.0, 26.4575
63.253664237, 96.390, 668.0, 25.8457
63.279924802, 96.390, 669.0, 25.8650
63.306185367, 96.390, 655.0, 25.5930
63.332445933, 96.390, 670.0, 25.8844
63.358706498, 96.390, 666.0, 25.8070
63.384967063, 96.390, 600.0, 24.4949
63.411227629, 96.390, 635.0, 25.1992
63.437488194, 96.390, 652.0, 25.5343
63.463748759, 96.390, 640.0, 25.2982
63.490009325, 96.390, 632.0, 25.1396
63.516269890, 96.390, 661.0, 25.7099
63.542530455, 96.390, 639.0, 25.2784
63.568791021, 96.390, 622.0, 24.9399
63.595051586, 96.390, 642.0, 25.3377
63.621312152, 96.390, 664.0, 25.7682
63.647572717, 96.390, 594.0, 24.3721
63.673833282, 96.390, 578.0, 24.0416
63.700093848, 96.390, 599.0, 24.4745
63.726354413, 96.390, 617.0, 24.8395
63.752614978, 96.390, 672.0, 25.9230
63.778875544, 96.390, 664.0, 25.7682
63.805136109, 96.390, 606.0, 24.6171
63.831396674, 96.390, 613.0, 24.7588
63.857657240, 96.390, 650.0, 25.4951
63.883917805, 96.390, 643.0, 25.3574
63.910178370, 96.390, 568.0, 23.8328
63.936438936, 96.390, 609.0, 24.6779
63.962699501, 96.390, 621.0, 24.9199
63.988960067, 96.390, 609.0, 24.6779
64.015220632, 96.390, 594.0, 24.3721
64.041481197, 96.390, 588.0, 24.2487
64.067741763, 96.390, 632.0, 25.1396
64.094002328, 96.390, 591.0, 24.3105
64.120262893, 96.390, 625.0, 25.0000
64.146523459, 96.390, 607.0, 24.6374
64.172784024, 96.390, 660.0, 25.6905
64.199044589, 96.390, 655.0, 25.5930
64.225305155, 96.390, 627.0, 25.0400
64.251565720, 96.390, 585.0, 24.1868
64.277826285, 96.390, 623.0, 24.9600
64.304086851, 96.390, 644.0, 25.3772
64.330347416, 96.390, 593.0, 24.3516
64.356607981, 96.390, 636.0, 25.2190
64.382868547, 96.390, 605.0, 24.5967
64.409129112, 96.390, 612.0, 24.7386
64.435389678, 96.390, 646.0, 25.4165
64.461650243, 96.390, 575.0, 23.9792
64.487910808, 96.390, 606.0, 24.6171
64.514171374, 96.390, 578.0, 24.0416
64.540431939, 96.390, 584.0, 24.1661
64.566692504, 96.390, 579.0, 24.0624
64.592953070, 96.390, 543.0, 23.3024
64.619213635, 96.390, 555.0, 23.5584
64.645474200, 96.390, 568.0, 23.8328
64.671734766, 96.390, 584.0, 24.1661
64.697995331, 96.390, 597.0, 24.4336
64.724255896, 96.390, 599.0, 24.4745
64.750516462, 96.390, 554.0, 23.5372
64.776777027, 96.390, 593.0, 24.3516
64.803037593, 96.390, 567.0, 23.8118
64.829298158, 96.390, 578.0, 24.0416
64.855558723, 96.390, 592.0, 24.3311
64.881819289, 96.390, 621.0, 24.9199
64.908079854, 96.390, 572.0, 23.9165
64.934340419, 96.390, 622.0, 24.9399
64.960600985, 96.390, 553.0, 23.5160
64.986861550, 96.390, 632.0, 25.1396
