[Measurement conditions]
Sample identification,35_AlCorner27Oct21_Act08Jan22_B2_0833M_NaOH_LS0152_solvent_exchange
Comment - 1,"Configuration=Stage for Flat Samples/Holders, Owner=User-1, Creation date=7/1/2020 9:53:24 AM"
Comment - 2,"Goniometer=Theta/Theta; Minimum step size 2Theta:0.0001; Minimum step size Omega:0.0001"
Comment - 3,"Sample stage=Stage for flat samples/holders"
Comment - 4,"Diffractometer system=EMPYREAN"
Comment - 5,"Measurement program=C:\Users\tmr79\OneDrive - The Pennsylvania State University\Documents\NEUP\XRD\Cement\Zerobackground scan.xrdmp, Identifier={98A3B11C-88F9-4AA6-982C-73314A311EF5}"
Anode material,Cu
K-Alpha1 wavelength,1.5405980
K-Alpha2 wavelength,1.5444260
Ratio K-Alpha2/K-Alpha1,0.500
Divergence slit,Fixed,0.25
Monochromator used,NO
Generator voltage, 45
Tube current, 40
File date and time,25/Apr/2023 15:07
Unit cell,
h k l, 0 0 0
Scan axis,Gonio
Scan range,4.994599997,64.999991833
Scan step size,0.0262606
No. of points, 2285
Scan type,CONTINUOUS
Time per step,96.390
[Scan points]
Angle, TimePerStep, Intensity, ESD
5.007730280, 96.390, 3030.0, 55.0454
5.033990845, 96.390, 2926.0, 54.0925
5.060251411, 96.390, 2971.0, 54.5069
5.086511976, 96.390, 2990.0, 54.6809
5.112772541, 96.390, 2846.0, 53.3479
5.139033107, 96.390, 2880.0, 53.6656
5.165293672, 96.390, 2807.0, 52.9811
5.191554237, 96.390, 2952.0, 54.3323
5.217814803, 96.390, 2942.0, 54.2402
5.244075368, 96.390, 2814.0, 53.0471
5.270335934, 96.390, 2821.0, 53.1131
5.296596499, 96.390, 2882.0, 53.6843
5.322857064, 96.390, 2842.0, 53.3104
5.349117630, 96.390, 2734.0, 52.2877
5.375378195, 96.390, 2835.0, 53.2447
5.401638760, 96.390, 2780.0, 52.7257
5.427899326, 96.390, 2844.0, 53.3292
5.454159891, 96.390, 2713.0, 52.0865
5.480420456, 96.390, 2806.0, 52.9717
5.506681022, 96.390, 2746.0, 52.4023
5.532941587, 96.390, 2755.0, 52.4881
5.559202152, 96.390, 2769.0, 52.6213
5.585462718, 96.390, 2771.0, 52.6403
5.611723283, 96.390, 2727.0, 52.2207
5.637983849, 96.390, 2731.0, 52.2590
5.664244414, 96.390, 2655.0, 51.5267
5.690504979, 96.390, 2712.0, 52.0769
5.716765545, 96.390, 2863.0, 53.5070
5.743026110, 96.390, 2759.0, 52.5262
5.769286675, 96.390, 2720.0, 52.1536
5.795547241, 96.390, 2750.0, 52.4404
5.821807806, 96.390, 2736.0, 52.3068
5.848068371, 96.390, 2764.0, 52.5738
5.874328937, 96.390, 2717.0, 52.1249
5.900589502, 96.390, 2760.0, 52.5357
5.926850067, 96.390, 2584.0, 50.8331
5.953110633, 96.390, 2618.0, 51.1664
5.979371198, 96.390, 2654.0, 51.5170
6.005631763, 96.390, 2782.0, 52.7447
6.031892329, 96.390, 2669.0, 51.6624
6.058152894, 96.390, 2639.0, 51.3712
6.084413460, 96.390, 2638.0, 51.3615
6.110674025, 96.390, 2729.0, 52.2398
6.136934590, 96.390, 2727.0, 52.2207
6.163195156, 96.390, 2662.0, 51.5946
6.189455721, 96.390, 2699.0, 51.9519
6.215716286, 96.390, 2669.0, 51.6624
6.241976852, 96.390, 2593.0, 50.9215
6.268237417, 96.390, 2710.0, 52.0577
6.294497982, 96.390, 2650.0, 51.4782
6.320758548, 96.390, 2607.0, 51.0588
6.347019113, 96.390, 2690.0, 51.8652
6.373279678, 96.390, 2587.0, 50.8626
6.399540244, 96.390, 2634.0, 51.3225
6.425800809, 96.390, 2665.0, 51.6236
6.452061375, 96.390, 2680.0, 51.7687
6.478321940, 96.390, 2582.0, 50.8134
6.504582505, 96.390, 2613.0, 51.1175
6.530843071, 96.390, 2696.0, 51.9230
6.557103636, 96.390, 2651.0, 51.4879
6.583364201, 96.390, 2678.0, 51.7494
6.609624767, 96.390, 2638.0, 51.3615
6.635885332, 96.390, 2731.0, 52.2590
6.662145897, 96.390, 2742.0, 52.3641
6.688406463, 96.390, 2694.0, 51.9038
6.714667028, 96.390, 2656.0, 51.5364
6.740927593, 96.390, 2769.0, 52.6213
6.767188159, 96.390, 2727.0, 52.2207
6.793448724, 96.390, 2808.0, 52.9906
6.819709289, 96.390, 2873.0, 53.6004
6.845969855, 96.390, 3010.0, 54.8635
6.872230420, 96.390, 2946.0, 54.2771
6.898490986, 96.390, 3122.0, 55.8749
6.924751551, 96.390, 3256.0, 57.0614
6.951012116, 96.390, 3403.0, 58.3352
6.977272682, 96.390, 3516.0, 59.2959
7.003533247, 96.390, 3892.0, 62.3859
7.029793812, 96.390, 4085.0, 63.9140
7.056054378, 96.390, 4404.0, 66.3626
7.082314943, 96.390, 4737.0, 68.8259
7.108575508, 96.390, 5450.0, 73.8241
7.134836074, 96.390, 6152.0, 78.4347
7.161096639, 96.390, 7173.0, 84.6936
7.187357204, 96.390, 8130.0, 90.1665
7.213617770, 96.390, 7345.0, 85.7030
7.239878335, 96.390, 5376.0, 73.3212
7.266138900, 96.390, 3858.0, 62.1128
7.292399466, 96.390, 3055.0, 55.2721
7.318660031, 96.390, 2762.0, 52.5547
7.344920597, 96.390, 2648.0, 51.4587
7.371181162, 96.390, 2555.0, 50.5470
7.397441727, 96.390, 2534.0, 50.3389
7.423702293, 96.390, 2424.0, 49.2341
7.449962858, 96.390, 2361.0, 48.5901
7.476223423, 96.390, 2334.0, 48.3115
7.502483989, 96.390, 2362.0, 48.6004
7.528744554, 96.390, 2316.0, 48.1248
7.555005119, 96.390, 2367.0, 48.6518
7.581265685, 96.390, 2302.0, 47.9792
7.607526250, 96.390, 2370.0, 48.6826
7.633786815, 96.390, 2421.0, 49.2037
7.660047381, 96.390, 2253.0, 47.4658
7.686307946, 96.390, 2331.0, 48.2804
7.712568512, 96.390, 2322.0, 48.1871
7.738829077, 96.390, 2221.0, 47.1275
7.765089642, 96.390, 2161.0, 46.4866
7.791350208, 96.390, 2232.0, 47.2440
7.817610773, 96.390, 2269.0, 47.6340
7.843871338, 96.390, 2194.0, 46.8402
7.870131904, 96.390, 2253.0, 47.4658
7.896392469, 96.390, 2236.0, 47.2864
7.922653034, 96.390, 2198.0, 46.8828
7.948913600, 96.390, 2262.0, 47.5605
7.975174165, 96.390, 2229.0, 47.2123
8.001434730, 96.390, 2318.0, 48.1456
8.027695296, 96.390, 2226.0, 47.1805
8.053955861, 96.390, 2143.0, 46.2925
8.080216426, 96.390, 2243.0, 47.3603
8.106476992, 96.390, 2231.0, 47.2335
8.132737557, 96.390, 2216.0, 47.0744
8.158998123, 96.390, 2251.0, 47.4447
8.185258688, 96.390, 2209.0, 47.0000
8.211519253, 96.390, 2227.0, 47.1911
8.237779819, 96.390, 2110.0, 45.9347
8.264040384, 96.390, 2136.0, 46.2169
8.290300949, 96.390, 2260.0, 47.5395
8.316561515, 96.390, 2207.0, 46.9787
8.342822080, 96.390, 2184.0, 46.7333
8.369082645, 96.390, 2129.0, 46.1411
8.395343211, 96.390, 2102.0, 45.8476
8.421603776, 96.390, 2116.0, 46.0000
8.447864341, 96.390, 2194.0, 46.8402
8.474124907, 96.390, 2098.0, 45.8039
8.500385472, 96.390, 2199.0, 46.8935
8.526646038, 96.390, 2141.0, 46.2709
8.552906603, 96.390, 2071.0, 45.5082
8.579167168, 96.390, 2152.0, 46.3897
8.605427734, 96.390, 2098.0, 45.8039
8.631688299, 96.390, 2191.0, 46.8081
8.657948864, 96.390, 2075.0, 45.5522
8.684209430, 96.390, 2240.0, 47.3286
8.710469995, 96.390, 2087.0, 45.6837
8.736730560, 96.390, 2113.0, 45.9674
8.762991126, 96.390, 2081.0, 45.6180
8.789251691, 96.390, 2166.0, 46.5403
8.815512256, 96.390, 2092.0, 45.7384
8.841772822, 96.390, 2006.0, 44.7884
8.868033387, 96.390, 2135.0, 46.2061
8.894293952, 96.390, 2085.0, 45.6618
8.920554518, 96.390, 2074.0, 45.5412
8.946815083, 96.390, 2027.0, 45.0222
8.973075649, 96.390, 2034.0, 45.0999
8.999336214, 96.390, 2087.0, 45.6837
9.025596779, 96.390, 2035.0, 45.1110
9.051857345, 96.390, 2049.0, 45.2659
9.078117910, 96.390, 2021.0, 44.9555
9.104378475, 96.390, 2018.0, 44.9222
9.130639041, 96.390, 2065.0, 45.4423
9.156899606, 96.390, 1940.0, 44.0454
9.183160171, 96.390, 2054.0, 45.3211
9.209420737, 96.390, 2085.0, 45.6618
9.235681302, 96.390, 2014.0, 44.8776
9.261941867, 96.390, 2100.0, 45.8258
9.288202433, 96.390, 2034.0, 45.0999
9.314462998, 96.390, 2074.0, 45.5412
9.340723564, 96.390, 2019.0, 44.9333
9.366984129, 96.390, 2045.0, 45.2217
9.393244694, 96.390, 2055.0, 45.3321
9.419505260, 96.390, 1973.0, 44.4185
9.445765825, 96.390, 2113.0, 45.9674
9.472026390, 96.390, 1981.0, 44.5084
9.498286956, 96.390, 2080.0, 45.6070
9.524547521, 96.390, 2116.0, 46.0000
9.550808086, 96.390, 2085.0, 45.6618
9.577068652, 96.390, 1991.0, 44.6206
9.603329217, 96.390, 1942.0, 44.0681
9.629589782, 96.390, 2076.0, 45.5631
9.655850348, 96.390, 2085.0, 45.6618
9.682110913, 96.390, 2081.0, 45.6180
9.708371478, 96.390, 2102.0, 45.8476
9.734632044, 96.390, 2113.0, 45.9674
9.760892609, 96.390, 2119.0, 46.0326
9.787153175, 96.390, 2162.0, 46.4973
9.813413740, 96.390, 2195.0, 46.8508
9.839674305, 96.390, 2127.0, 46.1194
9.865934871, 96.390, 2217.0, 47.0850
9.892195436, 96.390, 2293.0, 47.8853
9.918456001, 96.390, 2325.0, 48.2183
9.944716567, 96.390, 2384.0, 48.8262
9.970977132, 96.390, 2527.0, 50.2693
9.997237697, 96.390, 2688.0, 51.8459
10.023498263, 96.390, 2882.0, 53.6843
10.049758828, 96.390, 3036.0, 55.0999
10.076019393, 96.390, 3381.0, 58.1464
10.102279959, 96.390, 3873.0, 62.2334
10.128540524, 96.390, 4493.0, 67.0298
10.154801090, 96.390, 5136.0, 71.6659
10.181061655, 96.390, 5408.0, 73.5391
10.207322220, 96.390, 4815.0, 69.3902
10.233582786, 96.390, 3573.0, 59.7746
10.259843351, 96.390, 2699.0, 51.9519
10.286103916, 96.390, 2407.0, 49.0612
10.312364482, 96.390, 2231.0, 47.2335
10.338625047, 96.390, 2109.0, 45.9239
10.364885612, 96.390, 2032.0, 45.0777
10.391146178, 96.390, 1972.0, 44.4072
10.417406743, 96.390, 1954.0, 44.2041
10.443667308, 96.390, 2001.0, 44.7325
10.469927874, 96.390, 1966.0, 44.3396
10.496188439, 96.390, 2039.0, 45.1553
10.522449004, 96.390, 2016.0, 44.8999
10.548709570, 96.390, 1913.0, 43.7379
10.574970135, 96.390, 2020.0, 44.9444
10.601230701, 96.390, 2069.0, 45.4863
10.627491266, 96.390, 2050.0, 45.2769
10.653751831, 96.390, 1981.0, 44.5084
10.680012397, 96.390, 1950.0, 44.1588
10.706272962, 96.390, 2043.0, 45.1996
10.732533527, 96.390, 2047.0, 45.2438
10.758794093, 96.390, 2085.0, 45.6618
10.785054658, 96.390, 1958.0, 44.2493
10.811315223, 96.390, 2001.0, 44.7325
10.837575789, 96.390, 2016.0, 44.8999
10.863836354, 96.390, 2058.0, 45.3652
10.890096919, 96.390, 2029.0, 45.0444
10.916357485, 96.390, 2127.0, 46.1194
10.942618050, 96.390, 2176.0, 46.6476
10.968878616, 96.390, 2227.0, 47.1911
10.995139181, 96.390, 2148.0, 46.3465
11.021399746, 96.390, 2127.0, 46.1194
11.047660312, 96.390, 2298.0, 47.9375
11.073920877, 96.390, 2229.0, 47.2123
11.100181442, 96.390, 2282.0, 47.7703
11.126442008, 96.390, 2350.0, 48.4768
11.152702573, 96.390, 2376.0, 48.7442
11.178963138, 96.390, 2394.0, 48.9285
11.205223704, 96.390, 2575.0, 50.7445
11.231484269, 96.390, 2615.0, 51.1371
11.257744834, 96.390, 2560.0, 50.5964
11.284005400, 96.390, 2656.0, 51.5364
11.310265965, 96.390, 2910.0, 53.9444
11.336526530, 96.390, 3080.0, 55.4977
11.362787096, 96.390, 3171.0, 56.3116
11.389047661, 96.390, 3518.0, 59.3127
11.415308227, 96.390, 3807.0, 61.7009
11.441568792, 96.390, 4069.0, 63.7887
11.467829357, 96.390, 4497.0, 67.0597
11.494089923, 96.390, 4786.0, 69.1809
11.520350488, 96.390, 5254.0, 72.4845
11.546611053, 96.390, 5733.0, 75.7166
11.572871619, 96.390, 6472.0, 80.4487
11.599132184, 96.390, 6928.0, 83.2346
11.625392749, 96.390, 7313.0, 85.5161
11.651653315, 96.390, 7743.0, 87.9943
11.677913880, 96.390, 7746.0, 88.0114
11.704174445, 96.390, 7378.0, 85.8953
11.730435011, 96.390, 6866.0, 82.8613
11.756695576, 96.390, 6102.0, 78.1153
11.782956141, 96.390, 5410.0, 73.5527
11.809216707, 96.390, 4741.0, 68.8549
11.835477272, 96.390, 4267.0, 65.3223
11.861737838, 96.390, 3715.0, 60.9508
11.887998403, 96.390, 3326.0, 57.6715
11.914258968, 96.390, 3180.0, 56.3915
11.940519534, 96.390, 2837.0, 53.2635
11.966780099, 96.390, 2779.0, 52.7162
11.993040664, 96.390, 2597.0, 50.9608
12.019301230, 96.390, 2396.0, 48.9490
12.045561795, 96.390, 2414.0, 49.1325
12.071822360, 96.390, 2423.0, 49.2240
12.098082926, 96.390, 2233.0, 47.2546
12.124343491, 96.390, 2254.0, 47.4763
12.150604056, 96.390, 2183.0, 46.7226
12.176864622, 96.390, 2299.0, 47.9479
12.203125187, 96.390, 2295.0, 47.9062
12.229385753, 96.390, 2295.0, 47.9062
12.255646318, 96.390, 2303.0, 47.9896
12.281906883, 96.390, 2348.0, 48.4562
12.308167449, 96.390, 2563.0, 50.6261
12.334428014, 96.390, 2557.0, 50.5668
12.360688579, 96.390, 2818.0, 53.0848
12.386949145, 96.390, 2993.0, 54.7083
12.413209710, 96.390, 3239.0, 56.9122
12.439470275, 96.390, 3732.0, 61.0901
12.465730841, 96.390, 4054.0, 63.6710
12.491991406, 96.390, 3892.0, 62.3859
12.518251971, 96.390, 3140.0, 56.0357
12.544512537, 96.390, 2656.0, 51.5364
12.570773102, 96.390, 2186.0, 46.7547
12.597033667, 96.390, 1983.0, 44.5309
12.623294233, 96.390, 1879.0, 43.3474
12.649554798, 96.390, 1915.0, 43.7607
12.675815364, 96.390, 1879.0, 43.3474
12.702075929, 96.390, 1783.0, 42.2256
12.728336494, 96.390, 1851.0, 43.0232
12.754597060, 96.390, 1786.0, 42.2611
12.780857625, 96.390, 1841.0, 42.9069
12.807118190, 96.390, 1707.0, 41.3159
12.833378756, 96.390, 1692.0, 41.1339
12.859639321, 96.390, 1737.0, 41.6773
12.885899886, 96.390, 1763.0, 41.9881
12.912160452, 96.390, 1647.0, 40.5832
12.938421017, 96.390, 1753.0, 41.8688
12.964681582, 96.390, 1651.0, 40.6325
12.990942148, 96.390, 1635.0, 40.4351
13.017202713, 96.390, 1687.0, 41.0731
13.043463279, 96.390, 1690.0, 41.1096
13.069723844, 96.390, 1667.0, 40.8289
13.095984409, 96.390, 1705.0, 41.2916
13.122244975, 96.390, 1593.0, 39.9124
13.148505540, 96.390, 1562.0, 39.5221
13.174766105, 96.390, 1688.0, 41.0853
13.201026671, 96.390, 1686.0, 41.0609
13.227287236, 96.390, 1685.0, 41.0488
13.253547801, 96.390, 1661.0, 40.7554
13.279808367, 96.390, 1666.0, 40.8167
13.306068932, 96.390, 1727.0, 41.5572
13.332329497, 96.390, 1680.0, 40.9878
13.358590063, 96.390, 1687.0, 41.0731
13.384850628, 96.390, 1840.0, 42.8952
13.411111193, 96.390, 1901.0, 43.6005
13.437371759, 96.390, 1836.0, 42.8486
13.463632324, 96.390, 2094.0, 45.7602
13.489892890, 96.390, 2252.0, 47.4552
13.516153455, 96.390, 2212.0, 47.0319
13.542414020, 96.390, 1957.0, 44.2380
13.568674586, 96.390, 1838.0, 42.8719
13.594935151, 96.390, 1738.0, 41.6893
13.621195716, 96.390, 1795.0, 42.3674
13.647456282, 96.390, 1919.0, 43.8064
13.673716847, 96.390, 1910.0, 43.7035
13.699977412, 96.390, 1912.0, 43.7264
13.726237978, 96.390, 2056.0, 45.3431
13.752498543, 96.390, 2079.0, 45.5961
13.778759108, 96.390, 2216.0, 47.0744
13.805019674, 96.390, 2387.0, 48.8569
13.831280239, 96.390, 2553.0, 50.5272
13.857540805, 96.390, 2825.0, 53.1507
13.883801370, 96.390, 3054.0, 55.2630
13.910061935, 96.390, 3583.0, 59.8582
13.936322501, 96.390, 3699.0, 60.8194
13.962583066, 96.390, 3668.0, 60.5640
13.988843631, 96.390, 3381.0, 58.1464
14.015104197, 96.390, 2752.0, 52.4595
14.041364762, 96.390, 2398.0, 48.9694
14.067625327, 96.390, 2174.0, 46.6262
14.093885893, 96.390, 2071.0, 45.5082
14.120146458, 96.390, 1991.0, 44.6206
14.146407023, 96.390, 1950.0, 44.1588
14.172667589, 96.390, 1940.0, 44.0454
14.198928154, 96.390, 2086.0, 45.6727
14.225188719, 96.390, 2163.0, 46.5081
14.251449285, 96.390, 2231.0, 47.2335
14.277709850, 96.390, 2305.0, 48.0104
14.303970416, 96.390, 2228.0, 47.2017
14.330230981, 96.390, 1815.0, 42.6028
14.356491546, 96.390, 1609.0, 40.1123
14.382752112, 96.390, 1590.0, 39.8748
14.409012677, 96.390, 1520.0, 38.9872
14.435273242, 96.390, 1547.0, 39.3319
14.461533808, 96.390, 1559.0, 39.4842
14.487794373, 96.390, 1493.0, 38.6394
14.514054938, 96.390, 1517.0, 38.9487
14.540315504, 96.390, 1459.0, 38.1969
14.566576069, 96.390, 1429.0, 37.8021
14.592836634, 96.390, 1414.0, 37.6032
14.619097200, 96.390, 1450.0, 38.0789
14.645357765, 96.390, 1375.0, 37.0810
14.671618331, 96.390, 1376.0, 37.0945
14.697878896, 96.390, 1466.0, 38.2884
14.724139461, 96.390, 1436.0, 37.8946
14.750400027, 96.390, 1380.0, 37.1484
14.776660592, 96.390, 1357.0, 36.8375
14.802921157, 96.390, 1370.0, 37.0135
14.829181723, 96.390, 1384.0, 37.2022
14.855442288, 96.390, 1305.0, 36.1248
14.881702853, 96.390, 1386.0, 37.2290
14.907963419, 96.390, 1442.0, 37.9737
14.934223984, 96.390, 1349.0, 36.7287
14.960484549, 96.390, 1405.0, 37.4833
14.986745115, 96.390, 1410.0, 37.5500
15.013005680, 96.390, 1358.0, 36.8511
15.039266245, 96.390, 1430.0, 37.8153
15.065526811, 96.390, 1470.0, 38.3406
15.091787376, 96.390, 1502.0, 38.7556
15.118047942, 96.390, 1480.0, 38.4708
15.144308507, 96.390, 1608.0, 40.0999
15.170569072, 96.390, 1709.0, 41.3401
15.196829638, 96.390, 1829.0, 42.7668
15.223090203, 96.390, 1970.0, 44.3847
15.249350768, 96.390, 2267.0, 47.6130
15.275611334, 96.390, 2523.0, 50.2295
15.301871899, 96.390, 2243.0, 47.3603
15.328132464, 96.390, 1814.0, 42.5911
15.354393030, 96.390, 1587.0, 39.8372
15.380653595, 96.390, 1411.0, 37.5633
15.406914160, 96.390, 1398.0, 37.3898
15.433174726, 96.390, 1341.0, 36.6197
15.459435291, 96.390, 1402.0, 37.4433
15.485695857, 96.390, 1397.0, 37.3765
15.511956422, 96.390, 1331.0, 36.4829
15.538216987, 96.390, 1379.0, 37.1349
15.564477553, 96.390, 1313.0, 36.2353
15.590738118, 96.390, 1340.0, 36.6060
15.616998683, 96.390, 1334.0, 36.5240
15.643259249, 96.390, 1406.0, 37.4967
15.669519814, 96.390, 1287.0, 35.8748
15.695780379, 96.390, 1310.0, 36.1939
15.722040945, 96.390, 1306.0, 36.1386
15.748301510, 96.390, 1271.0, 35.6511
15.774562075, 96.390, 1303.0, 36.0971
15.800822641, 96.390, 1325.0, 36.4005
15.827083206, 96.390, 1394.0, 37.3363
15.853343771, 96.390, 1407.0, 37.5100
15.879604337, 96.390, 1433.0, 37.8550
15.905864902, 96.390, 1457.0, 38.1707
15.932125468, 96.390, 1474.0, 38.3927
15.958386033, 96.390, 1520.0, 38.9872
15.984646598, 96.390, 1679.0, 40.9756
16.010907164, 96.390, 1797.0, 42.3910
16.037167729, 96.390, 1904.0, 43.6348
16.063428294, 96.390, 2142.0, 46.2817
16.089688860, 96.390, 2505.0, 50.0500
16.115949425, 96.390, 2741.0, 52.3546
16.142209990, 96.390, 2650.0, 51.4782
16.168470556, 96.390, 2339.0, 48.3632
16.194731121, 96.390, 1901.0, 43.6005
16.220991686, 96.390, 1588.0, 39.8497
16.247252252, 96.390, 1469.0, 38.3275
16.273512817, 96.390, 1372.0, 37.0405
16.299773382, 96.390, 1349.0, 36.7287
16.326033948, 96.390, 1330.0, 36.4692
16.352294513, 96.390, 1362.0, 36.9053
16.378555079, 96.390, 1340.0, 36.6060
16.404815644, 96.390, 1313.0, 36.2353
16.431076209, 96.390, 1265.0, 35.5668
16.457336775, 96.390, 1362.0, 36.9053
16.483597340, 96.390, 1266.0, 35.5809
16.509857905, 96.390, 1266.0, 35.5809
16.536118471, 96.390, 1248.0, 35.3270
16.562379036, 96.390, 1347.0, 36.7015
16.588639601, 96.390, 1248.0, 35.3270
16.614900167, 96.390, 1270.0, 35.6371
16.641160732, 96.390, 1245.0, 35.2846
16.667421297, 96.390, 1277.0, 35.7351
16.693681863, 96.390, 1228.0, 35.0428
16.719942428, 96.390, 1207.0, 34.7419
16.746202994, 96.390, 1236.0, 35.1568
16.772463559, 96.390, 1263.0, 35.5387
16.798724124, 96.390, 1236.0, 35.1568
16.824984690, 96.390, 1236.0, 35.1568
16.851245255, 96.390, 1276.0, 35.7211
16.877505820, 96.390, 1301.0, 36.0694
16.903766386, 96.390, 1183.0, 34.3948
16.930026951, 96.390, 1224.0, 34.9857
16.956287516, 96.390, 1232.0, 35.0999
16.982548082, 96.390, 1187.0, 34.4529
17.008808647, 96.390, 1189.0, 34.4819
17.035069212, 96.390, 1158.0, 34.0294
17.061329778, 96.390, 1269.0, 35.6230
17.087590343, 96.390, 1219.0, 34.9142
17.113850908, 96.390, 1200.0, 34.6410
17.140111474, 96.390, 1216.0, 34.8712
17.166372039, 96.390, 1205.0, 34.7131
17.192632605, 96.390, 1267.0, 35.5949
17.218893170, 96.390, 1161.0, 34.0735
17.245153735, 96.390, 1177.0, 34.3074
17.271414301, 96.390, 1196.0, 34.5832
17.297674866, 96.390, 1155.0, 33.9853
17.323935431, 96.390, 1155.0, 33.9853
17.350195997, 96.390, 1157.0, 34.0147
17.376456562, 96.390, 1196.0, 34.5832
17.402717127, 96.390, 1146.0, 33.8526
17.428977693, 96.390, 1213.0, 34.8281
17.455238258, 96.390, 1205.0, 34.7131
17.481498823, 96.390, 1257.0, 35.4542
17.507759389, 96.390, 1196.0, 34.5832
17.534019954, 96.390, 1191.0, 34.5109
17.560280520, 96.390, 1158.0, 34.0294
17.586541085, 96.390, 1283.0, 35.8190
17.612801650, 96.390, 1313.0, 36.2353
17.639062216, 96.390, 1282.0, 35.8050
17.665322781, 96.390, 1284.0, 35.8329
17.691583346, 96.390, 1304.0, 36.1109
17.717843912, 96.390, 1293.0, 35.9583
17.744104477, 96.390, 1324.0, 36.3868
17.770365042, 96.390, 1270.0, 35.6371
17.796625608, 96.390, 1260.0, 35.4965
17.822886173, 96.390, 1360.0, 36.8782
17.849146738, 96.390, 1349.0, 36.7287
17.875407304, 96.390, 1364.0, 36.9324
17.901667869, 96.390, 1307.0, 36.1525
17.927928434, 96.390, 1310.0, 36.1939
17.954189000, 96.390, 1433.0, 37.8550
17.980449565, 96.390, 1455.0, 38.1445
18.006710131, 96.390, 1518.0, 38.9615
18.032970696, 96.390, 1622.0, 40.2741
18.059231261, 96.390, 1703.0, 41.2674
18.085491827, 96.390, 1818.0, 42.6380
18.111752392, 96.390, 1986.0, 44.5646
18.138012957, 96.390, 2234.0, 47.2652
18.164273523, 96.390, 2582.0, 50.8134
18.190534088, 96.390, 2965.0, 54.4518
18.216794653, 96.390, 3504.0, 59.1946
18.243055219, 96.390, 4492.0, 67.0224
18.269315784, 96.390, 5390.0, 73.4166
18.295576349, 96.390, 6272.0, 79.1960
18.321836915, 96.390, 6071.0, 77.9166
18.348097480, 96.390, 5871.0, 76.6225
18.374358046, 96.390, 5884.0, 76.7072
18.400618611, 96.390, 6128.0, 78.2815
18.426879176, 96.390, 6531.0, 80.8146
18.453139742, 96.390, 6679.0, 81.7251
18.479400307, 96.390, 6599.0, 81.2342
18.505660872, 96.390, 6264.0, 79.1454
18.531921438, 96.390, 5849.0, 76.4788
18.558182003, 96.390, 5326.0, 72.9794
18.584442568, 96.390, 4961.0, 70.4344
18.610703134, 96.390, 4782.0, 69.1520
18.636963699, 96.390, 4698.0, 68.5420
18.663224264, 96.390, 4700.0, 68.5565
18.689484830, 96.390, 4665.0, 68.3008
18.715745395, 96.390, 4752.0, 68.9348
18.742005960, 96.390, 5011.0, 70.7884
18.768266526, 96.390, 4981.0, 70.5762
18.794527091, 96.390, 4529.0, 67.2978
18.820787657, 96.390, 3901.0, 62.4580
18.847048222, 96.390, 3284.0, 57.3062
18.873308787, 96.390, 2685.0, 51.8170
18.899569353, 96.390, 2287.0, 47.8226
18.925829918, 96.390, 2122.0, 46.0652
18.952090483, 96.390, 1862.0, 43.1509
18.978351049, 96.390, 1687.0, 41.0731
19.004611614, 96.390, 1614.0, 40.1746
19.030872179, 96.390, 1508.0, 38.8330
19.057132745, 96.390, 1487.0, 38.5616
19.083393310, 96.390, 1462.0, 38.2361
19.109653875, 96.390, 1397.0, 37.3765
19.135914441, 96.390, 1398.0, 37.3898
19.162175006, 96.390, 1406.0, 37.4967
19.188435572, 96.390, 1366.0, 36.9594
19.214696137, 96.390, 1393.0, 37.3229
19.240956702, 96.390, 1395.0, 37.3497
19.267217268, 96.390, 1349.0, 36.7287
19.293477833, 96.390, 1408.0, 37.5233
19.319738398, 96.390, 1407.0, 37.5100
19.345998964, 96.390, 1543.0, 39.2810
19.372259529, 96.390, 1609.0, 40.1123
19.398520094, 96.390, 1813.0, 42.5793
19.424780660, 96.390, 1926.0, 43.8862
19.451041225, 96.390, 1834.0, 42.8252
19.477301790, 96.390, 1613.0, 40.1622
19.503562356, 96.390, 1547.0, 39.3319
19.529822921, 96.390, 1433.0, 37.8550
19.556083486, 96.390, 1412.0, 37.5766
19.582344052, 96.390, 1432.0, 37.8418
19.608604617, 96.390, 1438.0, 37.9210
19.634865183, 96.390, 1525.0, 39.0512
19.661125748, 96.390, 1588.0, 39.8497
19.687386313, 96.390, 1594.0, 39.9249
19.713646879, 96.390, 1672.0, 40.8901
19.739907444, 96.390, 1637.0, 40.4599
19.766168009, 96.390, 1632.0, 40.3980
19.792428575, 96.390, 1592.0, 39.8999
19.818689140, 96.390, 1696.0, 41.1825
19.844949705, 96.390, 1920.0, 43.8178
19.871210271, 96.390, 2023.0, 44.9778
19.897470836, 96.390, 2261.0, 47.5500
19.923731401, 96.390, 2686.0, 51.8266
19.949991967, 96.390, 3238.0, 56.9034
19.976252532, 96.390, 3717.0, 60.9672
20.002513098, 96.390, 3202.0, 56.5862
20.028773663, 96.390, 2732.0, 52.2685
20.055034228, 96.390, 2451.0, 49.5076
20.081294794, 96.390, 2209.0, 47.0000
20.107555359, 96.390, 2217.0, 47.0850
20.133815924, 96.390, 2612.0, 51.1077
20.160076490, 96.390, 3201.0, 56.5774
20.186337055, 96.390, 3860.0, 62.1289
20.212597620, 96.390, 4814.0, 69.3830
20.238858186, 96.390, 5876.0, 76.6551
20.265118751, 96.390, 6881.0, 82.9518
20.291379316, 96.390, 7587.0, 87.1034
20.317639882, 96.390, 7006.0, 83.7019
20.343900447, 96.390, 6240.0, 78.9937
20.370161012, 96.390, 5617.0, 74.9466
20.396421578, 96.390, 5386.0, 73.3894
20.422682143, 96.390, 5069.0, 71.1969
20.448942709, 96.390, 4994.0, 70.6682
20.475203274, 96.390, 4733.0, 68.7968
20.501463839, 96.390, 4319.0, 65.7191
20.527724405, 96.390, 3998.0, 63.2297
20.553984970, 96.390, 3676.0, 60.6300
20.580245535, 96.390, 3760.0, 61.3188
20.606506101, 96.390, 4087.0, 63.9296
20.632766666, 96.390, 4371.0, 66.1135
20.659027231, 96.390, 5453.0, 73.8444
20.685287797, 96.390, 6948.0, 83.3547
20.711548362, 96.390, 7522.0, 86.7295
20.737808927, 96.390, 6410.0, 80.0625
20.764069493, 96.390, 4758.0, 68.9783
20.790330058, 96.390, 3499.0, 59.1523
20.816590623, 96.390, 2397.0, 48.9592
20.842851189, 96.390, 2016.0, 44.8999
20.869111754, 96.390, 1715.0, 41.4126
20.895372320, 96.390, 1728.0, 41.5692
20.921632885, 96.390, 1526.0, 39.0640
20.947893450, 96.390, 1540.0, 39.2428
20.974154016, 96.390, 1480.0, 38.4708
21.000414581, 96.390, 1448.0, 38.0526
21.026675146, 96.390, 1338.0, 36.5787
21.052935712, 96.390, 1337.0, 36.5650
21.079196277, 96.390, 1284.0, 35.8329
21.105456842, 96.390, 1244.0, 35.2704
21.131717408, 96.390, 1249.0, 35.3412
21.157977973, 96.390, 1215.0, 34.8569
21.184238538, 96.390, 1197.0, 34.5977
21.210499104, 96.390, 1292.0, 35.9444
21.236759669, 96.390, 1273.0, 35.6791
21.263020235, 96.390, 1272.0, 35.6651
21.289280800, 96.390, 1372.0, 37.0405
21.315541365, 96.390, 1449.0, 38.0657
21.341801931, 96.390, 1545.0, 39.3065
21.368062496, 96.390, 1544.0, 39.2938
21.394323061, 96.390, 1703.0, 41.2674
21.420583627, 96.390, 1536.0, 39.1918
21.446844192, 96.390, 1594.0, 39.9249
21.473104757, 96.390, 1453.0, 38.1182
21.499365323, 96.390, 1473.0, 38.3797
21.525625888, 96.390, 1476.0, 38.4187
21.551886453, 96.390, 1593.0, 39.9124
21.578147019, 96.390, 1801.0, 42.4382
21.604407584, 96.390, 2064.0, 45.4313
21.630668149, 96.390, 2455.0, 49.5480
21.656928715, 96.390, 2897.0, 53.8238
21.683189280, 96.390, 3138.0, 56.0179
21.709449846, 96.390, 3027.0, 55.0182
21.735710411, 96.390, 2608.0, 51.0686
21.761970976, 96.390, 2081.0, 45.6180
21.788231542, 96.390, 1569.0, 39.6106
21.814492107, 96.390, 1372.0, 37.0405
21.840752672, 96.390, 1262.0, 35.5246
21.867013238, 96.390, 1228.0, 35.0428
21.893273803, 96.390, 1198.0, 34.6121
21.919534368, 96.390, 1141.0, 33.7787
21.945794934, 96.390, 1159.0, 34.0441
21.972055499, 96.390, 1098.0, 33.1361
21.998316064, 96.390, 1094.0, 33.0757
22.024576630, 96.390, 1100.0, 33.1662
22.050837195, 96.390, 1077.0, 32.8177
22.077097761, 96.390, 1135.0, 33.6898
22.103358326, 96.390, 1140.0, 33.7639
22.129618891, 96.390, 1066.0, 32.6497
22.155879457, 96.390, 1116.0, 33.4066
22.182140022, 96.390, 1164.0, 34.1174
22.208400587, 96.390, 1173.0, 34.2491
22.234661153, 96.390, 1137.0, 33.7194
22.260921718, 96.390, 1162.0, 34.0881
22.287182283, 96.390, 1221.0, 34.9428
22.313442849, 96.390, 1243.0, 35.2562
22.339703414, 96.390, 1305.0, 36.1248
22.365963979, 96.390, 1319.0, 36.3180
22.392224545, 96.390, 1373.0, 37.0540
22.418485110, 96.390, 1361.0, 36.8917
22.444745675, 96.390, 1333.0, 36.5103
22.471006241, 96.390, 1351.0, 36.7560
22.497266806, 96.390, 1293.0, 35.9583
22.523527372, 96.390, 1239.0, 35.1994
22.549787937, 96.390, 1250.0, 35.3553
22.576048502, 96.390, 1183.0, 34.3948
22.602309068, 96.390, 1245.0, 35.2846
22.628569633, 96.390, 1200.0, 34.6410
22.654830198, 96.390, 1172.0, 34.2345
22.681090764, 96.390, 1188.0, 34.4674
22.707351329, 96.390, 1166.0, 34.1467
22.733611894, 96.390, 1226.0, 35.0143
22.759872460, 96.390, 1233.0, 35.1141
22.786133025, 96.390, 1267.0, 35.5949
22.812393590, 96.390, 1312.0, 36.2215
22.838654156, 96.390, 1324.0, 36.3868
22.864914721, 96.390, 1397.0, 37.3765
22.891175287, 96.390, 1452.0, 38.1051
22.917435852, 96.390, 1395.0, 37.3497
22.943696417, 96.390, 1367.0, 36.9730
22.969956983, 96.390, 1375.0, 37.0810
22.996217548, 96.390, 1399.0, 37.4032
23.022478113, 96.390, 1484.0, 38.5227
23.048738679, 96.390, 1545.0, 39.3065
23.074999244, 96.390, 1633.0, 40.4104
23.101259809, 96.390, 1680.0, 40.9878
23.127520375, 96.390, 1915.0, 43.7607
23.153780940, 96.390, 2044.0, 45.2106
23.180041505, 96.390, 2162.0, 46.4973
23.206302071, 96.390, 2168.0, 46.5618
23.232562636, 96.390, 2140.0, 46.2601
23.258823201, 96.390, 2204.0, 46.9468
23.285083767, 96.390, 2178.0, 46.6690
23.311344332, 96.390, 2433.0, 49.3254
23.337604898, 96.390, 2519.0, 50.1896
23.363865463, 96.390, 2794.0, 52.8583
23.390126028, 96.390, 2988.0, 54.6626
23.416386594, 96.390, 3145.0, 56.0803
23.442647159, 96.390, 3480.0, 58.9915
23.468907724, 96.390, 3507.0, 59.2199
23.495168290, 96.390, 3578.0, 59.8164
23.521428855, 96.390, 3556.0, 59.6322
23.547689420, 96.390, 3359.0, 57.9569
23.573949986, 96.390, 3072.0, 55.4256
23.600210551, 96.390, 2943.0, 54.2494
23.626471116, 96.390, 2620.0, 51.1859
23.652731682, 96.390, 2354.0, 48.5180
23.678992247, 96.390, 2225.0, 47.1699
23.705252813, 96.390, 2214.0, 47.0532
23.731513378, 96.390, 2006.0, 44.7884
23.757773943, 96.390, 2008.0, 44.8107
23.784034509, 96.390, 1971.0, 44.3959
23.810295074, 96.390, 2079.0, 45.5961
23.836555639, 96.390, 2209.0, 47.0000
23.862816205, 96.390, 2468.0, 49.6790
23.889076770, 96.390, 2686.0, 51.8266
23.915337335, 96.390, 3212.0, 56.6745
23.941597901, 96.390, 3683.0, 60.6877
23.967858466, 96.390, 4414.0, 66.4379
23.994119031, 96.390, 4806.0, 69.3253
24.020379597, 96.390, 5036.0, 70.9648
24.046640162, 96.390, 4653.0, 68.2129
24.072900727, 96.390, 4128.0, 64.2495
24.099161293, 96.390, 3724.0, 61.0246
24.125421858, 96.390, 3477.0, 58.9661
24.151682424, 96.390, 3563.0, 59.6909
24.177942989, 96.390, 3686.0, 60.7124
24.204203554, 96.390, 3990.0, 63.1664
24.230464120, 96.390, 4197.0, 64.7843
24.256724685, 96.390, 4520.0, 67.2309
24.282985250, 96.390, 4642.0, 68.1322
24.309245816, 96.390, 4497.0, 67.0597
24.335506381, 96.390, 4053.0, 63.6632
24.361766946, 96.390, 3805.0, 61.6847
24.388027512, 96.390, 3176.0, 56.3560
24.414288077, 96.390, 2715.0, 52.1057
24.440548642, 96.390, 2419.0, 49.1833
24.466809208, 96.390, 2215.0, 47.0638
24.493069773, 96.390, 1990.0, 44.6094
24.519330338, 96.390, 1757.0, 41.9166
24.545590904, 96.390, 1736.0, 41.6653
24.571851469, 96.390, 1568.0, 39.5980
24.598112035, 96.390, 1454.0, 38.1314
24.624372600, 96.390, 1425.0, 37.7492
24.650633165, 96.390, 1366.0, 36.9594
24.676893731, 96.390, 1402.0, 37.4433
24.703154296, 96.390, 1287.0, 35.8748
24.729414861, 96.390, 1284.0, 35.8329
24.755675427, 96.390, 1255.0, 35.4260
24.781935992, 96.390, 1212.0, 34.8138
24.808196557, 96.390, 1141.0, 33.7787
24.834457123, 96.390, 1178.0, 34.3220
24.860717688, 96.390, 1199.0, 34.6266
24.886978253, 96.390, 1132.0, 33.6452
24.913238819, 96.390, 1151.0, 33.9264
24.939499384, 96.390, 1078.0, 32.8329
24.965759950, 96.390, 1125.0, 33.5410
24.992020515, 96.390, 1061.0, 32.5730
25.018281080, 96.390, 1112.0, 33.3467
25.044541646, 96.390, 1108.0, 33.2866
25.070802211, 96.390, 1096.0, 33.1059
25.097062776, 96.390, 1078.0, 32.8329
25.123323342, 96.390, 1101.0, 33.1813
25.149583907, 96.390, 1079.0, 32.8481
25.175844472, 96.390, 1069.0, 32.6956
25.202105038, 96.390, 1105.0, 33.2415
25.228365603, 96.390, 1023.0, 31.9844
25.254626168, 96.390, 1137.0, 33.7194
25.280886734, 96.390, 1037.0, 32.2025
25.307147299, 96.390, 1099.0, 33.1512
25.333407864, 96.390, 1289.0, 35.9026
25.359668430, 96.390, 1336.0, 36.5513
25.385928995, 96.390, 1594.0, 39.9249
25.412189561, 96.390, 1771.0, 42.0833
25.438450126, 96.390, 2113.0, 45.9674
25.464710691, 96.390, 2108.0, 45.9130
25.490971257, 96.390, 1778.0, 42.1663
25.517231822, 96.390, 1531.0, 39.1280
25.543492387, 96.390, 1382.0, 37.1753
25.569752953, 96.390, 1094.0, 33.0757
25.596013518, 96.390, 1075.0, 32.7872
25.622274083, 96.390, 1058.0, 32.5269
25.648534649, 96.390, 1105.0, 33.2415
25.674795214, 96.390, 1035.0, 32.1714
25.701055779, 96.390, 995.0, 31.5436
25.727316345, 96.390, 990.0, 31.4643
25.753576910, 96.390, 1009.0, 31.7648
25.779837476, 96.390, 979.0, 31.2890
25.806098041, 96.390, 1088.0, 32.9848
25.832358606, 96.390, 1041.0, 32.2645
25.858619172, 96.390, 1065.0, 32.6343
25.884879737, 96.390, 1130.0, 33.6155
25.911140302, 96.390, 1156.0, 34.0000
25.937400868, 96.390, 1194.0, 34.5543
25.963661433, 96.390, 1389.0, 37.2693
25.989921998, 96.390, 1479.0, 38.4578
26.016182564, 96.390, 1566.0, 39.5727
26.042443129, 96.390, 1693.0, 41.1461
26.068703694, 96.390, 1658.0, 40.7185
26.094964260, 96.390, 1886.0, 43.4281
26.121224825, 96.390, 2026.0, 45.0111
26.147485390, 96.390, 1922.0, 43.8406
26.173745956, 96.390, 1746.0, 41.7852
26.200006521, 96.390, 1580.0, 39.7492
26.226267087, 96.390, 1452.0, 38.1051
26.252527652, 96.390, 1314.0, 36.2491
26.278788217, 96.390, 1185.0, 34.4238
26.305048783, 96.390, 1114.0, 33.3766
26.331309348, 96.390, 1125.0, 33.5410
26.357569913, 96.390, 1223.0, 34.9714
26.383830479, 96.390, 1171.0, 34.2199
26.410091044, 96.390, 1172.0, 34.2345
26.436351609, 96.390, 1177.0, 34.3074
26.462612175, 96.390, 1156.0, 34.0000
26.488872740, 96.390, 1226.0, 35.0143
26.515133305, 96.390, 1217.0, 34.8855
26.541393871, 96.390, 1225.0, 35.0000
26.567654436, 96.390, 1222.0, 34.9571
26.593915002, 96.390, 1169.0, 34.1906
26.620175567, 96.390, 1278.0, 35.7491
26.646436132, 96.390, 1191.0, 34.5109
26.672696698, 96.390, 1166.0, 34.1467
26.698957263, 96.390, 1262.0, 35.5246
26.725217828, 96.390, 1242.0, 35.2420
26.751478394, 96.390, 1232.0, 35.0999
26.777738959, 96.390, 1312.0, 36.2215
26.803999524, 96.390, 1362.0, 36.9053
26.830260090, 96.390, 1421.0, 37.6962
26.856520655, 96.390, 1449.0, 38.0657
26.882781220, 96.390, 1495.0, 38.6652
26.909041786, 96.390, 1607.0, 40.0874
26.935302351, 96.390, 1637.0, 40.4599
26.961562916, 96.390, 1823.0, 42.6966
26.987823482, 96.390, 1851.0, 43.0232
27.014084047, 96.390, 2147.0, 46.3357
27.040344613, 96.390, 2572.0, 50.7149
27.066605178, 96.390, 3034.0, 55.0818
27.092865743, 96.390, 3820.0, 61.8061
27.119126309, 96.390, 4605.0, 67.8602
27.145386874, 96.390, 5098.0, 71.4003
27.171647439, 96.390, 5034.0, 70.9507
27.197908005, 96.390, 4630.0, 68.0441
27.224168570, 96.390, 3850.0, 62.0484
27.250429135, 96.390, 3163.0, 56.2406
27.276689701, 96.390, 2732.0, 52.2685
27.302950266, 96.390, 2266.0, 47.6025
27.329210831, 96.390, 2079.0, 45.5961
27.355471397, 96.390, 2059.0, 45.3762
27.381731962, 96.390, 2152.0, 46.3897
27.407992528, 96.390, 2132.0, 46.1736
27.434253093, 96.390, 2240.0, 47.3286
27.460513658, 96.390, 2302.0, 47.9792
27.486774224, 96.390, 2342.0, 48.3942
27.513034789, 96.390, 2236.0, 47.2864
27.539295354, 96.390, 2174.0, 46.6262
27.565555920, 96.390, 2120.0, 46.0435
27.591816485, 96.390, 1953.0, 44.1928
27.618077050, 96.390, 1985.0, 44.5533
27.644337616, 96.390, 1915.0, 43.7607
27.670598181, 96.390, 2016.0, 44.8999
27.696858746, 96.390, 1990.0, 44.6094
27.723119312, 96.390, 2035.0, 45.1110
27.749379877, 96.390, 1979.0, 44.4860
27.775640442, 96.390, 2096.0, 45.7821
27.801901008, 96.390, 2115.0, 45.9891
27.828161573, 96.390, 2048.0, 45.2548
27.854422139, 96.390, 2023.0, 44.9778
27.880682704, 96.390, 1991.0, 44.6206
27.906943269, 96.390, 1875.0, 43.3013
27.933203835, 96.390, 1735.0, 41.6533
27.959464400, 96.390, 1745.0, 41.7732
27.985724965, 96.390, 1698.0, 41.2068
28.011985531, 96.390, 1702.0, 41.2553
28.038246096, 96.390, 1627.0, 40.3361
28.064506661, 96.390, 1522.0, 39.0128
28.090767227, 96.390, 1476.0, 38.4187
28.117027792, 96.390, 1444.0, 38.0000
28.143288357, 96.390, 1337.0, 36.5650
28.169548923, 96.390, 1300.0, 36.0555
28.195809488, 96.390, 1238.0, 35.1852
28.222070054, 96.390, 1198.0, 34.6121
28.248330619, 96.390, 1139.0, 33.7491
28.274591184, 96.390, 1102.0, 33.1964
28.300851750, 96.390, 1127.0, 33.5708
28.327112315, 96.390, 1127.0, 33.5708
28.353372880, 96.390, 1090.0, 33.0151
28.379633446, 96.390, 1015.0, 31.8591
28.405894011, 96.390, 1073.0, 32.7567
28.432154576, 96.390, 1053.0, 32.4500
28.458415142, 96.390, 1024.0, 32.0000
28.484675707, 96.390, 1076.0, 32.8024
28.510936272, 96.390, 1011.0, 31.7962
28.537196838, 96.390, 963.0, 31.0322
28.563457403, 96.390, 1056.0, 32.4962
28.589717968, 96.390, 1021.0, 31.9531
28.615978534, 96.390, 1064.0, 32.6190
28.642239099, 96.390, 1116.0, 33.4066
28.668499665, 96.390, 1202.0, 34.6699
28.694760230, 96.390, 1233.0, 35.1141
28.721020795, 96.390, 1291.0, 35.9305
28.747281361, 96.390, 1380.0, 37.1484
28.773541926, 96.390, 1406.0, 37.4967
28.799802491, 96.390, 1394.0, 37.3363
28.826063057, 96.390, 1250.0, 35.3553
28.852323622, 96.390, 1138.0, 33.7343
28.878584187, 96.390, 1186.0, 34.4384
28.904844753, 96.390, 1097.0, 33.1210
28.931105318, 96.390, 1031.0, 32.1092
28.957365883, 96.390, 1041.0, 32.2645
28.983626449, 96.390, 1174.0, 34.2637
29.009887014, 96.390, 1198.0, 34.6121
29.036147579, 96.390, 1249.0, 35.3412
29.062408145, 96.390, 1361.0, 36.8917
29.088668710, 96.390, 1466.0, 38.2884
29.114929276, 96.390, 1617.0, 40.2119
29.141189841, 96.390, 1554.0, 39.4208
29.167450406, 96.390, 1382.0, 37.1753
29.193710972, 96.390, 1253.0, 35.3977
29.219971537, 96.390, 1160.0, 34.0588
29.246232102, 96.390, 1061.0, 32.5730
29.272492668, 96.390, 943.0, 30.7083
29.298753233, 96.390, 1074.0, 32.7719
29.325013798, 96.390, 1000.0, 31.6228
29.351274364, 96.390, 1036.0, 32.1870
29.377534929, 96.390, 979.0, 31.2890
29.403795494, 96.390, 1035.0, 32.1714
29.430056060, 96.390, 958.0, 30.9516
29.456316625, 96.390, 1059.0, 32.5423
29.482577191, 96.390, 1017.0, 31.8904
29.508837756, 96.390, 1077.0, 32.8177
29.535098321, 96.390, 997.0, 31.5753
29.561358887, 96.390, 1020.0, 31.9374
29.587619452, 96.390, 1076.0, 32.8024
29.613880017, 96.390, 1076.0, 32.8024
29.640140583, 96.390, 1095.0, 33.0908
29.666401148, 96.390, 1099.0, 33.1512
29.692661713, 96.390, 1123.0, 33.5112
29.718922279, 96.390, 1289.0, 35.9026
29.745182844, 96.390, 1287.0, 35.8748
29.771443409, 96.390, 1434.0, 37.8682
29.797703975, 96.390, 1526.0, 39.0640
29.823964540, 96.390, 1856.0, 43.0813
29.850225105, 96.390, 2148.0, 46.3465
29.876485671, 96.390, 2513.0, 50.1298
29.902746236, 96.390, 3090.0, 55.5878
29.929006802, 96.390, 3721.0, 61.0000
29.955267367, 96.390, 4435.0, 66.5958
29.981527932, 96.390, 4263.0, 65.2917
30.007788498, 96.390, 3740.0, 61.1555
30.034049063, 96.390, 3494.0, 59.1101
30.060309628, 96.390, 2869.0, 53.5630
30.086570194, 96.390, 2279.0, 47.7389
30.112830759, 96.390, 1867.0, 43.2088
30.139091324, 96.390, 1659.0, 40.7308
30.165351890, 96.390, 1443.0, 37.9868
30.191612455, 96.390, 1352.0, 36.7696
30.217873020, 96.390, 1240.0, 35.2136
30.244133586, 96.390, 1235.0, 35.1426
30.270394151, 96.390, 1114.0, 33.3766
30.296654717, 96.390, 1075.0, 32.7872
30.322915282, 96.390, 1130.0, 33.6155
30.349175847, 96.390, 1077.0, 32.8177
30.375436413, 96.390, 992.0, 31.4960
30.401696978, 96.390, 1029.0, 32.0780
30.427957543, 96.390, 1059.0, 32.5423
30.454218109, 96.390, 1010.0, 31.7805
30.480478674, 96.390, 1049.0, 32.3883
30.506739239, 96.390, 1069.0, 32.6956
30.532999805, 96.390, 1115.0, 33.3916
30.559260370, 96.390, 1158.0, 34.0294
30.585520935, 96.390, 1237.0, 35.1710
30.611781501, 96.390, 1262.0, 35.5246
30.638042066, 96.390, 1486.0, 38.5487
30.664302631, 96.390, 1430.0, 37.8153
30.690563197, 96.390, 1423.0, 37.7227
30.716823762, 96.390, 1487.0, 38.5616
30.743084328, 96.390, 1495.0, 38.6652
30.769344893, 96.390, 1534.0, 39.1663
30.795605458, 96.390, 1590.0, 39.8748
30.821866024, 96.390, 1801.0, 42.4382
30.848126589, 96.390, 1845.0, 42.9535
30.874387154, 96.390, 1768.0, 42.0476
30.900647720, 96.390, 1564.0, 39.5474
30.926908285, 96.390, 1431.0, 37.8286
30.953168850, 96.390, 1381.0, 37.1618
30.979429416, 96.390, 1248.0, 35.3270
31.005689981, 96.390, 1280.0, 35.7771
31.031950546, 96.390, 1252.0, 35.3836
31.058211112, 96.390, 1228.0, 35.0428
31.084471677, 96.390, 1364.0, 36.9324
31.110732243, 96.390, 1501.0, 38.7427
31.136992808, 96.390, 1632.0, 40.3980
31.163253373, 96.390, 1937.0, 44.0114
31.189513939, 96.390, 2263.0, 47.5710
31.215774504, 96.390, 2471.0, 49.7092
31.242035069, 96.390, 2264.0, 47.5815
31.268295635, 96.390, 2028.0, 45.0333
31.294556200, 96.390, 1892.0, 43.4971
31.320816765, 96.390, 1645.0, 40.5586
31.347077331, 96.390, 1578.0, 39.7240
31.373337896, 96.390, 1530.0, 39.1152
31.399598461, 96.390, 1533.0, 39.1535
31.425859027, 96.390, 1646.0, 40.5709
31.452119592, 96.390, 1608.0, 40.0999
31.478380157, 96.390, 1734.0, 41.6413
31.504640723, 96.390, 1826.0, 42.7317
31.530901288, 96.390, 1810.0, 42.5441
31.557161854, 96.390, 1742.0, 41.7373
31.583422419, 96.390, 1779.0, 42.1782
31.609682984, 96.390, 1775.0, 42.1307
31.635943550, 96.390, 1669.0, 40.8534
31.662204115, 96.390, 1638.0, 40.4722
31.688464680, 96.390, 1540.0, 39.2428
31.714725246, 96.390, 1476.0, 38.4187
31.740985811, 96.390, 1439.0, 37.9342
31.767246376, 96.390, 1514.0, 38.9102
31.793506942, 96.390, 1482.0, 38.4968
31.819767507, 96.390, 1490.0, 38.6005
31.846028072, 96.390, 1754.0, 41.8808
31.872288638, 96.390, 1927.0, 43.8976
31.898549203, 96.390, 2137.0, 46.2277
31.924809769, 96.390, 2512.0, 50.1199
31.951070334, 96.390, 2810.0, 53.0094
31.977330899, 96.390, 3432.0, 58.5833
32.003591465, 96.390, 4118.0, 64.1716
32.029852030, 96.390, 5063.0, 71.1548
32.056112595, 96.390, 5971.0, 77.2722
32.082373161, 96.390, 5851.0, 76.4918
32.108633726, 96.390, 4772.0, 69.0797
32.134894291, 96.390, 3915.0, 62.5700
32.161154857, 96.390, 3307.0, 57.5065
32.187415422, 96.390, 2618.0, 51.1664
32.213675987, 96.390, 2004.0, 44.7661
32.239936553, 96.390, 1634.0, 40.4228
32.266197118, 96.390, 1620.0, 40.2492
32.292457683, 96.390, 1558.0, 39.4715
32.318718249, 96.390, 1504.0, 38.7814
32.344978814, 96.390, 1470.0, 38.3406
32.371239380, 96.390, 1435.0, 37.8814
32.397499945, 96.390, 1458.0, 38.1838
32.423760510, 96.390, 1501.0, 38.7427
32.450021076, 96.390, 1535.0, 39.1791
32.476281641, 96.390, 1645.0, 40.5586
32.502542206, 96.390, 1854.0, 43.0581
32.528802772, 96.390, 2042.0, 45.1885
32.555063337, 96.390, 2235.0, 47.2758
32.581323902, 96.390, 2232.0, 47.2440
32.607584468, 96.390, 2129.0, 46.1411
32.633845033, 96.390, 2005.0, 44.7772
32.660105598, 96.390, 1819.0, 42.6497
32.686366164, 96.390, 1641.0, 40.5093
32.712626729, 96.390, 1499.0, 38.7169
32.738887295, 96.390, 1515.0, 38.9230
32.765147860, 96.390, 1388.0, 37.2559
32.791408425, 96.390, 1339.0, 36.5923
32.817668991, 96.390, 1319.0, 36.3180
32.843929556, 96.390, 1462.0, 38.2361
32.870190121, 96.390, 1431.0, 37.8286
32.896450687, 96.390, 1448.0, 38.0526
32.922711252, 96.390, 1444.0, 38.0000
32.948971817, 96.390, 1481.0, 38.4838
32.975232383, 96.390, 1502.0, 38.7556
33.001492948, 96.390, 1449.0, 38.0657
33.027753513, 96.390, 1457.0, 38.1707
33.054014079, 96.390, 1387.0, 37.2424
33.080274644, 96.390, 1422.0, 37.7094
33.106535209, 96.390, 1394.0, 37.3363
33.132795775, 96.390, 1286.0, 35.8608
33.159056340, 96.390, 1405.0, 37.4833
33.185316906, 96.390, 1322.0, 36.3593
33.211577471, 96.390, 1234.0, 35.1283
33.237838036, 96.390, 1260.0, 35.4965
33.264098602, 96.390, 1248.0, 35.3270
33.290359167, 96.390, 1300.0, 36.0555
33.316619732, 96.390, 1322.0, 36.3593
33.342880298, 96.390, 1355.0, 36.8103
33.369140863, 96.390, 1446.0, 38.0263
33.395401428, 96.390, 1398.0, 37.3898
33.421661994, 96.390, 1443.0, 37.9868
33.447922559, 96.390, 1329.0, 36.4555
33.474183124, 96.390, 1413.0, 37.5899
33.500443690, 96.390, 1412.0, 37.5766
33.526704255, 96.390, 1295.0, 35.9861
33.552964820, 96.390, 1451.0, 38.0920
33.579225386, 96.390, 1347.0, 36.7015
33.605485951, 96.390, 1299.0, 36.0416
33.631746517, 96.390, 1336.0, 36.5513
33.658007082, 96.390, 1351.0, 36.7560
33.684267647, 96.390, 1319.0, 36.3180
33.710528213, 96.390, 1417.0, 37.6431
33.736788778, 96.390, 1508.0, 38.8330
33.763049343, 96.390, 1634.0, 40.4228
33.789309909, 96.390, 1710.0, 41.3521
33.815570474, 96.390, 1784.0, 42.2374
33.841831039, 96.390, 1903.0, 43.6234
33.868091605, 96.390, 2213.0, 47.0425
33.894352170, 96.390, 2621.0, 51.1957
33.920612735, 96.390, 2994.0, 54.7175
33.946873301, 96.390, 3468.0, 58.8897
33.973133866, 96.390, 3733.0, 61.0983
33.999394432, 96.390, 3528.0, 59.3970
34.025654997, 96.390, 3335.0, 57.7495
34.051915562, 96.390, 3392.0, 58.2409
34.078176128, 96.390, 3438.0, 58.6345
34.104436693, 96.390, 3323.0, 57.6455
34.130697258, 96.390, 3550.0, 59.5819
34.156957824, 96.390, 3823.0, 61.8304
34.183218389, 96.390, 4170.0, 64.5755
34.209478954, 96.390, 4415.0, 66.4455
34.235739520, 96.390, 4201.0, 64.8151
34.262000085, 96.390, 3841.0, 61.9758
34.288260650, 96.390, 3582.0, 59.8498
34.314521216, 96.390, 3269.0, 57.1752
34.340781781, 96.390, 2954.0, 54.3507
34.367042346, 96.390, 2811.0, 53.0189
34.393302912, 96.390, 2779.0, 52.7162
34.419563477, 96.390, 2748.0, 52.4214
34.445824043, 96.390, 2828.0, 53.1789
34.472084608, 96.390, 2966.0, 54.4610
34.498345173, 96.390, 2867.0, 53.5444
34.524605739, 96.390, 2662.0, 51.5946
34.550866304, 96.390, 2704.0, 52.0000
34.577126869, 96.390, 2684.0, 51.8073
34.603387435, 96.390, 2602.0, 51.0098
34.629648000, 96.390, 2459.0, 49.5883
34.655908565, 96.390, 2405.0, 49.0408
34.682169131, 96.390, 2420.0, 49.1935
34.708429696, 96.390, 2476.0, 49.7594
34.734690261, 96.390, 2431.0, 49.3052
34.760950827, 96.390, 2539.0, 50.3885
34.787211392, 96.390, 2773.0, 52.6593
34.813471958, 96.390, 2860.0, 53.4790
34.839732523, 96.390, 3191.0, 56.4889
34.865993088, 96.390, 3752.0, 61.2536
34.892253654, 96.390, 4317.0, 65.7039
34.918514219, 96.390, 4582.0, 67.6905
34.944774784, 96.390, 4461.0, 66.7907
34.971035350, 96.390, 4310.0, 65.6506
34.997295915, 96.390, 3480.0, 58.9915
35.023556480, 96.390, 3145.0, 56.0803
35.049817046, 96.390, 2782.0, 52.7447
35.076077611, 96.390, 2230.0, 47.2229
35.102338176, 96.390, 1860.0, 43.1277
35.128598742, 96.390, 1818.0, 42.6380
35.154859307, 96.390, 1716.0, 41.4246
35.181119872, 96.390, 1580.0, 39.7492
35.207380438, 96.390, 1563.0, 39.5348
35.233641003, 96.390, 1510.0, 38.8587
35.259901569, 96.390, 1392.0, 37.3095
35.286162134, 96.390, 1490.0, 38.6005
35.312422699, 96.390, 1496.0, 38.6782
35.338683265, 96.390, 1328.0, 36.4417
35.364943830, 96.390, 1378.0, 37.1214
35.391204395, 96.390, 1315.0, 36.2629
35.417464961, 96.390, 1344.0, 36.6606
35.443725526, 96.390, 1299.0, 36.0416
35.469986091, 96.390, 1287.0, 35.8748
35.496246657, 96.390, 1289.0, 35.9026
35.522507222, 96.390, 1235.0, 35.1426
35.548767787, 96.390, 1411.0, 37.5633
35.575028353, 96.390, 1393.0, 37.3229
35.601288918, 96.390, 1467.0, 38.3014
35.627549484, 96.390, 1498.0, 38.7040
35.653810049, 96.390, 1498.0, 38.7040
35.680070614, 96.390, 1488.0, 38.5746
35.706331180, 96.390, 1425.0, 37.7492
35.732591745, 96.390, 1399.0, 37.4032
35.758852310, 96.390, 1443.0, 37.9868
35.785112876, 96.390, 1498.0, 38.7040
35.811373441, 96.390, 1410.0, 37.5500
35.837634006, 96.390, 1452.0, 38.1051
35.863894572, 96.390, 1291.0, 35.9305
35.890155137, 96.390, 1279.0, 35.7631
35.916415702, 96.390, 1238.0, 35.1852
35.942676268, 96.390, 1254.0, 35.4119
35.968936833, 96.390, 1208.0, 34.7563
35.995197398, 96.390, 1150.0, 33.9116
36.021457964, 96.390, 1212.0, 34.8138
36.047718529, 96.390, 1176.0, 34.2929
36.073979095, 96.390, 1192.0, 34.5254
36.100239660, 96.390, 1233.0, 35.1141
36.126500225, 96.390, 1213.0, 34.8281
36.152760791, 96.390, 1273.0, 35.6791
36.179021356, 96.390, 1248.0, 35.3270
36.205281921, 96.390, 1238.0, 35.1852
36.231542487, 96.390, 1284.0, 35.8329
36.257803052, 96.390, 1273.0, 35.6791
36.284063617, 96.390, 1319.0, 36.3180
36.310324183, 96.390, 1366.0, 36.9594
36.336584748, 96.390, 1353.0, 36.7831
36.362845313, 96.390, 1442.0, 37.9737
36.389105879, 96.390, 1364.0, 36.9324
36.415366444, 96.390, 1396.0, 37.3631
36.441627010, 96.390, 1458.0, 38.1838
36.467887575, 96.390, 1448.0, 38.0526
36.494148140, 96.390, 1487.0, 38.5616
36.520408706, 96.390, 1462.0, 38.2361
36.546669271, 96.390, 1565.0, 39.5601
36.572929836, 96.390, 1605.0, 40.0625
36.599190402, 96.390, 1527.0, 39.0768
36.625450967, 96.390, 1512.0, 38.8844
36.651711532, 96.390, 1475.0, 38.4057
36.677972098, 96.390, 1432.0, 37.8418
36.704232663, 96.390, 1355.0, 36.8103
36.730493228, 96.390, 1301.0, 36.0694
36.756753794, 96.390, 1256.0, 35.4401
36.783014359, 96.390, 1237.0, 35.1710
36.809274924, 96.390, 1209.0, 34.7707
36.835535490, 96.390, 1256.0, 35.4401
36.861796055, 96.390, 1252.0, 35.3836
36.888056621, 96.390, 1328.0, 36.4417
36.914317186, 96.390, 1404.0, 37.4700
36.940577751, 96.390, 1331.0, 36.4829
36.966838317, 96.390, 1387.0, 37.2424
36.993098882, 96.390, 1498.0, 38.7040
37.019359447, 96.390, 1420.0, 37.6829
37.045620013, 96.390, 1415.0, 37.6165
37.071880578, 96.390, 1409.0, 37.5366
37.098141143, 96.390, 1354.0, 36.7967
37.124401709, 96.390, 1291.0, 35.9305
37.150662274, 96.390, 1298.0, 36.0278
37.176922839, 96.390, 1339.0, 36.5923
37.203183405, 96.390, 1277.0, 35.7351
37.229443970, 96.390, 1249.0, 35.3412
37.255704535, 96.390, 1303.0, 36.0971
37.281965101, 96.390, 1347.0, 36.7015
37.308225666, 96.390, 1323.0, 36.3731
37.334486232, 96.390, 1374.0, 37.0675
37.360746797, 96.390, 1382.0, 37.1753
37.387007362, 96.390, 1392.0, 37.3095
37.413267928, 96.390, 1446.0, 38.0263
37.439528493, 96.390, 1427.0, 37.7757
37.465789058, 96.390, 1464.0, 38.2623
37.492049624, 96.390, 1549.0, 39.3573
37.518310189, 96.390, 1590.0, 39.8748
37.544570754, 96.390, 1623.0, 40.2865
37.570831320, 96.390, 1692.0, 41.1339
37.597091885, 96.390, 1759.0, 41.9404
37.623352450, 96.390, 1873.0, 43.2782
37.649613016, 96.390, 1915.0, 43.7607
37.675873581, 96.390, 2035.0, 45.1110
37.702134147, 96.390, 2257.0, 47.5079
37.728394712, 96.390, 2270.0, 47.6445
37.754655277, 96.390, 2227.0, 47.1911
37.780915843, 96.390, 2100.0, 45.8258
37.807176408, 96.390, 1981.0, 44.5084
37.833436973, 96.390, 2076.0, 45.5631
37.859697539, 96.390, 1916.0, 43.7721
37.885958104, 96.390, 1841.0, 42.9069
37.912218669, 96.390, 1724.0, 41.5211
37.938479235, 96.390, 1695.0, 41.1704
37.964739800, 96.390, 1696.0, 41.1825
37.991000365, 96.390, 1737.0, 41.6773
38.017260931, 96.390, 1727.0, 41.5572
38.043521496, 96.390, 1549.0, 39.3573
38.069782061, 96.390, 1676.0, 40.9390
38.096042627, 96.390, 1540.0, 39.2428
38.122303192, 96.390, 1597.0, 39.9625
38.148563758, 96.390, 1566.0, 39.5727
38.174824323, 96.390, 1532.0, 39.1408
38.201084888, 96.390, 1475.0, 38.4057
38.227345454, 96.390, 1467.0, 38.3014
38.253606019, 96.390, 1360.0, 36.8782
38.279866584, 96.390, 1356.0, 36.8239
38.306127150, 96.390, 1281.0, 35.7911
38.332387715, 96.390, 1221.0, 34.9428
38.358648280, 96.390, 1198.0, 34.6121
38.384908846, 96.390, 1183.0, 34.3948
38.411169411, 96.390, 1166.0, 34.1467
38.437429976, 96.390, 1199.0, 34.6266
38.463690542, 96.390, 1219.0, 34.9142
38.489951107, 96.390, 1205.0, 34.7131
38.516211673, 96.390, 1281.0, 35.7911
38.542472238, 96.390, 1212.0, 34.8138
38.568732803, 96.390, 1243.0, 35.2562
38.594993369, 96.390, 1291.0, 35.9305
38.621253934, 96.390, 1202.0, 34.6699
38.647514499, 96.390, 1231.0, 35.0856
38.673775065, 96.390, 1215.0, 34.8569
38.700035630, 96.390, 1309.0, 36.1801
38.726296195, 96.390, 1392.0, 37.3095
38.752556761, 96.390, 1502.0, 38.7556
38.778817326, 96.390, 1553.0, 39.4081
38.805077891, 96.390, 1553.0, 39.4081
38.831338457, 96.390, 1413.0, 37.5899
38.857599022, 96.390, 1425.0, 37.7492
38.883859587, 96.390, 1384.0, 37.2022
38.910120153, 96.390, 1335.0, 36.5377
38.936380718, 96.390, 1242.0, 35.2420
38.962641284, 96.390, 1161.0, 34.0735
38.988901849, 96.390, 1121.0, 33.4813
39.015162414, 96.390, 1183.0, 34.3948
39.041422980, 96.390, 1142.0, 33.7935
39.067683545, 96.390, 1190.0, 34.4964
39.093944110, 96.390, 1170.0, 34.2053
39.120204676, 96.390, 1256.0, 35.4401
39.146465241, 96.390, 1251.0, 35.3695
39.172725806, 96.390, 1232.0, 35.0999
39.198986372, 96.390, 1302.0, 36.0832
39.225246937, 96.390, 1368.0, 36.9865
39.251507502, 96.390, 1457.0, 38.1707
39.277768068, 96.390, 1570.0, 39.6232
39.304028633, 96.390, 1711.0, 41.3642
39.330289199, 96.390, 1862.0, 43.1509
39.356549764, 96.390, 2137.0, 46.2277
39.382810329, 96.390, 2420.0, 49.1935
39.409070895, 96.390, 2687.0, 51.8363
39.435331460, 96.390, 2911.0, 53.9537
39.461592025, 96.390, 2897.0, 53.8238
39.487852591, 96.390, 2747.0, 52.4118
39.514113156, 96.390, 2723.0, 52.1824
39.540373721, 96.390, 2672.0, 51.6914
39.566634287, 96.390, 2432.0, 49.3153
39.592894852, 96.390, 2245.0, 47.3814
39.619155417, 96.390, 2085.0, 45.6618
39.645415983, 96.390, 1908.0, 43.6807
39.671676548, 96.390, 1792.0, 42.3320
39.697937113, 96.390, 1691.0, 41.1218
39.724197679, 96.390, 1647.0, 40.5832
39.750458244, 96.390, 1466.0, 38.2884
39.776718810, 96.390, 1500.0, 38.7298
39.802979375, 96.390, 1504.0, 38.7814
39.829239940, 96.390, 1403.0, 37.4566
39.855500506, 96.390, 1479.0, 38.4578
39.881761071, 96.390, 1410.0, 37.5500
39.908021636, 96.390, 1428.0, 37.7889
39.934282202, 96.390, 1423.0, 37.7227
39.960542767, 96.390, 1437.0, 37.9078
39.986803332, 96.390, 1540.0, 39.2428
40.013063898, 96.390, 1562.0, 39.5221
40.039324463, 96.390, 1649.0, 40.6079
40.065585028, 96.390, 1691.0, 41.1218
40.091845594, 96.390, 1808.0, 42.5206
40.118106159, 96.390, 1786.0, 42.2611
40.144366725, 96.390, 1844.0, 42.9418
40.170627290, 96.390, 1888.0, 43.4511
40.196887855, 96.390, 1844.0, 42.9418
40.223148421, 96.390, 1883.0, 43.3935
40.249408986, 96.390, 1877.0, 43.3244
40.275669551, 96.390, 1971.0, 44.3959
40.301930117, 96.390, 1910.0, 43.7035
40.328190682, 96.390, 1980.0, 44.4972
40.354451247, 96.390, 2099.0, 45.8148
40.380711813, 96.390, 2108.0, 45.9130
40.406972378, 96.390, 2246.0, 47.3920
40.433232943, 96.390, 2486.0, 49.8598
40.459493509, 96.390, 2530.0, 50.2991
40.485754074, 96.390, 2763.0, 52.5642
40.512014639, 96.390, 2825.0, 53.1507
40.538275205, 96.390, 3072.0, 55.4256
40.564535770, 96.390, 3060.0, 55.3173
40.590796336, 96.390, 3119.0, 55.8480
40.617056901, 96.390, 2939.0, 54.2125
40.643317466, 96.390, 2742.0, 52.3641
40.669578032, 96.390, 2560.0, 50.5964
40.695838597, 96.390, 2361.0, 48.5901
40.722099162, 96.390, 2110.0, 45.9347
40.748359728, 96.390, 1825.0, 42.7200
40.774620293, 96.390, 1674.0, 40.9145
40.800880858, 96.390, 1475.0, 38.4057
40.827141424, 96.390, 1401.0, 37.4299
40.853401989, 96.390, 1311.0, 36.2077
40.879662554, 96.390, 1277.0, 35.7351
40.905923120, 96.390, 1261.0, 35.5106
40.932183685, 96.390, 1293.0, 35.9583
40.958444251, 96.390, 1196.0, 34.5832
40.984704816, 96.390, 1209.0, 34.7707
41.010965381, 96.390, 1273.0, 35.6791
41.037225947, 96.390, 1294.0, 35.9722
41.063486512, 96.390, 1307.0, 36.1525
41.089747077, 96.390, 1279.0, 35.7631
41.116007643, 96.390, 1368.0, 36.9865
41.142268208, 96.390, 1294.0, 35.9722
41.168528773, 96.390, 1361.0, 36.8917
41.194789339, 96.390, 1252.0, 35.3836
41.221049904, 96.390, 1242.0, 35.2420
41.247310469, 96.390, 1365.0, 36.9459
41.273571035, 96.390, 1418.0, 37.6563
41.299831600, 96.390, 1562.0, 39.5221
41.326092165, 96.390, 1661.0, 40.7554
41.352352731, 96.390, 1915.0, 43.7607
41.378613296, 96.390, 2210.0, 47.0106
41.404873862, 96.390, 2284.0, 47.7912
41.431134427, 96.390, 2013.0, 44.8665
41.457394992, 96.390, 1952.0, 44.1814
41.483655558, 96.390, 1947.0, 44.1248
41.509916123, 96.390, 1953.0, 44.1928
41.536176688, 96.390, 1778.0, 42.1663
41.562437254, 96.390, 1628.0, 40.3485
41.588697819, 96.390, 1563.0, 39.5348
41.614958384, 96.390, 1528.0, 39.0896
41.641218950, 96.390, 1502.0, 38.7556
41.667479515, 96.390, 1450.0, 38.0789
41.693740080, 96.390, 1324.0, 36.3868
41.720000646, 96.390, 1256.0, 35.4401
41.746261211, 96.390, 1229.0, 35.0571
41.772521776, 96.390, 1191.0, 34.5109
41.798782342, 96.390, 1236.0, 35.1568
41.825042907, 96.390, 1129.0, 33.6006
41.851303473, 96.390, 1086.0, 32.9545
41.877564038, 96.390, 1137.0, 33.7194
41.903824603, 96.390, 1010.0, 31.7805
41.930085169, 96.390, 1087.0, 32.9697
41.956345734, 96.390, 1037.0, 32.2025
41.982606299, 96.390, 1048.0, 32.3728
42.008866865, 96.390, 1009.0, 31.7648
42.035127430, 96.390, 1133.0, 33.6601
42.061387995, 96.390, 1025.0, 32.0156
42.087648561, 96.390, 1094.0, 33.0757
42.113909126, 96.390, 1287.0, 35.8748
42.140169691, 96.390, 1317.0, 36.2905
42.166430257, 96.390, 1334.0, 36.5240
42.192690822, 96.390, 1360.0, 36.8782
42.218951388, 96.390, 1304.0, 36.1109
42.245211953, 96.390, 1305.0, 36.1248
42.271472518, 96.390, 1275.0, 35.7071
42.297733084, 96.390, 1202.0, 34.6699
42.323993649, 96.390, 1107.0, 33.2716
42.350254214, 96.390, 1142.0, 33.7935
42.376514780, 96.390, 1098.0, 33.1361
42.402775345, 96.390, 1162.0, 34.0881
42.429035910, 96.390, 1190.0, 34.4964
42.455296476, 96.390, 1213.0, 34.8281
42.481557041, 96.390, 1281.0, 35.7911
42.507817606, 96.390, 1362.0, 36.9053
42.534078172, 96.390, 1577.0, 39.7115
42.560338737, 96.390, 1664.0, 40.7922
42.586599302, 96.390, 1639.0, 40.4846
42.612859868, 96.390, 1559.0, 39.4842
42.639120433, 96.390, 1717.0, 41.4367
42.665380999, 96.390, 1759.0, 41.9404
42.691641564, 96.390, 1781.0, 42.2019
42.717902129, 96.390, 1854.0, 43.0581
42.744162695, 96.390, 1837.0, 42.8602
42.770423260, 96.390, 1828.0, 42.7551
42.796683825, 96.390, 1734.0, 41.6413
42.822944391, 96.390, 1616.0, 40.1995
42.849204956, 96.390, 1671.0, 40.8779
42.875465521, 96.390, 1610.0, 40.1248
42.901726087, 96.390, 1468.0, 38.3145
42.927986652, 96.390, 1301.0, 36.0694
42.954247217, 96.390, 1288.0, 35.8887
42.980507783, 96.390, 1236.0, 35.1568
43.006768348, 96.390, 1159.0, 34.0441
43.033028914, 96.390, 1120.0, 33.4664
43.059289479, 96.390, 1015.0, 31.8591
43.085550044, 96.390, 1059.0, 32.5423
43.111810610, 96.390, 1009.0, 31.7648
43.138071175, 96.390, 977.0, 31.2570
43.164331740, 96.390, 980.0, 31.3050
43.190592306, 96.390, 936.0, 30.5941
43.216852871, 96.390, 956.0, 30.9192
43.243113436, 96.390, 922.0, 30.3645
43.269374002, 96.390, 992.0, 31.4960
43.295634567, 96.390, 884.0, 29.7321
43.321895132, 96.390, 866.0, 29.4279
43.348155698, 96.390, 930.0, 30.4959
43.374416263, 96.390, 964.0, 31.0483
43.400676828, 96.390, 934.0, 30.5614
43.426937394, 96.390, 984.0, 31.3688
43.453197959, 96.390, 1019.0, 31.9218
43.479458525, 96.390, 1026.0, 32.0312
43.505719090, 96.390, 1017.0, 31.8904
43.531979655, 96.390, 1099.0, 33.1512
43.558240221, 96.390, 1114.0, 33.3766
43.584500786, 96.390, 1161.0, 34.0735
43.610761351, 96.390, 1124.0, 33.5261
43.637021917, 96.390, 1111.0, 33.3317
43.663282482, 96.390, 1263.0, 35.5387
43.689543047, 96.390, 1373.0, 37.0540
43.715803613, 96.390, 1519.0, 38.9744
43.742064178, 96.390, 1766.0, 42.0238
43.768324743, 96.390, 1794.0, 42.3556
43.794585309, 96.390, 1644.0, 40.5463
43.820845874, 96.390, 1429.0, 37.8021
43.847106440, 96.390, 1379.0, 37.1349
43.873367005, 96.390, 1419.0, 37.6696
43.899627570, 96.390, 1428.0, 37.7889
43.925888136, 96.390, 1268.0, 35.6090
43.952148701, 96.390, 1176.0, 34.2929
43.978409266, 96.390, 1099.0, 33.1512
44.004669832, 96.390, 1078.0, 32.8329
44.030930397, 96.390, 1094.0, 33.0757
44.057190962, 96.390, 1149.0, 33.8969
44.083451528, 96.390, 1209.0, 34.7707
44.109712093, 96.390, 1372.0, 37.0405
44.135972658, 96.390, 1353.0, 36.7831
44.162233224, 96.390, 1474.0, 38.3927
44.188493789, 96.390, 1472.0, 38.3667
44.214754354, 96.390, 1517.0, 38.9487
44.241014920, 96.390, 1384.0, 37.2022
44.267275485, 96.390, 1346.0, 36.6879
44.293536051, 96.390, 1422.0, 37.7094
44.319796616, 96.390, 1395.0, 37.3497
44.346057181, 96.390, 1538.0, 39.2173
44.372317747, 96.390, 1402.0, 37.4433
44.398578312, 96.390, 1430.0, 37.8153
44.424838877, 96.390, 1250.0, 35.3553
44.451099443, 96.390, 1250.0, 35.3553
44.477360008, 96.390, 1230.0, 35.0714
44.503620573, 96.390, 1136.0, 33.7046
44.529881139, 96.390, 1129.0, 33.6006
44.556141704, 96.390, 998.0, 31.5911
44.582402269, 96.390, 998.0, 31.5911
44.608662835, 96.390, 925.0, 30.4138
44.634923400, 96.390, 875.0, 29.5804
44.661183966, 96.390, 926.0, 30.4302
44.687444531, 96.390, 919.0, 30.3150
44.713705096, 96.390, 919.0, 30.3150
44.739965662, 96.390, 963.0, 31.0322
44.766226227, 96.390, 913.0, 30.2159
44.792486792, 96.390, 993.0, 31.5119
44.818747358, 96.390, 1082.0, 32.8938
44.845007923, 96.390, 1042.0, 32.2800
44.871268488, 96.390, 1057.0, 32.5115
44.897529054, 96.390, 995.0, 31.5436
44.923789619, 96.390, 961.0, 31.0000
44.950050184, 96.390, 1007.0, 31.7333
44.976310750, 96.390, 1059.0, 32.5423
45.002571315, 96.390, 1044.0, 32.3110
45.028831880, 96.390, 1044.0, 32.3110
45.055092446, 96.390, 1177.0, 34.3074
45.081353011, 96.390, 1235.0, 35.1426
45.107613577, 96.390, 1351.0, 36.7560
45.133874142, 96.390, 1335.0, 36.5377
45.160134707, 96.390, 1224.0, 34.9857
45.186395273, 96.390, 1195.0, 34.5688
45.212655838, 96.390, 1138.0, 33.7343
45.238916403, 96.390, 1282.0, 35.8050
45.265176969, 96.390, 1346.0, 36.6879
45.291437534, 96.390, 1332.0, 36.4966
45.317698099, 96.390, 1440.0, 37.9473
45.343958665, 96.390, 1390.0, 37.2827
45.370219230, 96.390, 1326.0, 36.4143
45.396479795, 96.390, 1397.0, 37.3765
45.422740361, 96.390, 1483.0, 38.5097
45.449000926, 96.390, 1640.0, 40.4969
45.475261492, 96.390, 1640.0, 40.4969
45.501522057, 96.390, 1644.0, 40.5463
45.527782622, 96.390, 1369.0, 37.0000
45.554043188, 96.390, 1333.0, 36.5103
45.580303753, 96.390, 1277.0, 35.7351
45.606564318, 96.390, 1248.0, 35.3270
45.632824884, 96.390, 1227.0, 35.0286
45.659085449, 96.390, 1149.0, 33.8969
45.685346014, 96.390, 1037.0, 32.2025
45.711606580, 96.390, 1101.0, 33.1813
45.737867145, 96.390, 1101.0, 33.1813
45.764127710, 96.390, 1034.0, 32.1559
45.790388276, 96.390, 991.0, 31.4802
45.816648841, 96.390, 1041.0, 32.2645
45.842909406, 96.390, 998.0, 31.5911
45.869169972, 96.390, 1008.0, 31.7490
45.895430537, 96.390, 954.0, 30.8869
45.921691103, 96.390, 975.0, 31.2250
45.947951668, 96.390, 996.0, 31.5595
45.974212233, 96.390, 960.0, 30.9839
46.000472799, 96.390, 934.0, 30.5614
46.026733364, 96.390, 960.0, 30.9839
46.052993929, 96.390, 994.0, 31.5278
46.079254495, 96.390, 963.0, 31.0322
46.105515060, 96.390, 1002.0, 31.6544
46.131775625, 96.390, 1005.0, 31.7017
46.158036191, 96.390, 1051.0, 32.4191
46.184296756, 96.390, 986.0, 31.4006
46.210557321, 96.390, 1107.0, 33.2716
46.236817887, 96.390, 1097.0, 33.1210
46.263078452, 96.390, 1199.0, 34.6266
46.289339017, 96.390, 1207.0, 34.7419
46.315599583, 96.390, 1020.0, 31.9374
46.341860148, 96.390, 1017.0, 31.8904
46.368120714, 96.390, 1050.0, 32.4037
46.394381279, 96.390, 1121.0, 33.4813
46.420641844, 96.390, 1031.0, 32.1092
46.446902410, 96.390, 1016.0, 31.8748
46.473162975, 96.390, 989.0, 31.4484
46.499423540, 96.390, 999.0, 31.6070
46.525684106, 96.390, 969.0, 31.1288
46.551944671, 96.390, 1037.0, 32.2025
46.578205236, 96.390, 1004.0, 31.6860
46.604465802, 96.390, 927.0, 30.4467
46.630726367, 96.390, 1042.0, 32.2800
46.656986932, 96.390, 1037.0, 32.2025
46.683247498, 96.390, 1048.0, 32.3728
46.709508063, 96.390, 1064.0, 32.6190
46.735768629, 96.390, 1083.0, 32.9090
46.762029194, 96.390, 1225.0, 35.0000
46.788289759, 96.390, 1248.0, 35.3270
46.814550325, 96.390, 1273.0, 35.6791
46.840810890, 96.390, 1424.0, 37.7359
46.867071455, 96.390, 1466.0, 38.2884
46.893332021, 96.390, 1554.0, 39.4208
46.919592586, 96.390, 1716.0, 41.4246
46.945853151, 96.390, 1863.0, 43.1625
46.972113717, 96.390, 2009.0, 44.8219
46.998374282, 96.390, 2098.0, 45.8039
47.024634847, 96.390, 2030.0, 45.0555
47.050895413, 96.390, 1916.0, 43.7721
47.077155978, 96.390, 1884.0, 43.4051
47.103416543, 96.390, 1887.0, 43.4396
47.129677109, 96.390, 1859.0, 43.1161
47.155937674, 96.390, 1745.0, 41.7732
47.182198240, 96.390, 1626.0, 40.3237
47.208458805, 96.390, 1569.0, 39.6106
47.234719370, 96.390, 1620.0, 40.2492
47.260979936, 96.390, 1565.0, 39.5601
47.287240501, 96.390, 1534.0, 39.1663
47.313501066, 96.390, 1541.0, 39.2556
47.339761632, 96.390, 1600.0, 40.0000
47.366022197, 96.390, 1430.0, 37.8153
47.392282762, 96.390, 1409.0, 37.5366
47.418543328, 96.390, 1370.0, 37.0135
47.444803893, 96.390, 1338.0, 36.5787
47.471064458, 96.390, 1306.0, 36.1386
47.497325024, 96.390, 1189.0, 34.4819
47.523585589, 96.390, 1142.0, 33.7935
47.549846155, 96.390, 1142.0, 33.7935
47.576106720, 96.390, 981.0, 31.3209
47.602367285, 96.390, 947.0, 30.7734
47.628627851, 96.390, 876.0, 29.5973
47.654888416, 96.390, 892.0, 29.8664
47.681148981, 96.390, 872.0, 29.5296
47.707409547, 96.390, 857.0, 29.2746
47.733670112, 96.390, 837.0, 28.9310
47.759930677, 96.390, 776.0, 27.8568
47.786191243, 96.390, 838.0, 28.9482
47.812451808, 96.390, 889.0, 29.8161
47.838712373, 96.390, 893.0, 29.8831
47.864972939, 96.390, 917.0, 30.2820
47.891233504, 96.390, 960.0, 30.9839
47.917494069, 96.390, 981.0, 31.3209
47.943754635, 96.390, 1017.0, 31.8904
47.970015200, 96.390, 1007.0, 31.7333
47.996275766, 96.390, 998.0, 31.5911
48.022536331, 96.390, 1014.0, 31.8434
48.048796896, 96.390, 1051.0, 32.4191
48.075057462, 96.390, 1057.0, 32.5115
48.101318027, 96.390, 1132.0, 33.6452
48.127578592, 96.390, 1137.0, 33.7194
48.153839158, 96.390, 1178.0, 34.3220
48.180099723, 96.390, 1090.0, 33.0151
48.206360288, 96.390, 1093.0, 33.0606
48.232620854, 96.390, 1063.0, 32.6037
48.258881419, 96.390, 1038.0, 32.2180
48.285141984, 96.390, 1056.0, 32.4962
48.311402550, 96.390, 942.0, 30.6920
48.337663115, 96.390, 878.0, 29.6311
48.363923681, 96.390, 917.0, 30.2820
48.390184246, 96.390, 865.0, 29.4109
48.416444811, 96.390, 870.0, 29.4958
48.442705377, 96.390, 951.0, 30.8383
48.468965942, 96.390, 1011.0, 31.7962
48.495226507, 96.390, 1049.0, 32.3883
48.521487073, 96.390, 1127.0, 33.5708
48.547747638, 96.390, 1021.0, 31.9531
48.574008203, 96.390, 949.0, 30.8058
48.600268769, 96.390, 871.0, 29.5127
48.626529334, 96.390, 977.0, 31.2570
48.652789899, 96.390, 937.0, 30.6105
48.679050465, 96.390, 896.0, 29.9333
48.705311030, 96.390, 788.0, 28.0713
48.731571595, 96.390, 814.0, 28.5307
48.757832161, 96.390, 785.0, 28.0179
48.784092726, 96.390, 780.0, 27.9285
48.810353292, 96.390, 776.0, 27.8568
48.836613857, 96.390, 784.0, 28.0000
48.862874422, 96.390, 801.0, 28.3019
48.889134988, 96.390, 772.0, 27.7849
48.915395553, 96.390, 771.0, 27.7669
48.941656118, 96.390, 785.0, 28.0179
48.967916684, 96.390, 751.0, 27.4044
48.994177249, 96.390, 851.0, 29.1719
49.020437814, 96.390, 865.0, 29.4109
49.046698380, 96.390, 869.0, 29.4788
49.072958945, 96.390, 895.0, 29.9166
49.099219510, 96.390, 871.0, 29.5127
49.125480076, 96.390, 871.0, 29.5127
49.151740641, 96.390, 861.0, 29.3428
49.178001207, 96.390, 910.0, 30.1662
49.204261772, 96.390, 836.0, 28.9137
49.230522337, 96.390, 826.0, 28.7402
49.256782903, 96.390, 836.0, 28.9137
49.283043468, 96.390, 829.0, 28.7924
49.309304033, 96.390, 778.0, 27.8927
49.335564599, 96.390, 802.0, 28.3196
49.361825164, 96.390, 809.0, 28.4429
49.388085729, 96.390, 799.0, 28.2666
49.414346295, 96.390, 779.0, 27.9106
49.440606860, 96.390, 739.0, 27.1846
49.466867425, 96.390, 805.0, 28.3725
49.493127991, 96.390, 797.0, 28.2312
49.519388556, 96.390, 824.0, 28.7054
49.545649121, 96.390, 748.0, 27.3496
49.571909687, 96.390, 798.0, 28.2489
49.598170252, 96.390, 758.0, 27.5318
49.624430818, 96.390, 770.0, 27.7489
49.650691383, 96.390, 797.0, 28.2312
49.676951948, 96.390, 845.0, 29.0689
49.703212514, 96.390, 894.0, 29.8998
49.729473079, 96.390, 891.0, 29.8496
49.755733644, 96.390, 881.0, 29.6816
49.781994210, 96.390, 882.0, 29.6985
49.808254775, 96.390, 843.0, 29.0345
49.834515340, 96.390, 829.0, 28.7924
49.860775906, 96.390, 774.0, 27.8209
49.887036471, 96.390, 812.0, 28.4956
49.913297036, 96.390, 838.0, 28.9482
49.939557602, 96.390, 849.0, 29.1376
49.965818167, 96.390, 749.0, 27.3679
49.992078733, 96.390, 751.0, 27.4044
50.018339298, 96.390, 786.0, 28.0357
50.044599863, 96.390, 739.0, 27.1846
50.070860429, 96.390, 839.0, 28.9655
50.097120994, 96.390, 770.0, 27.7489
50.123381559, 96.390, 792.0, 28.1425
50.149642125, 96.390, 817.0, 28.5832
50.175902690, 96.390, 945.0, 30.7409
50.202163255, 96.390, 1003.0, 31.6702
50.228423821, 96.390, 1157.0, 34.0147
50.254684386, 96.390, 1137.0, 33.7194
50.280944951, 96.390, 1118.0, 33.4365
50.307205517, 96.390, 967.0, 31.0966
50.333466082, 96.390, 951.0, 30.8383
50.359726647, 96.390, 1007.0, 31.7333
50.385987213, 96.390, 1033.0, 32.1403
50.412247778, 96.390, 984.0, 31.3688
50.438508344, 96.390, 936.0, 30.5941
50.464768909, 96.390, 973.0, 31.1929
50.491029474, 96.390, 944.0, 30.7246
50.517290040, 96.390, 911.0, 30.1828
50.543550605, 96.390, 889.0, 29.8161
50.569811170, 96.390, 897.0, 29.9500
50.596071736, 96.390, 926.0, 30.4302
50.622332301, 96.390, 827.0, 28.7576
50.648592866, 96.390, 831.0, 28.8271
50.674853432, 96.390, 833.0, 28.8617
50.701113997, 96.390, 795.0, 28.1957
50.727374562, 96.390, 768.0, 27.7128
50.753635128, 96.390, 742.0, 27.2397
50.779895693, 96.390, 743.0, 27.2580
50.806156258, 96.390, 726.0, 26.9444
50.832416824, 96.390, 715.0, 26.7395
50.858677389, 96.390, 732.0, 27.0555
50.884937955, 96.390, 753.0, 27.4408
50.911198520, 96.390, 782.0, 27.9643
50.937459085, 96.390, 754.0, 27.4591
50.963719651, 96.390, 763.0, 27.6225
50.989980216, 96.390, 725.0, 26.9258
51.016240781, 96.390, 772.0, 27.7849
51.042501347, 96.390, 759.0, 27.5500
51.068761912, 96.390, 735.0, 27.1109
51.095022477, 96.390, 780.0, 27.9285
51.121283043, 96.390, 791.0, 28.1247
51.147543608, 96.390, 802.0, 28.3196
51.173804173, 96.390, 834.0, 28.8791
51.200064739, 96.390, 893.0, 29.8831
51.226325304, 96.390, 936.0, 30.5941
51.252585870, 96.390, 925.0, 30.4138
51.278846435, 96.390, 829.0, 28.7924
51.305107000, 96.390, 781.0, 27.9464
51.331367566, 96.390, 799.0, 28.2666
51.357628131, 96.390, 800.0, 28.2843
51.383888696, 96.390, 775.0, 27.8388
51.410149262, 96.390, 814.0, 28.5307
51.436409827, 96.390, 773.0, 27.8029
51.462670392, 96.390, 732.0, 27.0555
51.488930958, 96.390, 752.0, 27.4226
51.515191523, 96.390, 807.0, 28.4077
51.541452088, 96.390, 741.0, 27.2213
51.567712654, 96.390, 730.0, 27.0185
51.593973219, 96.390, 779.0, 27.9106
51.620233784, 96.390, 778.0, 27.8927
51.646494350, 96.390, 779.0, 27.9106
51.672754915, 96.390, 828.0, 28.7750
51.699015481, 96.390, 748.0, 27.3496
51.725276046, 96.390, 859.0, 29.3087
51.751536611, 96.390, 928.0, 30.4631
51.777797177, 96.390, 882.0, 29.6985
51.804057742, 96.390, 980.0, 31.3050
51.830318307, 96.390, 1039.0, 32.2335
51.856578873, 96.390, 1058.0, 32.5269
51.882839438, 96.390, 1088.0, 32.9848
51.909100003, 96.390, 1158.0, 34.0294
51.935360569, 96.390, 1214.0, 34.8425
51.961621134, 96.390, 1236.0, 35.1568
51.987881699, 96.390, 1217.0, 34.8855
52.014142265, 96.390, 1221.0, 34.9428
52.040402830, 96.390, 1232.0, 35.0999
52.066663396, 96.390, 1188.0, 34.4674
52.092923961, 96.390, 1351.0, 36.7560
52.119184526, 96.390, 1304.0, 36.1109
52.145445092, 96.390, 1403.0, 37.4566
52.171705657, 96.390, 1568.0, 39.5980
52.197966222, 96.390, 1515.0, 38.9230
52.224226788, 96.390, 1552.0, 39.3954
52.250487353, 96.390, 1449.0, 38.0657
52.276747918, 96.390, 1495.0, 38.6652
52.303008484, 96.390, 1455.0, 38.1445
52.329269049, 96.390, 1406.0, 37.4967
52.355529614, 96.390, 1350.0, 36.7423
52.381790180, 96.390, 1241.0, 35.2278
52.408050745, 96.390, 1301.0, 36.0694
52.434311310, 96.390, 1311.0, 36.2077
52.460571876, 96.390, 1240.0, 35.2136
52.486832441, 96.390, 1207.0, 34.7419
52.513093007, 96.390, 1202.0, 34.6699
52.539353572, 96.390, 1225.0, 35.0000
52.565614137, 96.390, 1370.0, 37.0135
52.591874703, 96.390, 1393.0, 37.3229
52.618135268, 96.390, 1477.0, 38.4318
52.644395833, 96.390, 1545.0, 39.3065
52.670656399, 96.390, 1455.0, 38.1445
52.696916964, 96.390, 1442.0, 37.9737
52.723177529, 96.390, 1426.0, 37.7624
52.749438095, 96.390, 1381.0, 37.1618
52.775698660, 96.390, 1378.0, 37.1214
52.801959225, 96.390, 1285.0, 35.8469
52.828219791, 96.390, 1316.0, 36.2767
52.854480356, 96.390, 1352.0, 36.7696
52.880740922, 96.390, 1296.0, 36.0000
52.907001487, 96.390, 1281.0, 35.7911
52.933262052, 96.390, 1306.0, 36.1386
52.959522618, 96.390, 1278.0, 35.7491
52.985783183, 96.390, 1370.0, 37.0135
53.012043748, 96.390, 1447.0, 38.0395
53.038304314, 96.390, 1564.0, 39.5474
53.064564879, 96.390, 1572.0, 39.6485
53.090825444, 96.390, 1534.0, 39.1663
53.117086010, 96.390, 1636.0, 40.4475
53.143346575, 96.390, 1673.0, 40.9023
53.169607140, 96.390, 1703.0, 41.2674
53.195867706, 96.390, 1727.0, 41.5572
53.222128271, 96.390, 1696.0, 41.1825
53.248388836, 96.390, 1557.0, 39.4588
53.274649402, 96.390, 1511.0, 38.8716
53.300909967, 96.390, 1472.0, 38.3667
53.327170533, 96.390, 1303.0, 36.0971
53.353431098, 96.390, 1352.0, 36.7696
53.379691663, 96.390, 1254.0, 35.4119
53.405952229, 96.390, 1221.0, 34.9428
53.432212794, 96.390, 1203.0, 34.6843
53.458473359, 96.390, 1112.0, 33.3467
53.484733925, 96.390, 1133.0, 33.6601
53.510994490, 96.390, 1114.0, 33.3766
53.537255055, 96.390, 998.0, 31.5911
53.563515621, 96.390, 1023.0, 31.9844
53.589776186, 96.390, 1014.0, 31.8434
53.616036751, 96.390, 1009.0, 31.7648
53.642297317, 96.390, 888.0, 29.7993
53.668557882, 96.390, 936.0, 30.5941
53.694818448, 96.390, 850.0, 29.1548
53.721079013, 96.390, 822.0, 28.6705
53.747339578, 96.390, 814.0, 28.5307
53.773600144, 96.390, 816.0, 28.5657
53.799860709, 96.390, 723.0, 26.8887
53.826121274, 96.390, 798.0, 28.2489
53.852381840, 96.390, 794.0, 28.1780
53.878642405, 96.390, 748.0, 27.3496
53.904902970, 96.390, 772.0, 27.7849
53.931163536, 96.390, 733.0, 27.0740
53.957424101, 96.390, 770.0, 27.7489
53.983684666, 96.390, 752.0, 27.4226
54.009945232, 96.390, 771.0, 27.7669
54.036205797, 96.390, 747.0, 27.3313
54.062466362, 96.390, 779.0, 27.9106
54.088726928, 96.390, 905.0, 30.0832
54.114987493, 96.390, 903.0, 30.0500
54.141248059, 96.390, 944.0, 30.7246
54.167508624, 96.390, 1054.0, 32.4654
54.193769189, 96.390, 986.0, 31.4006
54.220029755, 96.390, 974.0, 31.2090
54.246290320, 96.390, 974.0, 31.2090
54.272550885, 96.390, 1055.0, 32.4808
54.298811451, 96.390, 1175.0, 34.2783
54.325072016, 96.390, 1212.0, 34.8138
54.351332581, 96.390, 1221.0, 34.9428
54.377593147, 96.390, 1129.0, 33.6006
54.403853712, 96.390, 1092.0, 33.0454
54.430114277, 96.390, 1032.0, 32.1248
54.456374843, 96.390, 1020.0, 31.9374
54.482635408, 96.390, 943.0, 30.7083
54.508895973, 96.390, 999.0, 31.6070
54.535156539, 96.390, 903.0, 30.0500
54.561417104, 96.390, 881.0, 29.6816
54.587677670, 96.390, 805.0, 28.3725
54.613938235, 96.390, 767.0, 27.6948
54.640198800, 96.390, 704.0, 26.5330
54.666459366, 96.390, 729.0, 27.0000
54.692719931, 96.390, 708.0, 26.6083
54.718980496, 96.390, 761.0, 27.5862
54.745241062, 96.390, 690.0, 26.2679
54.771501627, 96.390, 642.0, 25.3377
54.797762192, 96.390, 616.0, 24.8193
54.824022758, 96.390, 697.0, 26.4008
54.850283323, 96.390, 683.0, 26.1343
54.876543888, 96.390, 692.0, 26.3059
54.902804454, 96.390, 639.0, 25.2784
54.929065019, 96.390, 670.0, 25.8844
54.955325585, 96.390, 669.0, 25.8650
54.981586150, 96.390, 672.0, 25.9230
55.007846715, 96.390, 659.0, 25.6710
55.034107281, 96.390, 645.0, 25.3969
55.060367846, 96.390, 685.0, 26.1725
55.086628411, 96.390, 643.0, 25.3574
55.112888977, 96.390, 689.0, 26.2488
55.139149542, 96.390, 613.0, 24.7588
55.165410107, 96.390, 621.0, 24.9199
55.191670673, 96.390, 653.0, 25.5539
55.217931238, 96.390, 641.0, 25.3180
55.244191803, 96.390, 616.0, 24.8193
55.270452369, 96.390, 678.0, 26.0384
55.296712934, 96.390, 674.0, 25.9615
55.322973499, 96.390, 687.0, 26.2107
55.349234065, 96.390, 672.0, 25.9230
55.375494630, 96.390, 720.0, 26.8328
55.401755196, 96.390, 656.0, 25.6125
55.428015761, 96.390, 670.0, 25.8844
55.454276326, 96.390, 717.0, 26.7769
55.480536892, 96.390, 686.0, 26.1916
55.506797457, 96.390, 680.0, 26.0768
55.533058022, 96.390, 678.0, 26.0384
55.559318588, 96.390, 795.0, 28.1957
55.585579153, 96.390, 818.0, 28.6007
55.611839718, 96.390, 830.0, 28.8097
55.638100284, 96.390, 757.0, 27.5136
55.664360849, 96.390, 717.0, 26.7769
55.690621414, 96.390, 745.0, 27.2947
55.716881980, 96.390, 736.0, 27.1293
55.743142545, 96.390, 792.0, 28.1425
55.769403111, 96.390, 787.0, 28.0535
55.795663676, 96.390, 777.0, 27.8747
55.821924241, 96.390, 738.0, 27.1662
55.848184807, 96.390, 712.0, 26.6833
55.874445372, 96.390, 715.0, 26.7395
55.900705937, 96.390, 731.0, 27.0370
55.926966503, 96.390, 745.0, 27.2947
55.953227068, 96.390, 733.0, 27.0740
55.979487633, 96.390, 751.0, 27.4044
56.005748199, 96.390, 740.0, 27.2029
56.032008764, 96.390, 728.0, 26.9815
56.058269329, 96.390, 728.0, 26.9815
56.084529895, 96.390, 709.0, 26.6271
56.110790460, 96.390, 728.0, 26.9815
56.137051025, 96.390, 763.0, 27.6225
56.163311591, 96.390, 762.0, 27.6043
56.189572156, 96.390, 787.0, 28.0535
56.215832722, 96.390, 719.0, 26.8142
56.242093287, 96.390, 697.0, 26.4008
56.268353852, 96.390, 759.0, 27.5500
56.294614418, 96.390, 714.0, 26.7208
56.320874983, 96.390, 738.0, 27.1662
56.347135548, 96.390, 711.0, 26.6646
56.373396114, 96.390, 765.0, 27.6586
56.399656679, 96.390, 732.0, 27.0555
56.425917244, 96.390, 773.0, 27.8029
56.452177810, 96.390, 817.0, 28.5832
56.478438375, 96.390, 844.0, 29.0517
56.504698940, 96.390, 856.0, 29.2575
56.530959506, 96.390, 869.0, 29.4788
56.557220071, 96.390, 839.0, 28.9655
56.583480637, 96.390, 871.0, 29.5127
56.609741202, 96.390, 864.0, 29.3939
56.636001767, 96.390, 858.0, 29.2916
56.662262333, 96.390, 835.0, 28.8964
56.688522898, 96.390, 786.0, 28.0357
56.714783463, 96.390, 794.0, 28.1780
56.741044029, 96.390, 750.0, 27.3861
56.767304594, 96.390, 727.0, 26.9629
56.793565159, 96.390, 719.0, 26.8142
56.819825725, 96.390, 789.0, 28.0891
56.846086290, 96.390, 727.0, 26.9629
56.872346855, 96.390, 750.0, 27.3861
56.898607421, 96.390, 702.0, 26.4953
56.924867986, 96.390, 762.0, 27.6043
56.951128551, 96.390, 704.0, 26.5330
56.977389117, 96.390, 689.0, 26.2488
57.003649682, 96.390, 702.0, 26.4953
57.029910248, 96.390, 705.0, 26.5518
57.056170813, 96.390, 720.0, 26.8328
57.082431378, 96.390, 742.0, 27.2397
57.108691944, 96.390, 725.0, 26.9258
57.134952509, 96.390, 690.0, 26.2679
57.161213074, 96.390, 718.0, 26.7955
57.187473640, 96.390, 755.0, 27.4773
57.213734205, 96.390, 749.0, 27.3679
57.239994770, 96.390, 700.0, 26.4575
57.266255336, 96.390, 743.0, 27.2580
57.292515901, 96.390, 748.0, 27.3496
57.318776466, 96.390, 708.0, 26.6083
57.345037032, 96.390, 734.0, 27.0924
57.371297597, 96.390, 773.0, 27.8029
57.397558163, 96.390, 751.0, 27.4044
57.423818728, 96.390, 788.0, 28.0713
57.450079293, 96.390, 794.0, 28.1780
57.476339859, 96.390, 874.0, 29.5635
57.502600424, 96.390, 868.0, 29.4618
57.528860989, 96.390, 955.0, 30.9031
57.555121555, 96.390, 949.0, 30.8058
57.581382120, 96.390, 946.0, 30.7571
57.607642685, 96.390, 992.0, 31.4960
57.633903251, 96.390, 899.0, 29.9833
57.660163816, 96.390, 907.0, 30.1164
57.686424381, 96.390, 883.0, 29.7153
57.712684947, 96.390, 882.0, 29.6985
57.738945512, 96.390, 903.0, 30.0500
57.765206077, 96.390, 882.0, 29.6985
57.791466643, 96.390, 835.0, 28.8964
57.817727208, 96.390, 777.0, 27.8747
57.843987774, 96.390, 816.0, 28.5657
57.870248339, 96.390, 822.0, 28.6705
57.896508904, 96.390, 841.0, 29.0000
57.922769470, 96.390, 855.0, 29.2404
57.949030035, 96.390, 809.0, 28.4429
57.975290600, 96.390, 893.0, 29.8831
58.001551166, 96.390, 962.0, 31.0161
58.027811731, 96.390, 1055.0, 32.4808
58.054072296, 96.390, 1141.0, 33.7787
58.080332862, 96.390, 1140.0, 33.7639
58.106593427, 96.390, 1142.0, 33.7935
58.132853992, 96.390, 972.0, 31.1769
58.159114558, 96.390, 1013.0, 31.8277
58.185375123, 96.390, 1015.0, 31.8591
58.211635689, 96.390, 1035.0, 32.1714
58.237896254, 96.390, 975.0, 31.2250
58.264156819, 96.390, 865.0, 29.4109
58.290417385, 96.390, 852.0, 29.1890
58.316677950, 96.390, 804.0, 28.3549
58.342938515, 96.390, 837.0, 28.9310
58.369199081, 96.390, 803.0, 28.3373
58.395459646, 96.390, 754.0, 27.4591
58.421720211, 96.390, 764.0, 27.6405
58.447980777, 96.390, 811.0, 28.4781
58.474241342, 96.390, 714.0, 26.7208
58.500501907, 96.390, 840.0, 28.9828
58.526762473, 96.390, 796.0, 28.2135
58.553023038, 96.390, 876.0, 29.5973
58.579283603, 96.390, 961.0, 31.0000
58.605544169, 96.390, 958.0, 30.9516
58.631804734, 96.390, 986.0, 31.4006
58.658065300, 96.390, 898.0, 29.9666
58.684325865, 96.390, 866.0, 29.4279
58.710586430, 96.390, 856.0, 29.2575
58.736846996, 96.390, 867.0, 29.4449
58.763107561, 96.390, 863.0, 29.3769
58.789368126, 96.390, 823.0, 28.6880
58.815628692, 96.390, 803.0, 28.3373
58.841889257, 96.390, 763.0, 27.6225
58.868149822, 96.390, 796.0, 28.2135
58.894410388, 96.390, 730.0, 27.0185
58.920670953, 96.390, 732.0, 27.0555
58.946931518, 96.390, 706.0, 26.5707
58.973192084, 96.390, 752.0, 27.4226
58.999452649, 96.390, 726.0, 26.9444
59.025713214, 96.390, 727.0, 26.9629
59.051973780, 96.390, 701.0, 26.4764
59.078234345, 96.390, 676.0, 26.0000
59.104494911, 96.390, 635.0, 25.1992
59.130755476, 96.390, 701.0, 26.4764
59.157016041, 96.390, 720.0, 26.8328
59.183276607, 96.390, 671.0, 25.9037
59.209537172, 96.390, 760.0, 27.5681
59.235797737, 96.390, 737.0, 27.1477
59.262058303, 96.390, 743.0, 27.2580
59.288318868, 96.390, 784.0, 28.0000
59.314579433, 96.390, 751.0, 27.4044
59.340839999, 96.390, 727.0, 26.9629
59.367100564, 96.390, 687.0, 26.2107
59.393361129, 96.390, 707.0, 26.5895
59.419621695, 96.390, 643.0, 25.3574
59.445882260, 96.390, 683.0, 26.1343
59.472142826, 96.390, 699.0, 26.4386
59.498403391, 96.390, 666.0, 25.8070
59.524663956, 96.390, 609.0, 24.6779
59.550924522, 96.390, 668.0, 25.8457
59.577185087, 96.390, 682.0, 26.1151
59.603445652, 96.390, 658.0, 25.6515
59.629706218, 96.390, 687.0, 26.2107
59.655966783, 96.390, 635.0, 25.1992
59.682227348, 96.390, 700.0, 26.4575
59.708487914, 96.390, 686.0, 26.1916
59.734748479, 96.390, 711.0, 26.6646
59.761009044, 96.390, 677.0, 26.0192
59.787269610, 96.390, 703.0, 26.5141
59.813530175, 96.390, 706.0, 26.5707
59.839790740, 96.390, 690.0, 26.2679
59.866051306, 96.390, 710.0, 26.6458
59.892311871, 96.390, 669.0, 25.8650
59.918572437, 96.390, 674.0, 25.9615
59.944833002, 96.390, 739.0, 27.1846
59.971093567, 96.390, 784.0, 28.0000
59.997354133, 96.390, 758.0, 27.5318
60.023614698, 96.390, 751.0, 27.4044
60.049875263, 96.390, 738.0, 27.1662
60.076135829, 96.390, 825.0, 28.7228
60.102396394, 96.390, 797.0, 28.2312
60.128656959, 96.390, 798.0, 28.2489
60.154917525, 96.390, 856.0, 29.2575
60.181178090, 96.390, 811.0, 28.4781
60.207438655, 96.390, 835.0, 28.8964
60.233699221, 96.390, 812.0, 28.4956
60.259959786, 96.390, 888.0, 29.7993
60.286220352, 96.390, 850.0, 29.1548
60.312480917, 96.390, 790.0, 28.1069
60.338741482, 96.390, 787.0, 28.0535
60.365002048, 96.390, 740.0, 27.2029
60.391262613, 96.390, 759.0, 27.5500
60.417523178, 96.390, 775.0, 27.8388
60.443783744, 96.390, 748.0, 27.3496
60.470044309, 96.390, 810.0, 28.4605
60.496304874, 96.390, 772.0, 27.7849
60.522565440, 96.390, 732.0, 27.0555
60.548826005, 96.390, 819.0, 28.6182
60.575086570, 96.390, 854.0, 29.2233
60.601347136, 96.390, 850.0, 29.1548
60.627607701, 96.390, 913.0, 30.2159
60.653868266, 96.390, 927.0, 30.4467
60.680128832, 96.390, 969.0, 31.1288
60.706389397, 96.390, 1073.0, 32.7567
60.732649963, 96.390, 1157.0, 34.0147
60.758910528, 96.390, 1266.0, 35.5809
60.785171093, 96.390, 1458.0, 38.1838
60.811431659, 96.390, 1554.0, 39.4208
60.837692224, 96.390, 1554.0, 39.4208
60.863952789, 96.390, 1412.0, 37.5766
60.890213355, 96.390, 1371.0, 37.0270
60.916473920, 96.390, 1268.0, 35.6090
60.942734485, 96.390, 1214.0, 34.8425
60.968995051, 96.390, 1176.0, 34.2929
60.995255616, 96.390, 1196.0, 34.5832
61.021516181, 96.390, 1078.0, 32.8329
61.047776747, 96.390, 1019.0, 31.9218
61.074037312, 96.390, 921.0, 30.3480
61.100297878, 96.390, 810.0, 28.4605
61.126558443, 96.390, 779.0, 27.9106
61.152819008, 96.390, 757.0, 27.5136
61.179079574, 96.390, 782.0, 27.9643
61.205340139, 96.390, 800.0, 28.2843
61.231600704, 96.390, 755.0, 27.4773
61.257861270, 96.390, 777.0, 27.8747
61.284121835, 96.390, 735.0, 27.1109
61.310382400, 96.390, 742.0, 27.2397
61.336642966, 96.390, 766.0, 27.6767
61.362903531, 96.390, 724.0, 26.9072
61.389164096, 96.390, 745.0, 27.2947
61.415424662, 96.390, 765.0, 27.6586
61.441685227, 96.390, 741.0, 27.2213
61.467945792, 96.390, 791.0, 28.1247
61.494206358, 96.390, 835.0, 28.8964
61.520466923, 96.390, 856.0, 29.2575
61.546727489, 96.390, 751.0, 27.4044
61.572988054, 96.390, 669.0, 25.8650
61.599248619, 96.390, 786.0, 28.0357
61.625509185, 96.390, 694.0, 26.3439
61.651769750, 96.390, 745.0, 27.2947
61.678030315, 96.390, 778.0, 27.8927
61.704290881, 96.390, 788.0, 28.0713
61.730551446, 96.390, 742.0, 27.2397
61.756812011, 96.390, 763.0, 27.6225
61.783072577, 96.390, 740.0, 27.2029
61.809333142, 96.390, 813.0, 28.5132
61.835593707, 96.390, 827.0, 28.7576
61.861854273, 96.390, 817.0, 28.5832
61.888114838, 96.390, 849.0, 29.1376
61.914375404, 96.390, 875.0, 29.5804
61.940635969, 96.390, 936.0, 30.5941
61.966896534, 96.390, 916.0, 30.2655
61.993157100, 96.390, 972.0, 31.1769
62.019417665, 96.390, 994.0, 31.5278
62.045678230, 96.390, 1091.0, 33.0303
62.071938796, 96.390, 1185.0, 34.4238
62.098199361, 96.390, 1181.0, 34.3657
62.124459926, 96.390, 1328.0, 36.4417
62.150720492, 96.390, 1353.0, 36.7831
62.176981057, 96.390, 1382.0, 37.1753
62.203241622, 96.390, 1369.0, 37.0000
62.229502188, 96.390, 1391.0, 37.2961
62.255762753, 96.390, 1212.0, 34.8138
62.282023318, 96.390, 1207.0, 34.7419
62.308283884, 96.390, 1218.0, 34.8999
62.334544449, 96.390, 1124.0, 33.5261
62.360805015, 96.390, 1107.0, 33.2716
62.387065580, 96.390, 992.0, 31.4960
62.413326145, 96.390, 947.0, 30.7734
62.439586711, 96.390, 855.0, 29.2404
62.465847276, 96.390, 794.0, 28.1780
62.492107841, 96.390, 819.0, 28.6182
62.518368407, 96.390, 794.0, 28.1780
62.544628972, 96.390, 727.0, 26.9629
62.570889537, 96.390, 695.0, 26.3629
62.597150103, 96.390, 700.0, 26.4575
62.623410668, 96.390, 741.0, 27.2213
62.649671233, 96.390, 798.0, 28.2489
62.675931799, 96.390, 797.0, 28.2312
62.702192364, 96.390, 818.0, 28.6007
62.728452930, 96.390, 828.0, 28.7750
62.754713495, 96.390, 763.0, 27.6225
62.780974060, 96.390, 801.0, 28.3019
62.807234626, 96.390, 719.0, 26.8142
62.833495191, 96.390, 759.0, 27.5500
62.859755756, 96.390, 681.0, 26.0960
62.886016322, 96.390, 726.0, 26.9444
62.912276887, 96.390, 650.0, 25.4951
62.938537452, 96.390, 628.0, 25.0599
62.964798018, 96.390, 640.0, 25.2982
62.991058583, 96.390, 599.0, 24.4745
63.017319148, 96.390, 567.0, 23.8118
63.043579714, 96.390, 532.0, 23.0651
63.069840279, 96.390, 572.0, 23.9165
63.096100844, 96.390, 555.0, 23.5584
63.122361410, 96.390, 559.0, 23.6432
63.148621975, 96.390, 545.0, 23.3452
63.174882541, 96.390, 578.0, 24.0416
63.201143106, 96.390, 564.0, 23.7487
63.227403671, 96.390, 632.0, 25.1396
63.253664237, 96.390, 622.0, 24.9399
63.279924802, 96.390, 614.0, 24.7790
63.306185367, 96.390, 602.0, 24.5357
63.332445933, 96.390, 662.0, 25.7294
63.358706498, 96.390, 660.0, 25.6905
63.384967063, 96.390, 708.0, 26.6083
63.411227629, 96.390, 627.0, 25.0400
63.437488194, 96.390, 661.0, 25.7099
63.463748759, 96.390, 683.0, 26.1343
63.490009325, 96.390, 686.0, 26.1916
63.516269890, 96.390, 733.0, 27.0740
63.542530455, 96.390, 782.0, 27.9643
63.568791021, 96.390, 741.0, 27.2213
63.595051586, 96.390, 822.0, 28.6705
63.621312152, 96.390, 922.0, 30.3645
63.647572717, 96.390, 1007.0, 31.7333
63.673833282, 96.390, 1022.0, 31.9687
63.700093848, 96.390, 1142.0, 33.7935
63.726354413, 96.390, 1254.0, 35.4119
63.752614978, 96.390, 1271.0, 35.6511
63.778875544, 96.390, 1403.0, 37.4566
63.805136109, 96.390, 1495.0, 38.6652
63.831396674, 96.390, 1346.0, 36.6879
63.857657240, 96.390, 1404.0, 37.4700
63.883917805, 96.390, 1290.0, 35.9166
63.910178370, 96.390, 1273.0, 35.6791
63.936438936, 96.390, 1244.0, 35.2704
63.962699501, 96.390, 1236.0, 35.1568
63.988960067, 96.390, 1205.0, 34.7131
64.015220632, 96.390, 1039.0, 32.2335
64.041481197, 96.390, 1052.0, 32.4345
64.067741763, 96.390, 996.0, 31.5595
64.094002328, 96.390, 925.0, 30.4138
64.120262893, 96.390, 902.0, 30.0333
64.146523459, 96.390, 867.0, 29.4449
64.172784024, 96.390, 935.0, 30.5778
64.199044589, 96.390, 976.0, 31.2410
64.225305155, 96.390, 883.0, 29.7153
64.251565720, 96.390, 1001.0, 31.6386
64.277826285, 96.390, 993.0, 31.5119
64.304086851, 96.390, 972.0, 31.1769
64.330347416, 96.390, 887.0, 29.7825
64.356607981, 96.390, 900.0, 30.0000
64.382868547, 96.390, 873.0, 29.5466
64.409129112, 96.390, 844.0, 29.0517
64.435389678, 96.390, 839.0, 28.9655
64.461650243, 96.390, 848.0, 29.1204
64.487910808, 96.390, 803.0, 28.3373
64.514171374, 96.390, 778.0, 27.8927
64.540431939, 96.390, 769.0, 27.7308
64.566692504, 96.390, 748.0, 27.3496
64.592953070, 96.390, 730.0, 27.0185
64.619213635, 96.390, 758.0, 27.5318
64.645474200, 96.390, 756.0, 27.4955
64.671734766, 96.390, 695.0, 26.3629
64.697995331, 96.390, 692.0, 26.3059
64.724255896, 96.390, 645.0, 25.3969
64.750516462, 96.390, 642.0, 25.3377
64.776777027, 96.390, 604.0, 24.5764
64.803037593, 96.390, 581.0, 24.1039
64.829298158, 96.390, 589.0, 24.2693
64.855558723, 96.390, 611.0, 24.7184
64.881819289, 96.390, 561.0, 23.6854
64.908079854, 96.390, 587.0, 24.2281
64.934340419, 96.390, 558.0, 23.6220
64.960600985, 96.390, 541.0, 23.2594
64.986861550, 96.390, 575.0, 23.9792
