[Measurement conditions]
Sample identification,Centroid20Oct21_Act27Oct21_B2_0714M_NaOH_LS0173_5
Comment - 1,"Configuration=Stage for Flat Samples/Holders, Owner=User-1, Creation date=7/1/2020 9:53:24 AM"
Comment - 2,"Goniometer=Theta/Theta; Minimum step size 2Theta:0.0001; Minimum step size Omega:0.0001"
Comment - 3,"Sample stage=Stage for flat samples/holders"
Comment - 4,"Diffractometer system=EMPYREAN"
Comment - 5,"Measurement program=X:\XRD\Cement\Zerobackground scan.xrdmp, Identifier={98A3B11C-88F9-4AA6-982C-73314A311EF5}"
Anode material,Cu
K-Alpha1 wavelength,1.5405980
K-Alpha2 wavelength,1.5444260
Ratio K-Alpha2/K-Alpha1,0.500
Divergence slit,Fixed,0.25
Monochromator used,NO
Generator voltage, 45
Tube current, 40
File date and time,29/Mar/2023 19:08
Unit cell,
h k l, 0 0 0
Scan axis,Gonio
Scan range,4.994599997,64.999991833
Scan step size,0.0262606
No. of points, 2285
Scan type,CONTINUOUS
Time per step,96.390
[Scan points]
Angle, TimePerStep, Intensity, ESD
5.007730280, 96.390, 3865.0, 62.1691
5.033990845, 96.390, 3748.0, 61.2209
5.060251411, 96.390, 3796.0, 61.6117
5.086511976, 96.390, 3861.0, 62.1369
5.112772541, 96.390, 3714.0, 60.9426
5.139033107, 96.390, 3771.0, 61.4085
5.165293672, 96.390, 3775.0, 61.4410
5.191554237, 96.390, 3676.0, 60.6300
5.217814803, 96.390, 3707.0, 60.8851
5.244075368, 96.390, 3692.0, 60.7618
5.270335934, 96.390, 3676.0, 60.6300
5.296596499, 96.390, 3652.0, 60.4318
5.322857064, 96.390, 3400.0, 58.3095
5.349117630, 96.390, 3750.0, 61.2372
5.375378195, 96.390, 3531.0, 59.4222
5.401638760, 96.390, 3581.0, 59.8415
5.427899326, 96.390, 3619.0, 60.1581
5.454159891, 96.390, 3534.0, 59.4475
5.480420456, 96.390, 3489.0, 59.0678
5.506681022, 96.390, 3497.0, 59.1354
5.532941587, 96.390, 3534.0, 59.4475
5.559202152, 96.390, 3509.0, 59.2368
5.585462718, 96.390, 3552.0, 59.5987
5.611723283, 96.390, 3404.0, 58.3438
5.637983849, 96.390, 3382.0, 58.1550
5.664244414, 96.390, 3468.0, 58.8897
5.690504979, 96.390, 3465.0, 58.8643
5.716765545, 96.390, 3477.0, 58.9661
5.743026110, 96.390, 3455.0, 58.7792
5.769286675, 96.390, 3419.0, 58.4722
5.795547241, 96.390, 3268.0, 57.1664
5.821807806, 96.390, 3394.0, 58.2580
5.848068371, 96.390, 3385.0, 58.1808
5.874328937, 96.390, 3335.0, 57.7495
5.900589502, 96.390, 3485.0, 59.0339
5.926850067, 96.390, 3297.0, 57.4195
5.953110633, 96.390, 3388.0, 58.2065
5.979371198, 96.390, 3400.0, 58.3095
6.005631763, 96.390, 3400.0, 58.3095
6.031892329, 96.390, 3272.0, 57.2014
6.058152894, 96.390, 3337.0, 57.7668
6.084413460, 96.390, 3275.0, 57.2276
6.110674025, 96.390, 3383.0, 58.1636
6.136934590, 96.390, 3324.0, 57.6541
6.163195156, 96.390, 3395.0, 58.2666
6.189455721, 96.390, 3321.0, 57.6281
6.215716286, 96.390, 3348.0, 57.8619
6.241976852, 96.390, 3387.0, 58.1979
6.268237417, 96.390, 3251.0, 57.0175
6.294497982, 96.390, 3259.0, 57.0877
6.320758548, 96.390, 3176.0, 56.3560
6.347019113, 96.390, 3207.0, 56.6304
6.373279678, 96.390, 3328.0, 57.6888
6.399540244, 96.390, 3284.0, 57.3062
6.425800809, 96.390, 3404.0, 58.3438
6.452061375, 96.390, 3315.0, 57.5760
6.478321940, 96.390, 3307.0, 57.5065
6.504582505, 96.390, 3230.0, 56.8331
6.530843071, 96.390, 3225.0, 56.7891
6.557103636, 96.390, 3260.0, 57.0964
6.583364201, 96.390, 3234.0, 56.8683
6.609624767, 96.390, 3114.0, 55.8032
6.635885332, 96.390, 3228.0, 56.8155
6.662145897, 96.390, 3220.0, 56.7450
6.688406463, 96.390, 3237.0, 56.8946
6.714667028, 96.390, 3214.0, 56.6922
6.740927593, 96.390, 3237.0, 56.8946
6.767188159, 96.390, 3202.0, 56.5862
6.793448724, 96.390, 3194.0, 56.5155
6.819709289, 96.390, 3240.0, 56.9210
6.845969855, 96.390, 3151.0, 56.1338
6.872230420, 96.390, 3133.0, 55.9732
6.898490986, 96.390, 3167.0, 56.2761
6.924751551, 96.390, 3180.0, 56.3915
6.951012116, 96.390, 3191.0, 56.4889
6.977272682, 96.390, 3185.0, 56.4358
7.003533247, 96.390, 3221.0, 56.7539
7.029793812, 96.390, 3165.0, 56.2583
7.056054378, 96.390, 3152.0, 56.1427
7.082314943, 96.390, 3185.0, 56.4358
7.108575508, 96.390, 3177.0, 56.3649
7.134836074, 96.390, 3248.0, 56.9912
7.161096639, 96.390, 3177.0, 56.3649
7.187357204, 96.390, 3098.0, 55.6597
7.213617770, 96.390, 3044.0, 55.1725
7.239878335, 96.390, 3038.0, 55.1181
7.266138900, 96.390, 3116.0, 55.8211
7.292399466, 96.390, 3152.0, 56.1427
7.318660031, 96.390, 3164.0, 56.2494
7.344920597, 96.390, 3199.0, 56.5597
7.371181162, 96.390, 3179.0, 56.3826
7.397441727, 96.390, 3121.0, 55.8659
7.423702293, 96.390, 3182.0, 56.4092
7.449962858, 96.390, 3174.0, 56.3383
7.476223423, 96.390, 3150.0, 56.1249
7.502483989, 96.390, 3122.0, 55.8749
7.528744554, 96.390, 3153.0, 56.1516
7.555005119, 96.390, 3167.0, 56.2761
7.581265685, 96.390, 3024.0, 54.9909
7.607526250, 96.390, 3161.0, 56.2228
7.633786815, 96.390, 3153.0, 56.1516
7.660047381, 96.390, 3129.0, 55.9375
7.686307946, 96.390, 3203.0, 56.5951
7.712568512, 96.390, 3121.0, 55.8659
7.738829077, 96.390, 3130.0, 55.9464
7.765089642, 96.390, 3206.0, 56.6216
7.791350208, 96.390, 3083.0, 55.5248
7.817610773, 96.390, 3126.0, 55.9106
7.843871338, 96.390, 3137.0, 56.0089
7.870131904, 96.390, 3020.0, 54.9545
7.896392469, 96.390, 3044.0, 55.1725
7.922653034, 96.390, 3120.0, 55.8570
7.948913600, 96.390, 3191.0, 56.4889
7.975174165, 96.390, 3205.0, 56.6127
8.001434730, 96.390, 3213.0, 56.6833
8.027695296, 96.390, 3122.0, 55.8749
8.053955861, 96.390, 3191.0, 56.4889
8.080216426, 96.390, 3146.0, 56.0892
8.106476992, 96.390, 3119.0, 55.8480
8.132737557, 96.390, 3255.0, 57.0526
8.158998123, 96.390, 3167.0, 56.2761
8.185258688, 96.390, 3183.0, 56.4181
8.211519253, 96.390, 3189.0, 56.4712
8.237779819, 96.390, 3183.0, 56.4181
8.264040384, 96.390, 3135.0, 55.9911
8.290300949, 96.390, 3132.0, 55.9643
8.316561515, 96.390, 3166.0, 56.2672
8.342822080, 96.390, 3092.0, 55.6058
8.369082645, 96.390, 3079.0, 55.4887
8.395343211, 96.390, 3013.0, 54.8908
8.421603776, 96.390, 3042.0, 55.1543
8.447864341, 96.390, 3148.0, 56.1070
8.474124907, 96.390, 3127.0, 55.9196
8.500385472, 96.390, 3099.0, 55.6687
8.526646038, 96.390, 3219.0, 56.7362
8.552906603, 96.390, 3134.0, 55.9821
8.579167168, 96.390, 3173.0, 56.3294
8.605427734, 96.390, 3214.0, 56.6922
8.631688299, 96.390, 3132.0, 55.9643
8.657948864, 96.390, 3124.0, 55.8928
8.684209430, 96.390, 3057.0, 55.2901
8.710469995, 96.390, 3139.0, 56.0268
8.736730560, 96.390, 3235.0, 56.8771
8.762991126, 96.390, 3199.0, 56.5597
8.789251691, 96.390, 3142.0, 56.0535
8.815512256, 96.390, 3110.0, 55.7674
8.841772822, 96.390, 3107.0, 55.7405
8.868033387, 96.390, 3182.0, 56.4092
8.894293952, 96.390, 3228.0, 56.8155
8.920554518, 96.390, 3112.0, 55.7853
8.946815083, 96.390, 3165.0, 56.2583
8.973075649, 96.390, 3165.0, 56.2583
8.999336214, 96.390, 3138.0, 56.0179
9.025596779, 96.390, 3159.0, 56.2050
9.051857345, 96.390, 3189.0, 56.4712
9.078117910, 96.390, 3093.0, 55.6147
9.104378475, 96.390, 3136.0, 56.0000
9.130639041, 96.390, 3144.0, 56.0714
9.156899606, 96.390, 3134.0, 55.9821
9.183160171, 96.390, 3062.0, 55.3353
9.209420737, 96.390, 3027.0, 55.0182
9.235681302, 96.390, 3178.0, 56.3738
9.261941867, 96.390, 3083.0, 55.5248
9.288202433, 96.390, 3122.0, 55.8749
9.314462998, 96.390, 3191.0, 56.4889
9.340723564, 96.390, 3042.0, 55.1543
9.366984129, 96.390, 3058.0, 55.2992
9.393244694, 96.390, 3027.0, 55.0182
9.419505260, 96.390, 3194.0, 56.5155
9.445765825, 96.390, 3025.0, 55.0000
9.472026390, 96.390, 2974.0, 54.5344
9.498286956, 96.390, 3046.0, 55.1906
9.524547521, 96.390, 3076.0, 55.4617
9.550808086, 96.390, 3048.0, 55.2087
9.577068652, 96.390, 3050.0, 55.2268
9.603329217, 96.390, 3045.0, 55.1815
9.629589782, 96.390, 3126.0, 55.9106
9.655850348, 96.390, 3047.0, 55.1996
9.682110913, 96.390, 3098.0, 55.6597
9.708371478, 96.390, 3096.0, 55.6417
9.734632044, 96.390, 3212.0, 56.6745
9.760892609, 96.390, 3116.0, 55.8211
9.787153175, 96.390, 3199.0, 56.5597
9.813413740, 96.390, 3005.0, 54.8179
9.839674305, 96.390, 2998.0, 54.7540
9.865934871, 96.390, 2945.0, 54.2679
9.892195436, 96.390, 2957.0, 54.3783
9.918456001, 96.390, 2999.0, 54.7631
9.944716567, 96.390, 2973.0, 54.5252
9.970977132, 96.390, 3029.0, 55.0364
9.997237697, 96.390, 3024.0, 54.9909
10.023498263, 96.390, 2968.0, 54.4794
10.049758828, 96.390, 3089.0, 55.5788
10.076019393, 96.390, 3008.0, 54.8452
10.102279959, 96.390, 3188.0, 56.4624
10.128540524, 96.390, 3087.0, 55.5608
10.154801090, 96.390, 3017.0, 54.9272
10.181061655, 96.390, 3034.0, 55.0818
10.207322220, 96.390, 3078.0, 55.4797
10.233582786, 96.390, 3006.0, 54.8270
10.259843351, 96.390, 3147.0, 56.0981
10.286103916, 96.390, 3050.0, 55.2268
10.312364482, 96.390, 3138.0, 56.0179
10.338625047, 96.390, 3063.0, 55.3444
10.364885612, 96.390, 3232.0, 56.8507
10.391146178, 96.390, 3336.0, 57.7581
10.417406743, 96.390, 3428.0, 58.5491
10.443667308, 96.390, 3775.0, 61.4410
10.469927874, 96.390, 3978.0, 63.0714
10.496188439, 96.390, 3363.0, 57.9914
10.522449004, 96.390, 2956.0, 54.3691
10.548709570, 96.390, 3036.0, 55.0999
10.574970135, 96.390, 2877.0, 53.6377
10.601230701, 96.390, 2932.0, 54.1479
10.627491266, 96.390, 2991.0, 54.6900
10.653751831, 96.390, 2911.0, 53.9537
10.680012397, 96.390, 2986.0, 54.6443
10.706272962, 96.390, 2958.0, 54.3875
10.732533527, 96.390, 2960.0, 54.4059
10.758794093, 96.390, 2976.0, 54.5527
10.785054658, 96.390, 2971.0, 54.5069
10.811315223, 96.390, 3027.0, 55.0182
10.837575789, 96.390, 2955.0, 54.3599
10.863836354, 96.390, 3006.0, 54.8270
10.890096919, 96.390, 3052.0, 55.2449
10.916357485, 96.390, 3185.0, 56.4358
10.942618050, 96.390, 3196.0, 56.5332
10.968878616, 96.390, 3319.0, 57.6108
10.995139181, 96.390, 3268.0, 57.1664
11.021399746, 96.390, 3294.0, 57.3934
11.047660312, 96.390, 3163.0, 56.2406
11.073920877, 96.390, 2987.0, 54.6535
11.100181442, 96.390, 2927.0, 54.1018
11.126442008, 96.390, 2793.0, 52.8488
11.152702573, 96.390, 2832.0, 53.2165
11.178963138, 96.390, 2819.0, 53.0943
11.205223704, 96.390, 2801.0, 52.9245
11.231484269, 96.390, 2868.0, 53.5537
11.257744834, 96.390, 2897.0, 53.8238
11.284005400, 96.390, 2871.0, 53.5817
11.310265965, 96.390, 2877.0, 53.6377
11.336526530, 96.390, 2823.0, 53.1319
11.362787096, 96.390, 2809.0, 53.0000
11.389047661, 96.390, 2858.0, 53.4603
11.415308227, 96.390, 2789.0, 52.8110
11.441568792, 96.390, 2904.0, 53.8888
11.467829357, 96.390, 2913.0, 53.9722
11.494089923, 96.390, 2803.0, 52.9434
11.520350488, 96.390, 2792.0, 52.8394
11.546611053, 96.390, 2801.0, 52.9245
11.572871619, 96.390, 2825.0, 53.1507
11.599132184, 96.390, 2797.0, 52.8867
11.625392749, 96.390, 2875.0, 53.6190
11.651653315, 96.390, 2794.0, 52.8583
11.677913880, 96.390, 2745.0, 52.3927
11.704174445, 96.390, 2710.0, 52.0577
11.730435011, 96.390, 2735.0, 52.2972
11.756695576, 96.390, 2698.0, 51.9423
11.782956141, 96.390, 2790.0, 52.8205
11.809216707, 96.390, 2758.0, 52.5167
11.835477272, 96.390, 2746.0, 52.4023
11.861737838, 96.390, 2716.0, 52.1153
11.887998403, 96.390, 2734.0, 52.2877
11.914258968, 96.390, 2680.0, 51.7687
11.940519534, 96.390, 2648.0, 51.4587
11.966780099, 96.390, 2711.0, 52.0673
11.993040664, 96.390, 2748.0, 52.4214
12.019301230, 96.390, 2735.0, 52.2972
12.045561795, 96.390, 2577.0, 50.7642
12.071822360, 96.390, 2645.0, 51.4296
12.098082926, 96.390, 2661.0, 51.5849
12.124343491, 96.390, 2654.0, 51.5170
12.150604056, 96.390, 2707.0, 52.0288
12.176864622, 96.390, 2589.0, 50.8822
12.203125187, 96.390, 2640.0, 51.3809
12.229385753, 96.390, 2626.0, 51.2445
12.255646318, 96.390, 2650.0, 51.4782
12.281906883, 96.390, 2572.0, 50.7149
12.308167449, 96.390, 2478.0, 49.7795
12.334428014, 96.390, 2540.0, 50.3984
12.360688579, 96.390, 2537.0, 50.3686
12.386949145, 96.390, 2606.0, 51.0490
12.413209710, 96.390, 2487.0, 49.8698
12.439470275, 96.390, 2507.0, 50.0700
12.465730841, 96.390, 2499.0, 49.9900
12.491991406, 96.390, 2538.0, 50.3786
12.518251971, 96.390, 2529.0, 50.2892
12.544512537, 96.390, 2465.0, 49.6488
12.570773102, 96.390, 2347.0, 48.4458
12.597033667, 96.390, 2453.0, 49.5278
12.623294233, 96.390, 2351.0, 48.4871
12.649554798, 96.390, 2456.0, 49.5580
12.675815364, 96.390, 2438.0, 49.3761
12.702075929, 96.390, 2499.0, 49.9900
12.728336494, 96.390, 2414.0, 49.1325
12.754597060, 96.390, 2471.0, 49.7092
12.780857625, 96.390, 2424.0, 49.2341
12.807118190, 96.390, 2490.0, 49.8999
12.833378756, 96.390, 2452.0, 49.5177
12.859639321, 96.390, 2301.0, 47.9687
12.885899886, 96.390, 2454.0, 49.5379
12.912160452, 96.390, 2276.0, 47.7074
12.938421017, 96.390, 2394.0, 48.9285
12.964681582, 96.390, 2340.0, 48.3735
12.990942148, 96.390, 2369.0, 48.6724
13.017202713, 96.390, 2289.0, 47.8435
13.043463279, 96.390, 2276.0, 47.7074
13.069723844, 96.390, 2294.0, 47.8957
13.095984409, 96.390, 2381.0, 48.7955
13.122244975, 96.390, 2393.0, 48.9183
13.148505540, 96.390, 2396.0, 48.9490
13.174766105, 96.390, 2354.0, 48.5180
13.201026671, 96.390, 2417.0, 49.1630
13.227287236, 96.390, 2371.0, 48.6929
13.253547801, 96.390, 2293.0, 47.8853
13.279808367, 96.390, 2265.0, 47.5920
13.306068932, 96.390, 2233.0, 47.2546
13.332329497, 96.390, 2305.0, 48.0104
13.358590063, 96.390, 2355.0, 48.5283
13.384850628, 96.390, 2271.0, 47.6550
13.411111193, 96.390, 2237.0, 47.2969
13.437371759, 96.390, 2379.0, 48.7750
13.463632324, 96.390, 2296.0, 47.9166
13.489892890, 96.390, 2372.0, 48.7032
13.516153455, 96.390, 2356.0, 48.5386
13.542414020, 96.390, 2448.0, 49.4773
13.568674586, 96.390, 2514.0, 50.1398
13.594935151, 96.390, 2630.0, 51.2835
13.621195716, 96.390, 2481.0, 49.8096
13.647456282, 96.390, 2527.0, 50.2693
13.673716847, 96.390, 2505.0, 50.0500
13.699977412, 96.390, 2509.0, 50.0899
13.726237978, 96.390, 2514.0, 50.1398
13.752498543, 96.390, 3064.0, 55.3534
13.778759108, 96.390, 3838.0, 61.9516
13.805019674, 96.390, 4579.0, 67.6683
13.831280239, 96.390, 4004.0, 63.2772
13.857540805, 96.390, 3001.0, 54.7814
13.883801370, 96.390, 2346.0, 48.4355
13.910061935, 96.390, 2304.0, 48.0000
13.936322501, 96.390, 2271.0, 47.6550
13.962583066, 96.390, 2140.0, 46.2601
13.988843631, 96.390, 2236.0, 47.2864
14.015104197, 96.390, 2256.0, 47.4974
14.041364762, 96.390, 2244.0, 47.3709
14.067625327, 96.390, 2227.0, 47.1911
14.093885893, 96.390, 2204.0, 46.9468
14.120146458, 96.390, 2347.0, 48.4458
14.146407023, 96.390, 2311.0, 48.0729
14.172667589, 96.390, 2550.0, 50.4975
14.198928154, 96.390, 2667.0, 51.6430
14.225188719, 96.390, 3117.0, 55.8301
14.251449285, 96.390, 3901.0, 62.4580
14.277709850, 96.390, 5267.0, 72.5741
14.303970416, 96.390, 5514.0, 74.2563
14.330230981, 96.390, 3911.0, 62.5380
14.356491546, 96.390, 2564.0, 50.6360
14.382752112, 96.390, 2177.0, 46.6583
14.409012677, 96.390, 2054.0, 45.3211
14.435273242, 96.390, 2176.0, 46.6476
14.461533808, 96.390, 2120.0, 46.0435
14.487794373, 96.390, 2139.0, 46.2493
14.514054938, 96.390, 2183.0, 46.7226
14.540315504, 96.390, 2259.0, 47.5289
14.566576069, 96.390, 2062.0, 45.4093
14.592836634, 96.390, 2059.0, 45.3762
14.619097200, 96.390, 2009.0, 44.8219
14.645357765, 96.390, 2026.0, 45.0111
14.671618331, 96.390, 1953.0, 44.1928
14.697878896, 96.390, 1970.0, 44.3847
14.724139461, 96.390, 2090.0, 45.7165
14.750400027, 96.390, 1959.0, 44.2606
14.776660592, 96.390, 1968.0, 44.3621
14.802921157, 96.390, 1999.0, 44.7102
14.829181723, 96.390, 1932.0, 43.9545
14.855442288, 96.390, 1983.0, 44.5309
14.881702853, 96.390, 2028.0, 45.0333
14.907963419, 96.390, 1917.0, 43.7836
14.934223984, 96.390, 1998.0, 44.6990
14.960484549, 96.390, 1980.0, 44.4972
14.986745115, 96.390, 2093.0, 45.7493
15.013005680, 96.390, 1935.0, 43.9886
15.039266245, 96.390, 1972.0, 44.4072
15.065526811, 96.390, 1986.0, 44.5646
15.091787376, 96.390, 1877.0, 43.3244
15.118047942, 96.390, 1968.0, 44.3621
15.144308507, 96.390, 1983.0, 44.5309
15.170569072, 96.390, 1943.0, 44.0795
15.196829638, 96.390, 1910.0, 43.7035
15.223090203, 96.390, 2003.0, 44.7549
15.249350768, 96.390, 1997.0, 44.6878
15.275611334, 96.390, 1958.0, 44.2493
15.301871899, 96.390, 1952.0, 44.1814
15.328132464, 96.390, 1869.0, 43.2319
15.354393030, 96.390, 1929.0, 43.9204
15.380653595, 96.390, 1869.0, 43.2319
15.406914160, 96.390, 1895.0, 43.5316
15.433174726, 96.390, 1903.0, 43.6234
15.459435291, 96.390, 1955.0, 44.2154
15.485695857, 96.390, 1940.0, 44.0454
15.511956422, 96.390, 1947.0, 44.1248
15.538216987, 96.390, 1945.0, 44.1022
15.564477553, 96.390, 1906.0, 43.6578
15.590738118, 96.390, 1892.0, 43.4971
15.616998683, 96.390, 1875.0, 43.3013
15.643259249, 96.390, 1889.0, 43.4626
15.669519814, 96.390, 1988.0, 44.5870
15.695780379, 96.390, 1887.0, 43.4396
15.722040945, 96.390, 1934.0, 43.9773
15.748301510, 96.390, 1874.0, 43.2897
15.774562075, 96.390, 1894.0, 43.5201
15.800822641, 96.390, 1928.0, 43.9090
15.827083206, 96.390, 1916.0, 43.7721
15.853343771, 96.390, 1814.0, 42.5911
15.879604337, 96.390, 1927.0, 43.8976
15.905864902, 96.390, 1895.0, 43.5316
15.932125468, 96.390, 1899.0, 43.5775
15.958386033, 96.390, 1915.0, 43.7607
15.984646598, 96.390, 1910.0, 43.7035
16.010907164, 96.390, 1956.0, 44.2267
16.037167729, 96.390, 2012.0, 44.8553
16.063428294, 96.390, 1963.0, 44.3058
16.089688860, 96.390, 1867.0, 43.2088
16.115949425, 96.390, 1955.0, 44.2154
16.142209990, 96.390, 1840.0, 42.8952
16.168470556, 96.390, 1883.0, 43.3935
16.194731121, 96.390, 1991.0, 44.6206
16.220991686, 96.390, 1872.0, 43.2666
16.247252252, 96.390, 1909.0, 43.6921
16.273512817, 96.390, 1948.0, 44.1362
16.299773382, 96.390, 1856.0, 43.0813
16.326033948, 96.390, 1853.0, 43.0465
16.352294513, 96.390, 1914.0, 43.7493
16.378555079, 96.390, 1844.0, 42.9418
16.404815644, 96.390, 1890.0, 43.4741
16.431076209, 96.390, 1926.0, 43.8862
16.457336775, 96.390, 1892.0, 43.4971
16.483597340, 96.390, 1856.0, 43.0813
16.509857905, 96.390, 1877.0, 43.3244
16.536118471, 96.390, 1880.0, 43.3590
16.562379036, 96.390, 1868.0, 43.2204
16.588639601, 96.390, 1840.0, 42.8952
16.614900167, 96.390, 1818.0, 42.6380
16.641160732, 96.390, 1910.0, 43.7035
16.667421297, 96.390, 1887.0, 43.4396
16.693681863, 96.390, 1911.0, 43.7150
16.719942428, 96.390, 1917.0, 43.7836
16.746202994, 96.390, 1850.0, 43.0116
16.772463559, 96.390, 1926.0, 43.8862
16.798724124, 96.390, 1992.0, 44.6318
16.824984690, 96.390, 1960.0, 44.2719
16.851245255, 96.390, 1944.0, 44.0908
16.877505820, 96.390, 1955.0, 44.2154
16.903766386, 96.390, 2109.0, 45.9239
16.930026951, 96.390, 2225.0, 47.1699
16.956287516, 96.390, 2133.0, 46.1844
16.982548082, 96.390, 2023.0, 44.9778
17.008808647, 96.390, 1913.0, 43.7379
17.035069212, 96.390, 1822.0, 42.6849
17.061329778, 96.390, 2025.0, 45.0000
17.087590343, 96.390, 1836.0, 42.8486
17.113850908, 96.390, 1916.0, 43.7721
17.140111474, 96.390, 1928.0, 43.9090
17.166372039, 96.390, 1968.0, 44.3621
17.192632605, 96.390, 1937.0, 44.0114
17.218893170, 96.390, 1910.0, 43.7035
17.245153735, 96.390, 1933.0, 43.9659
17.271414301, 96.390, 1959.0, 44.2606
17.297674866, 96.390, 2039.0, 45.1553
17.323935431, 96.390, 2048.0, 45.2548
17.350195997, 96.390, 2091.0, 45.7275
17.376456562, 96.390, 2159.0, 46.4650
17.402717127, 96.390, 2316.0, 48.1248
17.428977693, 96.390, 2283.0, 47.7807
17.455238258, 96.390, 2073.0, 45.5302
17.481498823, 96.390, 1972.0, 44.4072
17.507759389, 96.390, 1942.0, 44.0681
17.534019954, 96.390, 1866.0, 43.1972
17.560280520, 96.390, 1915.0, 43.7607
17.586541085, 96.390, 1945.0, 44.1022
17.612801650, 96.390, 1955.0, 44.2154
17.639062216, 96.390, 1927.0, 43.8976
17.665322781, 96.390, 1921.0, 43.8292
17.691583346, 96.390, 1934.0, 43.9773
17.717843912, 96.390, 1836.0, 42.8486
17.744104477, 96.390, 1858.0, 43.1045
17.770365042, 96.390, 1948.0, 44.1362
17.796625608, 96.390, 1917.0, 43.7836
17.822886173, 96.390, 1891.0, 43.4856
17.849146738, 96.390, 1939.0, 44.0341
17.875407304, 96.390, 1954.0, 44.2041
17.901667869, 96.390, 1917.0, 43.7836
17.927928434, 96.390, 1949.0, 44.1475
17.954189000, 96.390, 1931.0, 43.9431
17.980449565, 96.390, 1888.0, 43.4511
18.006710131, 96.390, 1981.0, 44.5084
18.032970696, 96.390, 1994.0, 44.6542
18.059231261, 96.390, 2056.0, 45.3431
18.085491827, 96.390, 2126.0, 46.1086
18.111752392, 96.390, 2223.0, 47.1487
18.138012957, 96.390, 2212.0, 47.0319
18.164273523, 96.390, 2213.0, 47.0425
18.190534088, 96.390, 2179.0, 46.6798
18.216794653, 96.390, 2287.0, 47.8226
18.243055219, 96.390, 2455.0, 49.5480
18.269315784, 96.390, 2669.0, 51.6624
18.295576349, 96.390, 2865.0, 53.5257
18.321836915, 96.390, 2657.0, 51.5461
18.348097480, 96.390, 2481.0, 49.8096
18.374358046, 96.390, 2399.0, 48.9796
18.400618611, 96.390, 2492.0, 49.9199
18.426879176, 96.390, 2612.0, 51.1077
18.453139742, 96.390, 2767.0, 52.6023
18.479400307, 96.390, 2472.0, 49.7192
18.505660872, 96.390, 2327.0, 48.2390
18.531921438, 96.390, 2077.0, 45.5741
18.558182003, 96.390, 2000.0, 44.7214
18.584442568, 96.390, 2056.0, 45.3431
18.610703134, 96.390, 1960.0, 44.2719
18.636963699, 96.390, 1963.0, 44.3058
18.663224264, 96.390, 2002.0, 44.7437
18.689484830, 96.390, 2065.0, 45.4423
18.715745395, 96.390, 2016.0, 44.8999
18.742005960, 96.390, 2069.0, 45.4863
18.768266526, 96.390, 2084.0, 45.6508
18.794527091, 96.390, 2095.0, 45.7712
18.820787657, 96.390, 2080.0, 45.6070
18.847048222, 96.390, 2141.0, 46.2709
18.873308787, 96.390, 2140.0, 46.2601
18.899569353, 96.390, 2246.0, 47.3920
18.925829918, 96.390, 2195.0, 46.8508
18.952090483, 96.390, 2396.0, 48.9490
18.978351049, 96.390, 2502.0, 50.0200
19.004611614, 96.390, 2551.0, 50.5074
19.030872179, 96.390, 2332.0, 48.2908
19.057132745, 96.390, 2147.0, 46.3357
19.083393310, 96.390, 2062.0, 45.4093
19.109653875, 96.390, 2026.0, 45.0111
19.135914441, 96.390, 2089.0, 45.7056
19.162175006, 96.390, 2123.0, 46.0760
19.188435572, 96.390, 2071.0, 45.5082
19.214696137, 96.390, 2088.0, 45.6946
19.240956702, 96.390, 2046.0, 45.2327
19.267217268, 96.390, 2048.0, 45.2548
19.293477833, 96.390, 2162.0, 46.4973
19.319738398, 96.390, 2108.0, 45.9130
19.345998964, 96.390, 2171.0, 46.5940
19.372259529, 96.390, 2255.0, 47.4868
19.398520094, 96.390, 2584.0, 50.8331
19.424780660, 96.390, 2692.0, 51.8845
19.451041225, 96.390, 2679.0, 51.7591
19.477301790, 96.390, 2784.0, 52.7636
19.503562356, 96.390, 2866.0, 53.5350
19.529822921, 96.390, 2566.0, 50.6557
19.556083486, 96.390, 2521.0, 50.2096
19.582344052, 96.390, 2330.0, 48.2701
19.608604617, 96.390, 2245.0, 47.3814
19.634865183, 96.390, 2327.0, 48.2390
19.661125748, 96.390, 2320.0, 48.1664
19.687386313, 96.390, 2569.0, 50.6853
19.713646879, 96.390, 2859.0, 53.4696
19.739907444, 96.390, 3084.0, 55.5338
19.766168009, 96.390, 3565.0, 59.7076
19.792428575, 96.390, 3419.0, 58.4722
19.818689140, 96.390, 2919.0, 54.0278
19.844949705, 96.390, 2662.0, 51.5946
19.871210271, 96.390, 2345.0, 48.4252
19.897470836, 96.390, 2180.0, 46.6905
19.923731401, 96.390, 2120.0, 46.0435
19.949991967, 96.390, 2180.0, 46.6905
19.976252532, 96.390, 2250.0, 47.4342
20.002513097, 96.390, 2189.0, 46.7868
20.028773663, 96.390, 2214.0, 47.0532
20.055034228, 96.390, 2173.0, 46.6154
20.081294794, 96.390, 2237.0, 47.2969
20.107555359, 96.390, 2185.0, 46.7440
20.133815924, 96.390, 2186.0, 46.7547
20.160076490, 96.390, 2174.0, 46.6262
20.186337055, 96.390, 2288.0, 47.8330
20.212597620, 96.390, 2222.0, 47.1381
20.238858186, 96.390, 2311.0, 48.0729
20.265118751, 96.390, 2375.0, 48.7340
20.291379316, 96.390, 2375.0, 48.7340
20.317639882, 96.390, 2599.0, 50.9804
20.343900447, 96.390, 2932.0, 54.1479
20.370161012, 96.390, 3472.0, 58.9237
20.396421578, 96.390, 3754.0, 61.2699
20.422682143, 96.390, 4744.0, 68.8767
20.448942709, 96.390, 6075.0, 77.9423
20.475203274, 96.390, 4024.0, 63.4350
20.501463839, 96.390, 4065.0, 63.7574
20.527724405, 96.390, 3070.0, 55.4076
20.553984970, 96.390, 2895.0, 53.8052
20.580245535, 96.390, 3018.0, 54.9363
20.606506101, 96.390, 3119.0, 55.8480
20.632766666, 96.390, 2941.0, 54.2310
20.659027231, 96.390, 2762.0, 52.5547
20.685287797, 96.390, 2511.0, 50.1099
20.711548362, 96.390, 2422.0, 49.2138
20.737808927, 96.390, 2414.0, 49.1325
20.764069493, 96.390, 2331.0, 48.2804
20.790330058, 96.390, 2325.0, 48.2183
20.816590623, 96.390, 2326.0, 48.2286
20.842851189, 96.390, 2310.0, 48.0625
20.869111754, 96.390, 2330.0, 48.2701
20.895372320, 96.390, 2299.0, 47.9479
20.921632885, 96.390, 2428.0, 49.2747
20.947893450, 96.390, 2489.0, 49.8899
20.974154016, 96.390, 2536.0, 50.3587
21.000414581, 96.390, 2531.0, 50.3090
21.026675146, 96.390, 2497.0, 49.9700
21.052935712, 96.390, 2353.0, 48.5077
21.079196277, 96.390, 2302.0, 47.9792
21.105456842, 96.390, 2258.0, 47.5184
21.131717408, 96.390, 2302.0, 47.9792
21.157977973, 96.390, 2266.0, 47.6025
21.184238538, 96.390, 2225.0, 47.1699
21.210499104, 96.390, 2355.0, 48.5283
21.236759669, 96.390, 2272.0, 47.6655
21.263020235, 96.390, 2302.0, 47.9792
21.289280800, 96.390, 2286.0, 47.8121
21.315541365, 96.390, 2271.0, 47.6550
21.341801931, 96.390, 2319.0, 48.1560
21.368062496, 96.390, 2345.0, 48.4252
21.394323061, 96.390, 2292.0, 47.8748
21.420583627, 96.390, 2340.0, 48.3735
21.446844192, 96.390, 2340.0, 48.3735
21.473104757, 96.390, 2388.0, 48.8672
21.499365323, 96.390, 2353.0, 48.5077
21.525625888, 96.390, 2374.0, 48.7237
21.551886453, 96.390, 2251.0, 47.4447
21.578147019, 96.390, 2326.0, 48.2286
21.604407584, 96.390, 2391.0, 48.8979
21.630668149, 96.390, 2462.0, 49.6185
21.656928715, 96.390, 2516.0, 50.1597
21.683189280, 96.390, 2605.0, 51.0392
21.709449846, 96.390, 2877.0, 53.6377
21.735710411, 96.390, 2687.0, 51.8363
21.761970976, 96.390, 2507.0, 50.0700
21.788231542, 96.390, 2555.0, 50.5470
21.814492107, 96.390, 2427.0, 49.2646
21.840752672, 96.390, 2204.0, 46.9468
21.867013238, 96.390, 2355.0, 48.5283
21.893273803, 96.390, 2414.0, 49.1325
21.919534368, 96.390, 2333.0, 48.3011
21.945794934, 96.390, 2308.0, 48.0416
21.972055499, 96.390, 2333.0, 48.3011
21.998316064, 96.390, 2347.0, 48.4458
22.024576630, 96.390, 2415.0, 49.1426
22.050837195, 96.390, 2378.0, 48.7647
22.077097761, 96.390, 2373.0, 48.7134
22.103358326, 96.390, 2349.0, 48.4665
22.129618891, 96.390, 2447.0, 49.4672
22.155879457, 96.390, 2355.0, 48.5283
22.182140022, 96.390, 2460.0, 49.5984
22.208400587, 96.390, 2346.0, 48.4355
22.234661153, 96.390, 2396.0, 48.9490
22.260921718, 96.390, 2356.0, 48.5386
22.287182283, 96.390, 2413.0, 49.1223
22.313442849, 96.390, 2341.0, 48.3839
22.339703414, 96.390, 2397.0, 48.9592
22.365963979, 96.390, 2269.0, 47.6340
22.392224545, 96.390, 2384.0, 48.8262
22.418485110, 96.390, 2429.0, 49.2849
22.444745675, 96.390, 2379.0, 48.7750
22.471006241, 96.390, 2472.0, 49.7192
22.497266806, 96.390, 2561.0, 50.6063
22.523527372, 96.390, 2397.0, 48.9592
22.549787937, 96.390, 2548.0, 50.4777
22.576048502, 96.390, 2635.0, 51.3323
22.602309068, 96.390, 2642.0, 51.4004
22.628569633, 96.390, 2558.0, 50.5767
22.654830198, 96.390, 2466.0, 49.6588
22.681090764, 96.390, 2486.0, 49.8598
22.707351329, 96.390, 2380.0, 48.7852
22.733611894, 96.390, 2431.0, 49.3052
22.759872460, 96.390, 2394.0, 48.9285
22.786133025, 96.390, 2504.0, 50.0400
22.812393590, 96.390, 2586.0, 50.8527
22.838654156, 96.390, 2723.0, 52.1824
22.864914721, 96.390, 2704.0, 52.0000
22.891175287, 96.390, 2578.0, 50.7740
22.917435852, 96.390, 2546.0, 50.4579
22.943696417, 96.390, 2528.0, 50.2792
22.969956983, 96.390, 2459.0, 49.5883
22.996217548, 96.390, 2388.0, 48.8672
23.022478113, 96.390, 2385.0, 48.8365
23.048738679, 96.390, 2501.0, 50.0100
23.074999244, 96.390, 2339.0, 48.3632
23.101259809, 96.390, 2313.0, 48.0937
23.127520375, 96.390, 2459.0, 49.5883
23.153780940, 96.390, 2457.0, 49.5681
23.180041505, 96.390, 2490.0, 49.8999
23.206302071, 96.390, 2406.0, 49.0510
23.232562636, 96.390, 2417.0, 49.1630
23.258823201, 96.390, 2428.0, 49.2747
23.285083767, 96.390, 2482.0, 49.8197
23.311344332, 96.390, 2446.0, 49.4571
23.337604898, 96.390, 2850.0, 53.3854
23.363865463, 96.390, 2911.0, 53.9537
23.390126028, 96.390, 2852.0, 53.4041
23.416386594, 96.390, 2797.0, 52.8867
23.442647159, 96.390, 2971.0, 54.5069
23.468907724, 96.390, 3307.0, 57.5065
23.495168290, 96.390, 3729.0, 61.0655
23.521428855, 96.390, 3982.0, 63.1031
23.547689420, 96.390, 3803.0, 61.6685
23.573949986, 96.390, 3234.0, 56.8683
23.600210551, 96.390, 2912.0, 53.9630
23.626471116, 96.390, 2546.0, 50.4579
23.652731682, 96.390, 2362.0, 48.6004
23.678992247, 96.390, 2342.0, 48.3942
23.705252813, 96.390, 2357.0, 48.5489
23.731513378, 96.390, 2275.0, 47.6970
23.757773943, 96.390, 2356.0, 48.5386
23.784034509, 96.390, 2273.0, 47.6760
23.810295074, 96.390, 2267.0, 47.6130
23.836555639, 96.390, 2266.0, 47.6025
23.862816205, 96.390, 2306.0, 48.0208
23.889076770, 96.390, 2155.0, 46.4220
23.915337335, 96.390, 2273.0, 47.6760
23.941597901, 96.390, 2166.0, 46.5403
23.967858466, 96.390, 2278.0, 47.7284
23.994119031, 96.390, 2319.0, 48.1560
24.020379597, 96.390, 2259.0, 47.5289
24.046640162, 96.390, 2297.0, 47.9270
24.072900727, 96.390, 2418.0, 49.1732
24.099161293, 96.390, 2536.0, 50.3587
24.125421858, 96.390, 2490.0, 49.8999
24.151682424, 96.390, 2455.0, 49.5480
24.177942989, 96.390, 2781.0, 52.7352
24.204203554, 96.390, 2974.0, 54.5344
24.230464120, 96.390, 3363.0, 57.9914
24.256724685, 96.390, 3609.0, 60.0750
24.282985250, 96.390, 3149.0, 56.1160
24.309245816, 96.390, 2942.0, 54.2402
24.335506381, 96.390, 2972.0, 54.5161
24.361766946, 96.390, 2814.0, 53.0471
24.388027512, 96.390, 2512.0, 50.1199
24.414288077, 96.390, 2429.0, 49.2849
24.440548642, 96.390, 2394.0, 48.9285
24.466809208, 96.390, 2209.0, 47.0000
24.493069773, 96.390, 2374.0, 48.7237
24.519330338, 96.390, 2457.0, 49.5681
24.545590904, 96.390, 2702.0, 51.9808
24.571851469, 96.390, 2891.0, 53.7680
24.598112035, 96.390, 2466.0, 49.6588
24.624372600, 96.390, 2514.0, 50.1398
24.650633165, 96.390, 2301.0, 47.9687
24.676893731, 96.390, 2085.0, 45.6618
24.703154296, 96.390, 2132.0, 46.1736
24.729414861, 96.390, 2096.0, 45.7821
24.755675427, 96.390, 2056.0, 45.3431
24.781935992, 96.390, 2006.0, 44.7884
24.808196557, 96.390, 2086.0, 45.6727
24.834457123, 96.390, 2003.0, 44.7549
24.860717688, 96.390, 1960.0, 44.2719
24.886978253, 96.390, 2052.0, 45.2990
24.913238819, 96.390, 2104.0, 45.8694
24.939499384, 96.390, 2113.0, 45.9674
24.965759950, 96.390, 2085.0, 45.6618
24.992020515, 96.390, 2136.0, 46.2169
25.018281080, 96.390, 2178.0, 46.6690
25.044541646, 96.390, 2142.0, 46.2817
25.070802211, 96.390, 2043.0, 45.1996
25.097062776, 96.390, 2065.0, 45.4423
25.123323342, 96.390, 1988.0, 44.5870
25.149583907, 96.390, 2010.0, 44.8330
25.175844472, 96.390, 1873.0, 43.2782
25.202105038, 96.390, 2010.0, 44.8330
25.228365603, 96.390, 1956.0, 44.2267
25.254626168, 96.390, 1953.0, 44.1928
25.280886734, 96.390, 2001.0, 44.7325
25.307147299, 96.390, 2038.0, 45.1442
25.333407864, 96.390, 2095.0, 45.7712
25.359668430, 96.390, 2263.0, 47.5710
25.385928995, 96.390, 2434.0, 49.3356
25.412189561, 96.390, 2740.0, 52.3450
25.438450126, 96.390, 2700.0, 51.9615
25.464710691, 96.390, 2366.0, 48.6415
25.490971257, 96.390, 2253.0, 47.4658
25.517231822, 96.390, 2047.0, 45.2438
25.543492387, 96.390, 1922.0, 43.8406
25.569752953, 96.390, 1854.0, 43.0581
25.596013518, 96.390, 1943.0, 44.0795
25.622274083, 96.390, 1887.0, 43.4396
25.648534649, 96.390, 2005.0, 44.7772
25.674795214, 96.390, 1976.0, 44.4522
25.701055779, 96.390, 1981.0, 44.5084
25.727316345, 96.390, 1916.0, 43.7721
25.753576910, 96.390, 1945.0, 44.1022
25.779837476, 96.390, 1918.0, 43.7950
25.806098041, 96.390, 2039.0, 45.1553
25.832358606, 96.390, 2117.0, 46.0109
25.858619172, 96.390, 2211.0, 47.0213
25.884879737, 96.390, 2117.0, 46.0109
25.911140302, 96.390, 2000.0, 44.7214
25.937400868, 96.390, 1961.0, 44.2832
25.963661433, 96.390, 1890.0, 43.4741
25.989921998, 96.390, 1876.0, 43.3128
26.016182564, 96.390, 1779.0, 42.1782
26.042443129, 96.390, 1779.0, 42.1782
26.068703694, 96.390, 1805.0, 42.4853
26.094964260, 96.390, 1810.0, 42.5441
26.121224825, 96.390, 1773.0, 42.1070
26.147485390, 96.390, 1793.0, 42.3438
26.173745956, 96.390, 1767.0, 42.0357
26.200006521, 96.390, 1756.0, 41.9047
26.226267087, 96.390, 1881.0, 43.3705
26.252527652, 96.390, 1840.0, 42.8952
26.278788217, 96.390, 1884.0, 43.4051
26.305048783, 96.390, 1870.0, 43.2435
26.331309348, 96.390, 1807.0, 42.5088
26.357569913, 96.390, 1776.0, 42.1426
26.383830479, 96.390, 1836.0, 42.8486
26.410091044, 96.390, 1689.0, 41.0974
26.436351609, 96.390, 1784.0, 42.2374
26.462612175, 96.390, 1796.0, 42.3792
26.488872740, 96.390, 1729.0, 41.5812
26.515133305, 96.390, 1755.0, 41.8927
26.541393871, 96.390, 1837.0, 42.8602
26.567654436, 96.390, 1777.0, 42.1545
26.593915002, 96.390, 1813.0, 42.5793
26.620175567, 96.390, 1758.0, 41.9285
26.646436132, 96.390, 1902.0, 43.6119
26.672696698, 96.390, 1962.0, 44.2945
26.698957263, 96.390, 1926.0, 43.8862
26.725217828, 96.390, 1939.0, 44.0341
26.751478394, 96.390, 1850.0, 43.0116
26.777738959, 96.390, 1850.0, 43.0116
26.803999524, 96.390, 1764.0, 42.0000
26.830260090, 96.390, 1764.0, 42.0000
26.856520655, 96.390, 1885.0, 43.4166
26.882781220, 96.390, 1846.0, 42.9651
26.909041786, 96.390, 1879.0, 43.3474
26.935302351, 96.390, 2069.0, 45.4863
26.961562916, 96.390, 2023.0, 44.9778
26.987823482, 96.390, 2018.0, 44.9222
27.014084047, 96.390, 1979.0, 44.4860
27.040344613, 96.390, 1922.0, 43.8406
27.066605178, 96.390, 1851.0, 43.0232
27.092865743, 96.390, 1875.0, 43.3013
27.119126309, 96.390, 1856.0, 43.0813
27.145386874, 96.390, 1889.0, 43.4626
27.171647439, 96.390, 1855.0, 43.0697
27.197908005, 96.390, 1908.0, 43.6807
27.224168570, 96.390, 1916.0, 43.7721
27.250429135, 96.390, 2032.0, 45.0777
27.276689701, 96.390, 2081.0, 45.6180
27.302950266, 96.390, 2163.0, 46.5081
27.329210831, 96.390, 2292.0, 47.8748
27.355471397, 96.390, 2080.0, 45.6070
27.381731962, 96.390, 2060.0, 45.3872
27.407992528, 96.390, 1885.0, 43.4166
27.434253093, 96.390, 1834.0, 42.8252
27.460513658, 96.390, 1792.0, 42.3320
27.486774224, 96.390, 1729.0, 41.5812
27.513034789, 96.390, 1736.0, 41.6653
27.539295354, 96.390, 1734.0, 41.6413
27.565555920, 96.390, 1816.0, 42.6146
27.591816485, 96.390, 1842.0, 42.9185
27.618077050, 96.390, 1863.0, 43.1625
27.644337616, 96.390, 1924.0, 43.8634
27.670598181, 96.390, 2192.0, 46.8188
27.696858746, 96.390, 2154.0, 46.4112
27.723119312, 96.390, 1975.0, 44.4410
27.749379877, 96.390, 2035.0, 45.1110
27.775640442, 96.390, 2076.0, 45.5631
27.801901008, 96.390, 1940.0, 44.0454
27.828161573, 96.390, 1861.0, 43.1393
27.854422139, 96.390, 1957.0, 44.2380
27.880682704, 96.390, 1762.0, 41.9762
27.906943269, 96.390, 1744.0, 41.7612
27.933203835, 96.390, 1704.0, 41.2795
27.959464400, 96.390, 1698.0, 41.2068
27.985724965, 96.390, 1684.0, 41.0366
28.011985531, 96.390, 1699.0, 41.2189
28.038246096, 96.390, 1736.0, 41.6653
28.064506661, 96.390, 1761.0, 41.9643
28.090767227, 96.390, 1767.0, 42.0357
28.117027792, 96.390, 1762.0, 41.9762
28.143288357, 96.390, 1827.0, 42.7434
28.169548923, 96.390, 1764.0, 42.0000
28.195809488, 96.390, 1962.0, 44.2945
28.222070054, 96.390, 2235.0, 47.2758
28.248330619, 96.390, 2707.0, 52.0288
28.274591184, 96.390, 2581.0, 50.8035
28.300851750, 96.390, 2268.0, 47.6235
28.327112315, 96.390, 2297.0, 47.9270
28.353372880, 96.390, 2046.0, 45.2327
28.379633446, 96.390, 1818.0, 42.6380
28.405894011, 96.390, 1710.0, 41.3521
28.432154576, 96.390, 1678.0, 40.9634
28.458415142, 96.390, 1677.0, 40.9512
28.484675707, 96.390, 1787.0, 42.2729
28.510936272, 96.390, 1842.0, 42.9185
28.537196838, 96.390, 1820.0, 42.6615
28.563457403, 96.390, 1749.0, 41.8210
28.589717968, 96.390, 1725.0, 41.5331
28.615978534, 96.390, 1752.0, 41.8569
28.642239099, 96.390, 1726.0, 41.5452
28.668499665, 96.390, 1700.0, 41.2311
28.694760230, 96.390, 1711.0, 41.3642
28.721020795, 96.390, 1665.0, 40.8044
28.747281361, 96.390, 1702.0, 41.2553
28.773541926, 96.390, 1787.0, 42.2729
28.799802491, 96.390, 1674.0, 40.9145
28.826063057, 96.390, 1726.0, 41.5452
28.852323622, 96.390, 1801.0, 42.4382
28.878584187, 96.390, 1700.0, 41.2311
28.904844753, 96.390, 1774.0, 42.1189
28.931105318, 96.390, 1767.0, 42.0357
28.957365883, 96.390, 1772.0, 42.0951
28.983626449, 96.390, 1780.0, 42.1900
29.009887014, 96.390, 1683.0, 41.0244
29.036147579, 96.390, 1702.0, 41.2553
29.062408145, 96.390, 1744.0, 41.7612
29.088668710, 96.390, 1858.0, 43.1045
29.114929276, 96.390, 1850.0, 43.0116
29.141189841, 96.390, 1832.0, 42.8019
29.167450406, 96.390, 1824.0, 42.7083
29.193710972, 96.390, 1833.0, 42.8135
29.219971537, 96.390, 1797.0, 42.3910
29.246232102, 96.390, 1695.0, 41.1704
29.272492668, 96.390, 1725.0, 41.5331
29.298753233, 96.390, 1732.0, 41.6173
29.325013798, 96.390, 1760.0, 41.9524
29.351274364, 96.390, 1840.0, 42.8952
29.377534929, 96.390, 1817.0, 42.6263
29.403795494, 96.390, 1770.0, 42.0714
29.430056060, 96.390, 1739.0, 41.7013
29.456316625, 96.390, 1827.0, 42.7434
29.482577191, 96.390, 1807.0, 42.5088
29.508837756, 96.390, 1700.0, 41.2311
29.535098321, 96.390, 1730.0, 41.5933
29.561358887, 96.390, 1804.0, 42.4735
29.587619452, 96.390, 1878.0, 43.3359
29.613880017, 96.390, 1870.0, 43.2435
29.640140583, 96.390, 1854.0, 43.0581
29.666401148, 96.390, 1826.0, 42.7317
29.692661713, 96.390, 1718.0, 41.4488
29.718922279, 96.390, 1743.0, 41.7493
29.745182844, 96.390, 1663.0, 40.7799
29.771443409, 96.390, 1663.0, 40.7799
29.797703975, 96.390, 1758.0, 41.9285
29.823964540, 96.390, 1723.0, 41.5090
29.850225105, 96.390, 1725.0, 41.5331
29.876485671, 96.390, 1801.0, 42.4382
29.902746236, 96.390, 1679.0, 40.9756
29.929006802, 96.390, 1677.0, 40.9512
29.955267367, 96.390, 1712.0, 41.3763
29.981527932, 96.390, 1681.0, 41.0000
30.007788498, 96.390, 1652.0, 40.6448
30.034049063, 96.390, 1718.0, 41.4488
30.060309628, 96.390, 1701.0, 41.2432
30.086570194, 96.390, 1621.0, 40.2616
30.112830759, 96.390, 1611.0, 40.1373
30.139091324, 96.390, 1667.0, 40.8289
30.165351890, 96.390, 1648.0, 40.5956
30.191612455, 96.390, 1696.0, 41.1825
30.217873020, 96.390, 1668.0, 40.8412
30.244133586, 96.390, 1726.0, 41.5452
30.270394151, 96.390, 1660.0, 40.7431
30.296654717, 96.390, 1660.0, 40.7431
30.322915282, 96.390, 1672.0, 40.8901
30.349175847, 96.390, 1738.0, 41.6893
30.375436413, 96.390, 1743.0, 41.7493
30.401696978, 96.390, 1792.0, 42.3320
30.427957543, 96.390, 1873.0, 43.2782
30.454218109, 96.390, 2186.0, 46.7547
30.480478674, 96.390, 3127.0, 55.9196
30.506739239, 96.390, 2808.0, 52.9906
30.532999805, 96.390, 2368.0, 48.6621
30.559260370, 96.390, 2595.0, 50.9411
30.585520935, 96.390, 2373.0, 48.7134
30.611781501, 96.390, 2320.0, 48.1664
30.638042066, 96.390, 2722.0, 52.1728
30.664302631, 96.390, 3353.0, 57.9051
30.690563197, 96.390, 4008.0, 63.3088
30.716823762, 96.390, 6060.0, 77.8460
30.743084328, 96.390, 5894.0, 76.7724
30.769344893, 96.390, 3296.0, 57.4108
30.795605458, 96.390, 3963.0, 62.9524
30.821866024, 96.390, 3774.0, 61.4329
30.848126589, 96.390, 2322.0, 48.1871
30.874387154, 96.390, 1987.0, 44.5758
30.900647720, 96.390, 1890.0, 43.4741
30.926908285, 96.390, 1888.0, 43.4511
30.953168850, 96.390, 1853.0, 43.0465
30.979429416, 96.390, 1843.0, 42.9302
31.005689981, 96.390, 1841.0, 42.9069
31.031950546, 96.390, 2032.0, 45.0777
31.058211112, 96.390, 1886.0, 43.4281
31.084471677, 96.390, 1794.0, 42.3556
31.110732243, 96.390, 1874.0, 43.2897
31.136992808, 96.390, 1805.0, 42.4853
31.163253373, 96.390, 1710.0, 41.3521
31.189513939, 96.390, 1685.0, 41.0488
31.215774504, 96.390, 1630.0, 40.3733
31.242035069, 96.390, 1675.0, 40.9268
31.268295635, 96.390, 1729.0, 41.5812
31.294556200, 96.390, 1840.0, 42.8952
31.320816765, 96.390, 1780.0, 42.1900
31.347077331, 96.390, 1886.0, 43.4281
31.373337896, 96.390, 1878.0, 43.3359
31.399598461, 96.390, 1836.0, 42.8486
31.425859027, 96.390, 1840.0, 42.8952
31.452119592, 96.390, 1877.0, 43.3244
31.478380157, 96.390, 2045.0, 45.2217
31.504640723, 96.390, 2006.0, 44.7884
31.530901288, 96.390, 1915.0, 43.7607
31.557161854, 96.390, 1940.0, 44.0454
31.583422419, 96.390, 1791.0, 42.3202
31.609682984, 96.390, 2012.0, 44.8553
31.635943550, 96.390, 2238.0, 47.3075
31.662204115, 96.390, 2435.0, 49.3457
31.688464680, 96.390, 2814.0, 53.0471
31.714725246, 96.390, 3515.0, 59.2874
31.740985811, 96.390, 3434.0, 58.6003
31.767246376, 96.390, 2557.0, 50.5668
31.793506942, 96.390, 2387.0, 48.8569
31.819767507, 96.390, 2463.0, 49.6286
31.846028072, 96.390, 1935.0, 43.9886
31.872288638, 96.390, 1744.0, 41.7612
31.898549203, 96.390, 1833.0, 42.8135
31.924809769, 96.390, 1911.0, 43.7150
31.951070334, 96.390, 1999.0, 44.7102
31.977330899, 96.390, 1903.0, 43.6234
32.003591465, 96.390, 1846.0, 42.9651
32.029852030, 96.390, 1822.0, 42.6849
32.056112595, 96.390, 1749.0, 41.8210
32.082373161, 96.390, 1781.0, 42.2019
32.108633726, 96.390, 1696.0, 41.1825
32.134894291, 96.390, 1753.0, 41.8688
32.161154857, 96.390, 1775.0, 42.1307
32.187415422, 96.390, 1801.0, 42.4382
32.213675987, 96.390, 1631.0, 40.3856
32.239936553, 96.390, 1646.0, 40.5709
32.266197118, 96.390, 1706.0, 41.3038
32.292457683, 96.390, 1830.0, 42.7785
32.318718249, 96.390, 1756.0, 41.9047
32.344978814, 96.390, 1671.0, 40.8779
32.371239380, 96.390, 1805.0, 42.4853
32.397499945, 96.390, 1770.0, 42.0714
32.423760510, 96.390, 1711.0, 41.3642
32.450021076, 96.390, 1856.0, 43.0813
32.476281641, 96.390, 1778.0, 42.1663
32.502542206, 96.390, 1686.0, 41.0609
32.528802772, 96.390, 1597.0, 39.9625
32.555063337, 96.390, 1671.0, 40.8779
32.581323902, 96.390, 1747.0, 41.7971
32.607584468, 96.390, 1777.0, 42.1545
32.633845033, 96.390, 1866.0, 43.1972
32.660105598, 96.390, 1826.0, 42.7317
32.686366164, 96.390, 1938.0, 44.0227
32.712626729, 96.390, 1900.0, 43.5890
32.738887295, 96.390, 1803.0, 42.4617
32.765147860, 96.390, 1703.0, 41.2674
32.791408425, 96.390, 1592.0, 39.8999
32.817668991, 96.390, 1688.0, 41.0853
32.843929556, 96.390, 1673.0, 40.9023
32.870190121, 96.390, 1688.0, 41.0853
32.896450687, 96.390, 1937.0, 44.0114
32.922711252, 96.390, 1887.0, 43.4396
32.948971817, 96.390, 2033.0, 45.0888
32.975232383, 96.390, 2036.0, 45.1221
33.001492948, 96.390, 2205.0, 46.9574
33.027753513, 96.390, 2454.0, 49.5379
33.054014079, 96.390, 2578.0, 50.7740
33.080274644, 96.390, 2631.0, 51.2933
33.106535209, 96.390, 2908.0, 53.9259
33.132795775, 96.390, 2841.0, 53.3010
33.159056340, 96.390, 2688.0, 51.8459
33.185316906, 96.390, 2537.0, 50.3686
33.211577471, 96.390, 2381.0, 48.7955
33.237838036, 96.390, 2360.0, 48.5798
33.264098602, 96.390, 2187.0, 46.7654
33.290359167, 96.390, 2033.0, 45.0888
33.316619732, 96.390, 2017.0, 44.9110
33.342880298, 96.390, 2149.0, 46.3573
33.369140863, 96.390, 2548.0, 50.4777
33.395401428, 96.390, 2828.0, 53.1789
33.421661994, 96.390, 3919.0, 62.6019
33.447922559, 96.390, 4381.0, 66.1891
33.474183124, 96.390, 4495.0, 67.0448
33.500443690, 96.390, 3625.0, 60.2080
33.526704255, 96.390, 3094.0, 55.6237
33.552964820, 96.390, 2846.0, 53.3479
33.579225386, 96.390, 2305.0, 48.0104
33.605485951, 96.390, 1877.0, 43.3244
33.631746517, 96.390, 1658.0, 40.7185
33.658007082, 96.390, 1684.0, 41.0366
33.684267647, 96.390, 1654.0, 40.6694
33.710528213, 96.390, 1643.0, 40.5339
33.736788778, 96.390, 1688.0, 41.0853
33.763049343, 96.390, 1635.0, 40.4351
33.789309909, 96.390, 1727.0, 41.5572
33.815570474, 96.390, 1747.0, 41.7971
33.841831039, 96.390, 1772.0, 42.0951
33.868091605, 96.390, 1929.0, 43.9204
33.894352170, 96.390, 2012.0, 44.8553
33.920612735, 96.390, 1952.0, 44.1814
33.946873301, 96.390, 1980.0, 44.4972
33.973133866, 96.390, 2051.0, 45.2880
33.999394432, 96.390, 1974.0, 44.4297
34.025654997, 96.390, 1952.0, 44.1814
34.051915562, 96.390, 1890.0, 43.4741
34.078176128, 96.390, 1846.0, 42.9651
34.104436693, 96.390, 1794.0, 42.3556
34.130697258, 96.390, 1861.0, 43.1393
34.156957824, 96.390, 1823.0, 42.6966
34.183218389, 96.390, 1852.0, 43.0349
34.209478954, 96.390, 1952.0, 44.1814
34.235739520, 96.390, 2070.0, 45.4973
34.262000085, 96.390, 1989.0, 44.5982
34.288260650, 96.390, 2151.0, 46.3789
34.314521216, 96.390, 2371.0, 48.6929
34.340781781, 96.390, 2266.0, 47.6025
34.367042346, 96.390, 2289.0, 47.8435
34.393302912, 96.390, 2296.0, 47.9166
34.419563477, 96.390, 2103.0, 45.8585
34.445824043, 96.390, 2098.0, 45.8039
34.472084608, 96.390, 2076.0, 45.5631
34.498345173, 96.390, 2064.0, 45.4313
34.524605739, 96.390, 2019.0, 44.9333
34.550866304, 96.390, 2126.0, 46.1086
34.577126869, 96.390, 2127.0, 46.1194
34.603387435, 96.390, 2162.0, 46.4973
34.629648000, 96.390, 2281.0, 47.7598
34.655908565, 96.390, 2367.0, 48.6518
34.682169131, 96.390, 2493.0, 49.9300
34.708429696, 96.390, 2279.0, 47.7389
34.734690261, 96.390, 2349.0, 48.4665
34.760950827, 96.390, 2268.0, 47.6235
34.787211392, 96.390, 2352.0, 48.4974
34.813471958, 96.390, 2134.0, 46.1952
34.839732523, 96.390, 2105.0, 45.8803
34.865993088, 96.390, 2109.0, 45.9239
34.892253654, 96.390, 2162.0, 46.4973
34.918514219, 96.390, 2263.0, 47.5710
34.944774784, 96.390, 2454.0, 49.5379
34.971035350, 96.390, 2807.0, 52.9811
34.997295915, 96.390, 3295.0, 57.4021
35.023556480, 96.390, 3159.0, 56.2050
35.049817046, 96.390, 2719.0, 52.1440
35.076077611, 96.390, 2654.0, 51.5170
35.102338176, 96.390, 2671.0, 51.6817
35.128598742, 96.390, 2464.0, 49.6387
35.154859307, 96.390, 2291.0, 47.8644
35.181119872, 96.390, 2443.0, 49.4267
35.207380438, 96.390, 2801.0, 52.9245
35.233641003, 96.390, 2689.0, 51.8556
35.259901569, 96.390, 2428.0, 49.2747
35.286162134, 96.390, 2284.0, 47.7912
35.312422699, 96.390, 2381.0, 48.7955
35.338683265, 96.390, 2156.0, 46.4327
35.364943830, 96.390, 1990.0, 44.6094
35.391204395, 96.390, 1869.0, 43.2319
35.417464961, 96.390, 1854.0, 43.0581
35.443725526, 96.390, 1803.0, 42.4617
35.469986091, 96.390, 1900.0, 43.5890
35.496246657, 96.390, 1794.0, 42.3556
35.522507222, 96.390, 1920.0, 43.8178
35.548767787, 96.390, 1952.0, 44.1814
35.575028353, 96.390, 1931.0, 43.9431
35.601288918, 96.390, 1897.0, 43.5546
35.627549484, 96.390, 1915.0, 43.7607
35.653810049, 96.390, 2042.0, 45.1885
35.680070614, 96.390, 2036.0, 45.1221
35.706331180, 96.390, 1966.0, 44.3396
35.732591745, 96.390, 1866.0, 43.1972
35.758852310, 96.390, 1832.0, 42.8019
35.785112876, 96.390, 1869.0, 43.2319
35.811373441, 96.390, 1942.0, 44.0681
35.837634006, 96.390, 1861.0, 43.1393
35.863894572, 96.390, 1903.0, 43.6234
35.890155137, 96.390, 1877.0, 43.3244
35.916415702, 96.390, 1931.0, 43.9431
35.942676268, 96.390, 2050.0, 45.2769
35.968936833, 96.390, 2145.0, 46.3141
35.995197398, 96.390, 2227.0, 47.1911
36.021457964, 96.390, 2183.0, 46.7226
36.047718529, 96.390, 1931.0, 43.9431
36.073979095, 96.390, 1842.0, 42.9185
36.100239660, 96.390, 1883.0, 43.3935
36.126500225, 96.390, 1776.0, 42.1426
36.152760791, 96.390, 1683.0, 41.0244
36.179021356, 96.390, 1580.0, 39.7492
36.205281921, 96.390, 1656.0, 40.6940
36.231542487, 96.390, 1609.0, 40.1123
36.257803052, 96.390, 1643.0, 40.5339
36.284063617, 96.390, 1773.0, 42.1070
36.310324183, 96.390, 1898.0, 43.5660
36.336584748, 96.390, 1932.0, 43.9545
36.362845313, 96.390, 1970.0, 44.3847
36.389105879, 96.390, 2024.0, 44.9889
36.415366444, 96.390, 1814.0, 42.5911
36.441627010, 96.390, 1678.0, 40.9634
36.467887575, 96.390, 1809.0, 42.5323
36.494148140, 96.390, 1703.0, 41.2674
36.520408706, 96.390, 1651.0, 40.6325
36.546669271, 96.390, 1539.0, 39.2301
36.572929836, 96.390, 1479.0, 38.4578
36.599190402, 96.390, 1500.0, 38.7298
36.625450967, 96.390, 1577.0, 39.7115
36.651711532, 96.390, 1593.0, 39.9124
36.677972098, 96.390, 1728.0, 41.5692
36.704232663, 96.390, 1862.0, 43.1509
36.730493228, 96.390, 1637.0, 40.4599
36.756753794, 96.390, 1531.0, 39.1280
36.783014359, 96.390, 1540.0, 39.2428
36.809274924, 96.390, 1625.0, 40.3113
36.835535490, 96.390, 1482.0, 38.4968
36.861796055, 96.390, 1399.0, 37.4032
36.888056621, 96.390, 1441.0, 37.9605
36.914317186, 96.390, 1370.0, 37.0135
36.940577751, 96.390, 1393.0, 37.3229
36.966838317, 96.390, 1428.0, 37.7889
36.993098882, 96.390, 1423.0, 37.7227
37.019359447, 96.390, 1428.0, 37.7889
37.045620013, 96.390, 1457.0, 38.1707
37.071880578, 96.390, 1484.0, 38.5227
37.098141143, 96.390, 1455.0, 38.1445
37.124401709, 96.390, 1422.0, 37.7094
37.150662274, 96.390, 1443.0, 37.9868
37.176922839, 96.390, 1382.0, 37.1753
37.203183405, 96.390, 1465.0, 38.2753
37.229443970, 96.390, 1399.0, 37.4032
37.255704535, 96.390, 1415.0, 37.6165
37.281965101, 96.390, 1415.0, 37.6165
37.308225666, 96.390, 1442.0, 37.9737
37.334486232, 96.390, 1432.0, 37.8418
37.360746797, 96.390, 1554.0, 39.4208
37.387007362, 96.390, 1498.0, 38.7040
37.413267928, 96.390, 1459.0, 38.1969
37.439528493, 96.390, 1427.0, 37.7757
37.465789058, 96.390, 1479.0, 38.4578
37.492049624, 96.390, 1398.0, 37.3898
37.518310189, 96.390, 1400.0, 37.4166
37.544570754, 96.390, 1436.0, 37.8946
37.570831320, 96.390, 1361.0, 36.8917
37.597091885, 96.390, 1391.0, 37.2961
37.623352450, 96.390, 1459.0, 38.1969
37.649613016, 96.390, 1419.0, 37.6696
37.675873581, 96.390, 1491.0, 38.6135
37.702134147, 96.390, 1460.0, 38.2099
37.728394712, 96.390, 1395.0, 37.3497
37.754655277, 96.390, 1394.0, 37.3363
37.780915843, 96.390, 1530.0, 39.1152
37.807176408, 96.390, 1636.0, 40.4475
37.833436973, 96.390, 1714.0, 41.4005
37.859697539, 96.390, 1635.0, 40.4351
37.885958104, 96.390, 1722.0, 41.4970
37.912218669, 96.390, 1798.0, 42.4028
37.938479235, 96.390, 1673.0, 40.9023
37.964739800, 96.390, 1469.0, 38.3275
37.991000365, 96.390, 1581.0, 39.7618
38.017260931, 96.390, 1496.0, 38.6782
38.043521496, 96.390, 1454.0, 38.1314
38.069782061, 96.390, 1463.0, 38.2492
38.096042627, 96.390, 1515.0, 38.9230
38.122303192, 96.390, 1625.0, 40.3113
38.148563758, 96.390, 1491.0, 38.6135
38.174824323, 96.390, 1549.0, 39.3573
38.201084888, 96.390, 1663.0, 40.7799
38.227345454, 96.390, 1807.0, 42.5088
38.253606019, 96.390, 2005.0, 44.7772
38.279866584, 96.390, 2141.0, 46.2709
38.306127150, 96.390, 2264.0, 47.5815
38.332387715, 96.390, 1975.0, 44.4410
38.358648280, 96.390, 1861.0, 43.1393
38.384908846, 96.390, 1796.0, 42.3792
38.411169411, 96.390, 1849.0, 43.0000
38.437429976, 96.390, 1614.0, 40.1746
38.463690542, 96.390, 1534.0, 39.1663
38.489951107, 96.390, 1456.0, 38.1576
38.516211673, 96.390, 1445.0, 38.0132
38.542472238, 96.390, 1454.0, 38.1314
38.568732803, 96.390, 1358.0, 36.8511
38.594993369, 96.390, 1420.0, 37.6829
38.621253934, 96.390, 1404.0, 37.4700
38.647514499, 96.390, 1380.0, 37.1484
38.673775065, 96.390, 1446.0, 38.0263
38.700035630, 96.390, 1346.0, 36.6879
38.726296195, 96.390, 1388.0, 37.2559
38.752556761, 96.390, 1454.0, 38.1314
38.778817326, 96.390, 1404.0, 37.4700
38.805077891, 96.390, 1362.0, 36.9053
38.831338457, 96.390, 1336.0, 36.5513
38.857599022, 96.390, 1366.0, 36.9594
38.883859587, 96.390, 1319.0, 36.3180
38.910120153, 96.390, 1314.0, 36.2491
38.936380718, 96.390, 1312.0, 36.2215
38.962641284, 96.390, 1395.0, 37.3497
38.988901849, 96.390, 1544.0, 39.2938
39.015162414, 96.390, 1579.0, 39.7366
39.041422980, 96.390, 1542.0, 39.2683
39.067683545, 96.390, 1393.0, 37.3229
39.093944110, 96.390, 1423.0, 37.7227
39.120204676, 96.390, 1449.0, 38.0657
39.146465241, 96.390, 1474.0, 38.3927
39.172725806, 96.390, 1607.0, 40.0874
39.198986372, 96.390, 2313.0, 48.0937
39.225246937, 96.390, 2798.0, 52.8961
39.251507502, 96.390, 2902.0, 53.8702
39.277768068, 96.390, 2251.0, 47.4447
39.304028633, 96.390, 1930.0, 43.9318
39.330289199, 96.390, 1914.0, 43.7493
39.356549764, 96.390, 2053.0, 45.3100
39.382810329, 96.390, 1637.0, 40.4599
39.409070895, 96.390, 1417.0, 37.6431
39.435331460, 96.390, 1347.0, 36.7015
39.461592025, 96.390, 1278.0, 35.7491
39.487852591, 96.390, 1305.0, 36.1248
39.514113156, 96.390, 1292.0, 35.9444
39.540373721, 96.390, 1283.0, 35.8190
39.566634287, 96.390, 1348.0, 36.7151
39.592894852, 96.390, 1371.0, 37.0270
39.619155417, 96.390, 1390.0, 37.2827
39.645415983, 96.390, 1345.0, 36.6742
39.671676548, 96.390, 1345.0, 36.6742
39.697937113, 96.390, 1411.0, 37.5633
39.724197679, 96.390, 1581.0, 39.7618
39.750458244, 96.390, 1655.0, 40.6817
39.776718810, 96.390, 1691.0, 41.1218
39.802979375, 96.390, 1712.0, 41.3763
39.829239940, 96.390, 1767.0, 42.0357
39.855500506, 96.390, 1523.0, 39.0256
39.881761071, 96.390, 1509.0, 38.8458
39.908021636, 96.390, 1520.0, 38.9872
39.934282202, 96.390, 1496.0, 38.6782
39.960542767, 96.390, 1366.0, 36.9594
39.986803332, 96.390, 1250.0, 35.3553
40.013063898, 96.390, 1290.0, 35.9166
40.039324463, 96.390, 1357.0, 36.8375
40.065585028, 96.390, 1343.0, 36.6470
40.091845594, 96.390, 1293.0, 35.9583
40.118106159, 96.390, 1380.0, 37.1484
40.144366725, 96.390, 1533.0, 39.1535
40.170627290, 96.390, 1662.0, 40.7676
40.196887855, 96.390, 1527.0, 39.0768
40.223148421, 96.390, 1401.0, 37.4299
40.249408986, 96.390, 1398.0, 37.3898
40.275669551, 96.390, 1465.0, 38.2753
40.301930117, 96.390, 1361.0, 36.8917
40.328190682, 96.390, 1278.0, 35.7491
40.354451247, 96.390, 1259.0, 35.4824
40.380711813, 96.390, 1209.0, 34.7707
40.406972378, 96.390, 1219.0, 34.9142
40.433232943, 96.390, 1185.0, 34.4238
40.459493509, 96.390, 1153.0, 33.9559
40.485754074, 96.390, 1187.0, 34.4529
40.512014639, 96.390, 1144.0, 33.8231
40.538275205, 96.390, 1172.0, 34.2345
40.564535770, 96.390, 1236.0, 35.1568
40.590796336, 96.390, 1255.0, 35.4260
40.617056901, 96.390, 1196.0, 34.5832
40.643317466, 96.390, 1224.0, 34.9857
40.669578032, 96.390, 1201.0, 34.6554
40.695838597, 96.390, 1240.0, 35.2136
40.722099162, 96.390, 1155.0, 33.9853
40.748359728, 96.390, 1184.0, 34.4093
40.774620293, 96.390, 1191.0, 34.5109
40.800880858, 96.390, 1149.0, 33.8969
40.827141424, 96.390, 1113.0, 33.3617
40.853401989, 96.390, 1133.0, 33.6601
40.879662554, 96.390, 1158.0, 34.0294
40.905923120, 96.390, 1103.0, 33.2114
40.932183685, 96.390, 1103.0, 33.2114
40.958444251, 96.390, 1100.0, 33.1662
40.984704816, 96.390, 1176.0, 34.2929
41.010965381, 96.390, 1067.0, 32.6650
41.037225947, 96.390, 1119.0, 33.4515
41.063486512, 96.390, 1230.0, 35.0714
41.089747077, 96.390, 1156.0, 34.0000
41.116007643, 96.390, 1259.0, 35.4824
41.142268208, 96.390, 1201.0, 34.6554
41.168528773, 96.390, 1121.0, 33.4813
41.194789339, 96.390, 1221.0, 34.9428
41.221049904, 96.390, 1163.0, 34.1028
41.247310469, 96.390, 1121.0, 33.4813
41.273571035, 96.390, 1241.0, 35.2278
41.299831600, 96.390, 1258.0, 35.4683
41.326092165, 96.390, 1480.0, 38.4708
41.352352731, 96.390, 1693.0, 41.1461
41.378613296, 96.390, 1825.0, 42.7200
41.404873862, 96.390, 1398.0, 37.3898
41.431134427, 96.390, 1300.0, 36.0555
41.457394992, 96.390, 1348.0, 36.7151
41.483655558, 96.390, 1527.0, 39.0768
41.509916123, 96.390, 1252.0, 35.3836
41.536176688, 96.390, 1140.0, 33.7639
41.562437254, 96.390, 1184.0, 34.4093
41.588697819, 96.390, 1139.0, 33.7491
41.614958384, 96.390, 1076.0, 32.8024
41.641218950, 96.390, 1129.0, 33.6006
41.667479515, 96.390, 1079.0, 32.8481
41.693740080, 96.390, 1059.0, 32.5423
41.720000646, 96.390, 1092.0, 33.0454
41.746261211, 96.390, 1086.0, 32.9545
41.772521776, 96.390, 1055.0, 32.4808
41.798782342, 96.390, 1141.0, 33.7787
41.825042907, 96.390, 1030.0, 32.0936
41.851303473, 96.390, 1012.0, 31.8119
41.877564038, 96.390, 1086.0, 32.9545
41.903824603, 96.390, 1096.0, 33.1059
41.930085169, 96.390, 1080.0, 32.8634
41.956345734, 96.390, 984.0, 31.3688
41.982606299, 96.390, 1055.0, 32.4808
42.008866865, 96.390, 1083.0, 32.9090
42.035127430, 96.390, 1058.0, 32.5269
42.061387995, 96.390, 1191.0, 34.5109
42.087648561, 96.390, 1297.0, 36.0139
42.113909126, 96.390, 1544.0, 39.2938
42.140169691, 96.390, 1637.0, 40.4599
42.166430257, 96.390, 1538.0, 39.2173
42.192690822, 96.390, 1431.0, 37.8286
42.218951388, 96.390, 1451.0, 38.0920
42.245211953, 96.390, 1545.0, 39.3065
42.271472518, 96.390, 1591.0, 39.8873
42.297733084, 96.390, 1382.0, 37.1753
42.323993649, 96.390, 1218.0, 34.8999
42.350254214, 96.390, 1159.0, 34.0441
42.376514780, 96.390, 1147.0, 33.8674
42.402775345, 96.390, 1068.0, 32.6803
42.429035910, 96.390, 1063.0, 32.6037
42.455296476, 96.390, 1040.0, 32.2490
42.481557041, 96.390, 1085.0, 32.9393
42.507817606, 96.390, 1049.0, 32.3883
42.534078172, 96.390, 1078.0, 32.8329
42.560338737, 96.390, 1202.0, 34.6699
42.586599302, 96.390, 1142.0, 33.7935
42.612859868, 96.390, 1141.0, 33.7787
42.639120433, 96.390, 1143.0, 33.8083
42.665380999, 96.390, 1160.0, 34.0588
42.691641564, 96.390, 1132.0, 33.6452
42.717902129, 96.390, 1292.0, 35.9444
42.744162695, 96.390, 1320.0, 36.3318
42.770423260, 96.390, 1224.0, 34.9857
42.796683825, 96.390, 1137.0, 33.7194
42.822944391, 96.390, 1103.0, 33.2114
42.849204956, 96.390, 1174.0, 34.2637
42.875465521, 96.390, 1119.0, 33.4515
42.901726087, 96.390, 1029.0, 32.0780
42.927986652, 96.390, 1081.0, 32.8786
42.954247217, 96.390, 1028.0, 32.0624
42.980507783, 96.390, 1056.0, 32.4962
43.006768348, 96.390, 1134.0, 33.6749
43.033028914, 96.390, 1041.0, 32.2645
43.059289479, 96.390, 1038.0, 32.2180
43.085550044, 96.390, 1052.0, 32.4345
43.111810610, 96.390, 1006.0, 31.7175
43.138071175, 96.390, 1061.0, 32.5730
43.164331740, 96.390, 1113.0, 33.3617
43.190592306, 96.390, 1068.0, 32.6803
43.216852871, 96.390, 980.0, 31.3050
43.243113436, 96.390, 1044.0, 32.3110
43.269374002, 96.390, 1089.0, 33.0000
43.295634567, 96.390, 1076.0, 32.8024
43.321895132, 96.390, 1140.0, 33.7639
43.348155698, 96.390, 1043.0, 32.2955
43.374416263, 96.390, 1001.0, 31.6386
43.400676828, 96.390, 1049.0, 32.3883
43.426937394, 96.390, 1040.0, 32.2490
43.453197959, 96.390, 1016.0, 31.8748
43.479458525, 96.390, 1059.0, 32.5423
43.505719090, 96.390, 1111.0, 33.3317
43.531979655, 96.390, 1056.0, 32.4962
43.558240221, 96.390, 1148.0, 33.8821
43.584500786, 96.390, 1088.0, 32.9848
43.610761351, 96.390, 1148.0, 33.8821
43.637021917, 96.390, 1068.0, 32.6803
43.663282482, 96.390, 1052.0, 32.4345
43.689543047, 96.390, 1053.0, 32.4500
43.715803613, 96.390, 1072.0, 32.7414
43.742064178, 96.390, 999.0, 31.6070
43.768324743, 96.390, 1044.0, 32.3110
43.794585309, 96.390, 1023.0, 31.9844
43.820845874, 96.390, 1027.0, 32.0468
43.847106440, 96.390, 1011.0, 31.7962
43.873367005, 96.390, 1006.0, 31.7175
43.899627570, 96.390, 1032.0, 32.1248
43.925888136, 96.390, 1067.0, 32.6650
43.952148701, 96.390, 1032.0, 32.1248
43.978409266, 96.390, 996.0, 31.5595
44.004669832, 96.390, 1040.0, 32.2490
44.030930397, 96.390, 1056.0, 32.4962
44.057190962, 96.390, 1060.0, 32.5576
44.083451528, 96.390, 1029.0, 32.0780
44.109712093, 96.390, 1076.0, 32.8024
44.135972658, 96.390, 1071.0, 32.7261
44.162233224, 96.390, 1102.0, 33.1964
44.188493789, 96.390, 1146.0, 33.8526
44.214754354, 96.390, 1205.0, 34.7131
44.241014920, 96.390, 1250.0, 35.3553
44.267275485, 96.390, 1144.0, 33.8231
44.293536051, 96.390, 1108.0, 33.2866
44.319796616, 96.390, 1110.0, 33.3167
44.346057181, 96.390, 1119.0, 33.4515
44.372317747, 96.390, 1159.0, 34.0441
44.398578312, 96.390, 1134.0, 33.6749
44.424838877, 96.390, 1095.0, 33.0908
44.451099443, 96.390, 1072.0, 32.7414
44.477360008, 96.390, 1108.0, 33.2866
44.503620573, 96.390, 1054.0, 32.4654
44.529881139, 96.390, 1035.0, 32.1714
44.556141704, 96.390, 1125.0, 33.5410
44.582402269, 96.390, 1078.0, 32.8329
44.608662835, 96.390, 1105.0, 33.2415
44.634923400, 96.390, 1078.0, 32.8329
44.661183966, 96.390, 1108.0, 33.2866
44.687444531, 96.390, 1189.0, 34.4819
44.713705096, 96.390, 1221.0, 34.9428
44.739965662, 96.390, 1359.0, 36.8646
44.766226227, 96.390, 1359.0, 36.8646
44.792486792, 96.390, 1363.0, 36.9188
44.818747358, 96.390, 1277.0, 35.7351
44.845007923, 96.390, 1414.0, 37.6032
44.871268488, 96.390, 1389.0, 37.2693
44.897529054, 96.390, 1260.0, 35.4965
44.923789619, 96.390, 1183.0, 34.3948
44.950050184, 96.390, 1154.0, 33.9706
44.976310750, 96.390, 1214.0, 34.8425
45.002571315, 96.390, 1161.0, 34.0735
45.028831880, 96.390, 1113.0, 33.3617
45.055092446, 96.390, 1173.0, 34.2491
45.081353011, 96.390, 1241.0, 35.2278
45.107613577, 96.390, 1299.0, 36.0416
45.133874142, 96.390, 1403.0, 37.4566
45.160134707, 96.390, 1394.0, 37.3363
45.186395273, 96.390, 1202.0, 34.6699
45.212655838, 96.390, 1295.0, 35.9861
45.238916403, 96.390, 1337.0, 36.5650
45.265176969, 96.390, 1269.0, 35.6230
45.291437534, 96.390, 1180.0, 34.3511
45.317698099, 96.390, 1150.0, 33.9116
45.343958665, 96.390, 1170.0, 34.2053
45.370219230, 96.390, 1201.0, 34.6554
45.396479795, 96.390, 1210.0, 34.7851
45.422740361, 96.390, 1196.0, 34.5832
45.449000926, 96.390, 1170.0, 34.2053
45.475261492, 96.390, 1064.0, 32.6190
45.501522057, 96.390, 1159.0, 34.0441
45.527782622, 96.390, 1176.0, 34.2929
45.554043188, 96.390, 1203.0, 34.6843
45.580303753, 96.390, 1358.0, 36.8511
45.606564318, 96.390, 1318.0, 36.3043
45.632824884, 96.390, 1336.0, 36.5513
45.659085449, 96.390, 1238.0, 35.1852
45.685346014, 96.390, 1238.0, 35.1852
45.711606580, 96.390, 1276.0, 35.7211
45.737867145, 96.390, 1233.0, 35.1141
45.764127710, 96.390, 1256.0, 35.4401
45.790388276, 96.390, 1194.0, 34.5543
45.816648841, 96.390, 1114.0, 33.3766
45.842909406, 96.390, 1141.0, 33.7787
45.869169972, 96.390, 1206.0, 34.7275
45.895430537, 96.390, 1076.0, 32.8024
45.921691103, 96.390, 1144.0, 33.8231
45.947951668, 96.390, 1086.0, 32.9545
45.974212233, 96.390, 1150.0, 33.9116
46.000472799, 96.390, 1144.0, 33.8231
46.026733364, 96.390, 1138.0, 33.7343
46.052993929, 96.390, 1215.0, 34.8569
46.079254495, 96.390, 1226.0, 35.0143
46.105515060, 96.390, 1234.0, 35.1283
46.131775625, 96.390, 1406.0, 37.4967
46.158036191, 96.390, 1680.0, 40.9878
46.184296756, 96.390, 1879.0, 43.3474
46.210557321, 96.390, 1726.0, 41.5452
46.236817887, 96.390, 1562.0, 39.5221
46.263078452, 96.390, 1639.0, 40.4846
46.289339017, 96.390, 1805.0, 42.4853
46.315599583, 96.390, 1699.0, 41.2189
46.341860148, 96.390, 1596.0, 39.9500
46.368120714, 96.390, 1430.0, 37.8153
46.394381279, 96.390, 1515.0, 38.9230
46.420641844, 96.390, 1568.0, 39.5980
46.446902410, 96.390, 1508.0, 38.8330
46.473162975, 96.390, 1468.0, 38.3145
46.499423540, 96.390, 1358.0, 36.8511
46.525684106, 96.390, 1358.0, 36.8511
46.551944671, 96.390, 1397.0, 37.3765
46.578205236, 96.390, 1411.0, 37.5633
46.604465802, 96.390, 1331.0, 36.4829
46.630726367, 96.390, 1349.0, 36.7287
46.656986932, 96.390, 1448.0, 38.0526
46.683247498, 96.390, 1551.0, 39.3827
46.709508063, 96.390, 1469.0, 38.3275
46.735768629, 96.390, 1374.0, 37.0675
46.762029194, 96.390, 1274.0, 35.6931
46.788289759, 96.390, 1304.0, 36.1109
46.814550325, 96.390, 1323.0, 36.3731
46.840810890, 96.390, 1244.0, 35.2704
46.867071455, 96.390, 1118.0, 33.4365
46.893332021, 96.390, 1026.0, 32.0312
46.919592586, 96.390, 1070.0, 32.7109
46.945853151, 96.390, 1065.0, 32.6343
46.972113717, 96.390, 1035.0, 32.1714
46.998374282, 96.390, 1030.0, 32.0936
47.024634847, 96.390, 1060.0, 32.5576
47.050895413, 96.390, 1122.0, 33.4963
47.077155978, 96.390, 1058.0, 32.5269
47.103416543, 96.390, 1063.0, 32.6037
47.129677109, 96.390, 1085.0, 32.9393
47.155937674, 96.390, 1077.0, 32.8177
47.182198240, 96.390, 1028.0, 32.0624
47.208458805, 96.390, 1064.0, 32.6190
47.234719370, 96.390, 1116.0, 33.4066
47.260979936, 96.390, 1021.0, 31.9531
47.287240501, 96.390, 1049.0, 32.3883
47.313501066, 96.390, 1091.0, 33.0303
47.339761632, 96.390, 1117.0, 33.4215
47.366022197, 96.390, 1105.0, 33.2415
47.392282762, 96.390, 1051.0, 32.4191
47.418543328, 96.390, 1082.0, 32.8938
47.444803893, 96.390, 1096.0, 33.1059
47.471064458, 96.390, 1063.0, 32.6037
47.497325024, 96.390, 1056.0, 32.4962
47.523585589, 96.390, 1087.0, 32.9697
47.549846155, 96.390, 1134.0, 33.6749
47.576106720, 96.390, 1108.0, 33.2866
47.602367285, 96.390, 1053.0, 32.4500
47.628627851, 96.390, 1012.0, 31.8119
47.654888416, 96.390, 1036.0, 32.1870
47.681148981, 96.390, 1045.0, 32.3265
47.707409547, 96.390, 1117.0, 33.4215
47.733670112, 96.390, 1043.0, 32.2955
47.759930677, 96.390, 1029.0, 32.0780
47.786191243, 96.390, 1011.0, 31.7962
47.812451808, 96.390, 943.0, 30.7083
47.838712373, 96.390, 1040.0, 32.2490
47.864972939, 96.390, 1026.0, 32.0312
47.891233504, 96.390, 1047.0, 32.3574
47.917494069, 96.390, 1073.0, 32.7567
47.943754635, 96.390, 1025.0, 32.0156
47.970015200, 96.390, 1076.0, 32.8024
47.996275766, 96.390, 1036.0, 32.1870
48.022536331, 96.390, 1101.0, 33.1813
48.048796896, 96.390, 1063.0, 32.6037
48.075057462, 96.390, 1064.0, 32.6190
48.101318027, 96.390, 1142.0, 33.7935
48.127578592, 96.390, 1201.0, 34.6554
48.153839158, 96.390, 1087.0, 32.9697
48.180099723, 96.390, 1040.0, 32.2490
48.206360288, 96.390, 1030.0, 32.0936
48.232620854, 96.390, 1042.0, 32.2800
48.258881419, 96.390, 1087.0, 32.9697
48.285141984, 96.390, 1030.0, 32.0936
48.311402550, 96.390, 962.0, 31.0161
48.337663115, 96.390, 1092.0, 33.0454
48.363923681, 96.390, 1024.0, 32.0000
48.390184246, 96.390, 1027.0, 32.0468
48.416444811, 96.390, 1072.0, 32.7414
48.442705377, 96.390, 1123.0, 33.5112
48.468965942, 96.390, 1101.0, 33.1813
48.495226507, 96.390, 1131.0, 33.6303
48.521487073, 96.390, 1084.0, 32.9242
48.547747638, 96.390, 1127.0, 33.5708
48.574008203, 96.390, 1104.0, 33.2265
48.600268769, 96.390, 1114.0, 33.3766
48.626529334, 96.390, 1122.0, 33.4963
48.652789899, 96.390, 1006.0, 31.7175
48.679050465, 96.390, 1074.0, 32.7719
48.705311030, 96.390, 1116.0, 33.4066
48.731571595, 96.390, 1060.0, 32.5576
48.757832161, 96.390, 1086.0, 32.9545
48.784092726, 96.390, 1074.0, 32.7719
48.810353292, 96.390, 1082.0, 32.8938
48.836613857, 96.390, 1045.0, 32.3265
48.862874422, 96.390, 1005.0, 31.7017
48.889134988, 96.390, 1033.0, 32.1403
48.915395553, 96.390, 993.0, 31.5119
48.941656118, 96.390, 1127.0, 33.5708
48.967916684, 96.390, 1020.0, 31.9374
48.994177249, 96.390, 1104.0, 33.2265
49.020437814, 96.390, 989.0, 31.4484
49.046698380, 96.390, 964.0, 31.0483
49.072958945, 96.390, 1040.0, 32.2490
49.099219510, 96.390, 1046.0, 32.3419
49.125480076, 96.390, 1083.0, 32.9090
49.151740641, 96.390, 1037.0, 32.2025
49.178001207, 96.390, 981.0, 31.3209
49.204261772, 96.390, 908.0, 30.1330
49.230522337, 96.390, 999.0, 31.6070
49.256782903, 96.390, 967.0, 31.0966
49.283043468, 96.390, 947.0, 30.7734
49.309304033, 96.390, 996.0, 31.5595
49.335564599, 96.390, 1007.0, 31.7333
49.361825164, 96.390, 1016.0, 31.8748
49.388085729, 96.390, 1038.0, 32.2180
49.414346295, 96.390, 989.0, 31.4484
49.440606860, 96.390, 1042.0, 32.2800
49.466867425, 96.390, 1010.0, 31.7805
49.493127991, 96.390, 991.0, 31.4802
49.519388556, 96.390, 1041.0, 32.2645
49.545649121, 96.390, 1020.0, 31.9374
49.571909687, 96.390, 1072.0, 32.7414
49.598170252, 96.390, 1065.0, 32.6343
49.624430818, 96.390, 1112.0, 33.3467
49.650691383, 96.390, 1133.0, 33.6601
49.676951948, 96.390, 1137.0, 33.7194
49.703212514, 96.390, 1091.0, 33.0303
49.729473079, 96.390, 1179.0, 34.3366
49.755733644, 96.390, 1099.0, 33.1512
49.781994210, 96.390, 1055.0, 32.4808
49.808254775, 96.390, 1010.0, 31.7805
49.834515340, 96.390, 1053.0, 32.4500
49.860775906, 96.390, 967.0, 31.0966
49.887036471, 96.390, 1013.0, 31.8277
49.913297036, 96.390, 978.0, 31.2730
49.939557602, 96.390, 913.0, 30.2159
49.965818167, 96.390, 893.0, 29.8831
49.992078732, 96.390, 910.0, 30.1662
50.018339298, 96.390, 836.0, 28.9137
50.044599863, 96.390, 845.0, 29.0689
50.070860429, 96.390, 891.0, 29.8496
50.097120994, 96.390, 851.0, 29.1719
50.123381559, 96.390, 888.0, 29.7993
50.149642125, 96.390, 886.0, 29.7658
50.175902690, 96.390, 948.0, 30.7896
50.202163255, 96.390, 884.0, 29.7321
50.228423821, 96.390, 871.0, 29.5127
50.254684386, 96.390, 882.0, 29.6985
50.280944951, 96.390, 954.0, 30.8869
50.307205517, 96.390, 897.0, 29.9500
50.333466082, 96.390, 907.0, 30.1164
50.359726647, 96.390, 961.0, 31.0000
50.385987213, 96.390, 849.0, 29.1376
50.412247778, 96.390, 889.0, 29.8161
50.438508344, 96.390, 848.0, 29.1204
50.464768909, 96.390, 847.0, 29.1033
50.491029474, 96.390, 847.0, 29.1033
50.517290040, 96.390, 976.0, 31.2410
50.543550605, 96.390, 916.0, 30.2655
50.569811170, 96.390, 897.0, 29.9500
50.596071736, 96.390, 806.0, 28.3901
50.622332301, 96.390, 863.0, 29.3769
50.648592866, 96.390, 890.0, 29.8329
50.674853432, 96.390, 873.0, 29.5466
50.701113997, 96.390, 874.0, 29.5635
50.727374562, 96.390, 847.0, 29.1033
50.753635128, 96.390, 846.0, 29.0861
50.779895693, 96.390, 932.0, 30.5287
50.806156258, 96.390, 885.0, 29.7489
50.832416824, 96.390, 840.0, 28.9828
50.858677389, 96.390, 873.0, 29.5466
50.884937955, 96.390, 820.0, 28.6356
50.911198520, 96.390, 839.0, 28.9655
50.937459085, 96.390, 861.0, 29.3428
50.963719651, 96.390, 980.0, 31.3050
50.989980216, 96.390, 1101.0, 33.1813
51.016240781, 96.390, 1107.0, 33.2716
51.042501347, 96.390, 1021.0, 31.9531
51.068761912, 96.390, 961.0, 31.0000
51.095022477, 96.390, 921.0, 30.3480
51.121283043, 96.390, 954.0, 30.8869
51.147543608, 96.390, 1077.0, 32.8177
51.173804173, 96.390, 951.0, 30.8383
51.200064739, 96.390, 909.0, 30.1496
51.226325304, 96.390, 839.0, 28.9655
51.252585870, 96.390, 853.0, 29.2062
51.278846435, 96.390, 799.0, 28.2666
51.305107000, 96.390, 821.0, 28.6531
51.331367566, 96.390, 840.0, 28.9828
51.357628131, 96.390, 881.0, 29.6816
51.383888696, 96.390, 1058.0, 32.5269
51.410149262, 96.390, 1109.0, 33.3017
51.436409827, 96.390, 1031.0, 32.1092
51.462670392, 96.390, 954.0, 30.8869
51.488930958, 96.390, 894.0, 29.8998
51.515191523, 96.390, 887.0, 29.7825
51.541452088, 96.390, 940.0, 30.6594
51.567712654, 96.390, 974.0, 31.2090
51.593973219, 96.390, 871.0, 29.5127
51.620233784, 96.390, 814.0, 28.5307
51.646494350, 96.390, 871.0, 29.5127
51.672754915, 96.390, 849.0, 29.1376
51.699015481, 96.390, 848.0, 29.1204
51.725276046, 96.390, 832.0, 28.8444
51.751536611, 96.390, 817.0, 28.5832
51.777797177, 96.390, 842.0, 29.0172
51.804057742, 96.390, 835.0, 28.8964
51.830318307, 96.390, 875.0, 29.5804
51.856578873, 96.390, 811.0, 28.4781
51.882839438, 96.390, 878.0, 29.6311
51.909100003, 96.390, 913.0, 30.2159
51.935360569, 96.390, 863.0, 29.3769
51.961621134, 96.390, 818.0, 28.6007
51.987881699, 96.390, 867.0, 29.4449
52.014142265, 96.390, 851.0, 29.1719
52.040402830, 96.390, 876.0, 29.5973
52.066663396, 96.390, 838.0, 28.9482
52.092923961, 96.390, 796.0, 28.2135
52.119184526, 96.390, 790.0, 28.1069
52.145445092, 96.390, 842.0, 29.0172
52.171705657, 96.390, 818.0, 28.6007
52.197966222, 96.390, 839.0, 28.9655
52.224226788, 96.390, 796.0, 28.2135
52.250487353, 96.390, 887.0, 29.7825
52.276747918, 96.390, 817.0, 28.5832
52.303008484, 96.390, 899.0, 29.9833
52.329269049, 96.390, 854.0, 29.2233
52.355529614, 96.390, 968.0, 31.1127
52.381790180, 96.390, 979.0, 31.2890
52.408050745, 96.390, 988.0, 31.4325
52.434311310, 96.390, 997.0, 31.5753
52.460571876, 96.390, 912.0, 30.1993
52.486832441, 96.390, 881.0, 29.6816
52.513093007, 96.390, 964.0, 31.0483
52.539353572, 96.390, 959.0, 30.9677
52.565614137, 96.390, 1040.0, 32.2490
52.591874703, 96.390, 968.0, 31.1127
52.618135268, 96.390, 896.0, 29.9333
52.644395833, 96.390, 868.0, 29.4618
52.670656399, 96.390, 1048.0, 32.3728
52.696916964, 96.390, 1045.0, 32.3265
52.723177529, 96.390, 1003.0, 31.6702
52.749438095, 96.390, 950.0, 30.8221
52.775698660, 96.390, 884.0, 29.7321
52.801959225, 96.390, 877.0, 29.6142
52.828219791, 96.390, 951.0, 30.8383
52.854480356, 96.390, 986.0, 31.4006
52.880740922, 96.390, 1081.0, 32.8786
52.907001487, 96.390, 1050.0, 32.4037
52.933262052, 96.390, 900.0, 30.0000
52.959522618, 96.390, 941.0, 30.6757
52.985783183, 96.390, 904.0, 30.0666
53.012043748, 96.390, 927.0, 30.4467
53.038304314, 96.390, 930.0, 30.4959
53.064564879, 96.390, 923.0, 30.3809
53.090825444, 96.390, 933.0, 30.5450
53.117086010, 96.390, 962.0, 31.0161
53.143346575, 96.390, 1040.0, 32.2490
53.169607140, 96.390, 1059.0, 32.5423
53.195867706, 96.390, 966.0, 31.0805
53.222128271, 96.390, 880.0, 29.6648
53.248388836, 96.390, 863.0, 29.3769
53.274649402, 96.390, 902.0, 30.0333
53.300909967, 96.390, 942.0, 30.6920
53.327170533, 96.390, 905.0, 30.0832
53.353431098, 96.390, 845.0, 29.0689
53.379691663, 96.390, 807.0, 28.4077
53.405952229, 96.390, 796.0, 28.2135
53.432212794, 96.390, 793.0, 28.1603
53.458473359, 96.390, 740.0, 27.2029
53.484733925, 96.390, 828.0, 28.7750
53.510994490, 96.390, 742.0, 27.2397
53.537255055, 96.390, 781.0, 27.9464
53.563515621, 96.390, 807.0, 28.4077
53.589776186, 96.390, 728.0, 26.9815
53.616036751, 96.390, 757.0, 27.5136
53.642297317, 96.390, 755.0, 27.4773
53.668557882, 96.390, 827.0, 28.7576
53.694818448, 96.390, 761.0, 27.5862
53.721079013, 96.390, 736.0, 27.1293
53.747339578, 96.390, 772.0, 27.7849
53.773600144, 96.390, 793.0, 28.1603
53.799860709, 96.390, 845.0, 29.0689
53.826121274, 96.390, 827.0, 28.7576
53.852381840, 96.390, 929.0, 30.4795
53.878642405, 96.390, 925.0, 30.4138
53.904902970, 96.390, 898.0, 29.9666
53.931163536, 96.390, 900.0, 30.0000
53.957424101, 96.390, 844.0, 29.0517
53.983684666, 96.390, 865.0, 29.4109
54.009945232, 96.390, 873.0, 29.5466
54.036205797, 96.390, 915.0, 30.2490
54.062466362, 96.390, 937.0, 30.6105
54.088726928, 96.390, 957.0, 30.9354
54.114987493, 96.390, 975.0, 31.2250
54.141248059, 96.390, 943.0, 30.7083
54.167508624, 96.390, 971.0, 31.1609
54.193769189, 96.390, 822.0, 28.6705
54.220029755, 96.390, 823.0, 28.6880
54.246290320, 96.390, 903.0, 30.0500
54.272550885, 96.390, 928.0, 30.4631
54.298811451, 96.390, 919.0, 30.3150
54.325072016, 96.390, 919.0, 30.3150
54.351332581, 96.390, 839.0, 28.9655
54.377593147, 96.390, 848.0, 29.1204
54.403853712, 96.390, 791.0, 28.1247
54.430114277, 96.390, 853.0, 29.2062
54.456374843, 96.390, 775.0, 27.8388
54.482635408, 96.390, 777.0, 27.8747
54.508895973, 96.390, 840.0, 28.9828
54.535156539, 96.390, 774.0, 27.8209
54.561417104, 96.390, 854.0, 29.2233
54.587677670, 96.390, 918.0, 30.2985
54.613938235, 96.390, 800.0, 28.2843
54.640198800, 96.390, 850.0, 29.1548
54.666459366, 96.390, 795.0, 28.1957
54.692719931, 96.390, 844.0, 29.0517
54.718980496, 96.390, 827.0, 28.7576
54.745241062, 96.390, 834.0, 28.8791
54.771501627, 96.390, 800.0, 28.2843
54.797762192, 96.390, 844.0, 29.0517
54.824022758, 96.390, 772.0, 27.7849
54.850283323, 96.390, 851.0, 29.1719
54.876543888, 96.390, 900.0, 30.0000
54.902804454, 96.390, 913.0, 30.2159
54.929065019, 96.390, 907.0, 30.1164
54.955325585, 96.390, 939.0, 30.6431
54.981586150, 96.390, 967.0, 31.0966
55.007846715, 96.390, 960.0, 30.9839
55.034107281, 96.390, 911.0, 30.1828
55.060367846, 96.390, 902.0, 30.0333
55.086628411, 96.390, 858.0, 29.2916
55.112888977, 96.390, 885.0, 29.7489
55.139149542, 96.390, 858.0, 29.2916
55.165410107, 96.390, 835.0, 28.8964
55.191670673, 96.390, 793.0, 28.1603
55.217931238, 96.390, 772.0, 27.7849
55.244191803, 96.390, 790.0, 28.1069
55.270452369, 96.390, 727.0, 26.9629
55.296712934, 96.390, 765.0, 27.6586
55.322973499, 96.390, 730.0, 27.0185
55.349234065, 96.390, 777.0, 27.8747
55.375494630, 96.390, 821.0, 28.6531
55.401755196, 96.390, 825.0, 28.7228
55.428015761, 96.390, 895.0, 29.9166
55.454276326, 96.390, 894.0, 29.8998
55.480536892, 96.390, 831.0, 28.8271
55.506797457, 96.390, 740.0, 27.2029
55.533058022, 96.390, 781.0, 27.9464
55.559318588, 96.390, 771.0, 27.7669
55.585579153, 96.390, 807.0, 28.4077
55.611839718, 96.390, 754.0, 27.4591
55.638100284, 96.390, 771.0, 27.7669
55.664360849, 96.390, 753.0, 27.4408
55.690621414, 96.390, 728.0, 26.9815
55.716881980, 96.390, 681.0, 26.0960
55.743142545, 96.390, 733.0, 27.0740
55.769403111, 96.390, 723.0, 26.8887
55.795663676, 96.390, 705.0, 26.5518
55.821924241, 96.390, 689.0, 26.2488
55.848184807, 96.390, 735.0, 27.1109
55.874445372, 96.390, 686.0, 26.1916
55.900705937, 96.390, 737.0, 27.1477
55.926966503, 96.390, 742.0, 27.2397
55.953227068, 96.390, 731.0, 27.0370
55.979487633, 96.390, 734.0, 27.0924
56.005748199, 96.390, 762.0, 27.6043
56.032008764, 96.390, 744.0, 27.2764
56.058269329, 96.390, 794.0, 28.1780
56.084529895, 96.390, 812.0, 28.4956
56.110790460, 96.390, 722.0, 26.8701
56.137051025, 96.390, 752.0, 27.4226
56.163311591, 96.390, 736.0, 27.1293
56.189572156, 96.390, 769.0, 27.7308
56.215832722, 96.390, 738.0, 27.1662
56.242093287, 96.390, 721.0, 26.8514
56.268353852, 96.390, 732.0, 27.0555
56.294614418, 96.390, 730.0, 27.0185
56.320874983, 96.390, 715.0, 26.7395
56.347135548, 96.390, 726.0, 26.9444
56.373396114, 96.390, 749.0, 27.3679
56.399656679, 96.390, 719.0, 26.8142
56.425917244, 96.390, 752.0, 27.4226
56.452177810, 96.390, 778.0, 27.8927
56.478438375, 96.390, 708.0, 26.6083
56.504698940, 96.390, 750.0, 27.3861
56.530959506, 96.390, 775.0, 27.8388
56.557220071, 96.390, 760.0, 27.5681
56.583480637, 96.390, 726.0, 26.9444
56.609741202, 96.390, 741.0, 27.2213
56.636001767, 96.390, 733.0, 27.0740
56.662262333, 96.390, 737.0, 27.1477
56.688522898, 96.390, 714.0, 26.7208
56.714783463, 96.390, 700.0, 26.4575
56.741044029, 96.390, 712.0, 26.6833
56.767304594, 96.390, 671.0, 25.9037
56.793565159, 96.390, 643.0, 25.3574
56.819825725, 96.390, 767.0, 27.6948
56.846086290, 96.390, 760.0, 27.5681
56.872346855, 96.390, 724.0, 26.9072
56.898607421, 96.390, 687.0, 26.2107
56.924867986, 96.390, 700.0, 26.4575
56.951128551, 96.390, 668.0, 25.8457
56.977389117, 96.390, 707.0, 26.5895
57.003649682, 96.390, 668.0, 25.8457
57.029910248, 96.390, 684.0, 26.1534
57.056170813, 96.390, 709.0, 26.6271
57.082431378, 96.390, 693.0, 26.3249
57.108691944, 96.390, 710.0, 26.6458
57.134952509, 96.390, 710.0, 26.6458
57.161213074, 96.390, 663.0, 25.7488
57.187473640, 96.390, 733.0, 27.0740
57.213734205, 96.390, 709.0, 26.6271
57.239994770, 96.390, 686.0, 26.1916
57.266255336, 96.390, 691.0, 26.2869
57.292515901, 96.390, 757.0, 27.5136
57.318776466, 96.390, 698.0, 26.4197
57.345037032, 96.390, 725.0, 26.9258
57.371297597, 96.390, 737.0, 27.1477
57.397558163, 96.390, 745.0, 27.2947
57.423818728, 96.390, 784.0, 28.0000
57.450079293, 96.390, 823.0, 28.6880
57.476339859, 96.390, 841.0, 29.0000
57.502600424, 96.390, 838.0, 28.9482
57.528860989, 96.390, 800.0, 28.2843
57.555121555, 96.390, 800.0, 28.2843
57.581382120, 96.390, 803.0, 28.3373
57.607642685, 96.390, 921.0, 30.3480
57.633903251, 96.390, 1061.0, 32.5730
57.660163816, 96.390, 1495.0, 38.6652
57.686424381, 96.390, 1171.0, 34.2199
57.712684947, 96.390, 937.0, 30.6105
57.738945512, 96.390, 893.0, 29.8831
57.765206077, 96.390, 887.0, 29.7825
57.791466643, 96.390, 957.0, 30.9354
57.817727208, 96.390, 1046.0, 32.3419
57.843987774, 96.390, 987.0, 31.4166
57.870248339, 96.390, 794.0, 28.1780
57.896508904, 96.390, 801.0, 28.3019
57.922769470, 96.390, 718.0, 26.7955
57.949030035, 96.390, 688.0, 26.2298
57.975290600, 96.390, 700.0, 26.4575
58.001551166, 96.390, 742.0, 27.2397
58.027811731, 96.390, 715.0, 26.7395
58.054072296, 96.390, 714.0, 26.7208
58.080332862, 96.390, 707.0, 26.5895
58.106593427, 96.390, 692.0, 26.3059
58.132853992, 96.390, 715.0, 26.7395
58.159114558, 96.390, 717.0, 26.7769
58.185375123, 96.390, 717.0, 26.7769
58.211635689, 96.390, 680.0, 26.0768
58.237896254, 96.390, 729.0, 27.0000
58.264156819, 96.390, 757.0, 27.5136
58.290417385, 96.390, 747.0, 27.3313
58.316677950, 96.390, 709.0, 26.6271
58.342938515, 96.390, 704.0, 26.5330
58.369199081, 96.390, 725.0, 26.9258
58.395459646, 96.390, 758.0, 27.5318
58.421720211, 96.390, 761.0, 27.5862
58.447980777, 96.390, 771.0, 27.7669
58.474241342, 96.390, 729.0, 27.0000
58.500501907, 96.390, 727.0, 26.9629
58.526762473, 96.390, 745.0, 27.2947
58.553023038, 96.390, 725.0, 26.9258
58.579283603, 96.390, 698.0, 26.4197
58.605544169, 96.390, 673.0, 25.9422
58.631804734, 96.390, 695.0, 26.3629
58.658065300, 96.390, 712.0, 26.6833
58.684325865, 96.390, 627.0, 25.0400
58.710586430, 96.390, 670.0, 25.8844
58.736846996, 96.390, 711.0, 26.6646
58.763107561, 96.390, 679.0, 26.0576
58.789368126, 96.390, 733.0, 27.0740
58.815628692, 96.390, 636.0, 25.2190
58.841889257, 96.390, 678.0, 26.0384
58.868149822, 96.390, 679.0, 26.0576
58.894410388, 96.390, 694.0, 26.3439
58.920670953, 96.390, 694.0, 26.3439
58.946931518, 96.390, 686.0, 26.1916
58.973192084, 96.390, 691.0, 26.2869
58.999452649, 96.390, 644.0, 25.3772
59.025713214, 96.390, 703.0, 26.5141
59.051973780, 96.390, 679.0, 26.0576
59.078234345, 96.390, 744.0, 27.2764
59.104494911, 96.390, 684.0, 26.1534
59.130755476, 96.390, 710.0, 26.6458
59.157016041, 96.390, 714.0, 26.7208
59.183276607, 96.390, 713.0, 26.7021
59.209537172, 96.390, 719.0, 26.8142
59.235797737, 96.390, 707.0, 26.5895
59.262058303, 96.390, 694.0, 26.3439
59.288318868, 96.390, 726.0, 26.9444
59.314579433, 96.390, 767.0, 27.6948
59.340839999, 96.390, 722.0, 26.8701
59.367100564, 96.390, 753.0, 27.4408
59.393361129, 96.390, 746.0, 27.3130
59.419621695, 96.390, 686.0, 26.1916
59.445882260, 96.390, 776.0, 27.8568
59.472142826, 96.390, 750.0, 27.3861
59.498403391, 96.390, 782.0, 27.9643
59.524663956, 96.390, 684.0, 26.1534
59.550924522, 96.390, 721.0, 26.8514
59.577185087, 96.390, 706.0, 26.5707
59.603445652, 96.390, 732.0, 27.0555
59.629706218, 96.390, 795.0, 28.1957
59.655966783, 96.390, 760.0, 27.5681
59.682227348, 96.390, 771.0, 27.7669
59.708487914, 96.390, 711.0, 26.6646
59.734748479, 96.390, 755.0, 27.4773
59.761009044, 96.390, 766.0, 27.6767
59.787269610, 96.390, 707.0, 26.5895
59.813530175, 96.390, 754.0, 27.4591
59.839790740, 96.390, 766.0, 27.6767
59.866051306, 96.390, 735.0, 27.1109
59.892311871, 96.390, 742.0, 27.2397
59.918572437, 96.390, 735.0, 27.1109
59.944833002, 96.390, 756.0, 27.4955
59.971093567, 96.390, 772.0, 27.7849
59.997354133, 96.390, 797.0, 28.2312
60.023614698, 96.390, 762.0, 27.6043
60.049875263, 96.390, 727.0, 26.9629
60.076135829, 96.390, 743.0, 27.2580
60.102396394, 96.390, 716.0, 26.7582
60.128656959, 96.390, 773.0, 27.8029
60.154917525, 96.390, 783.0, 27.9821
60.181178090, 96.390, 798.0, 28.2489
60.207438655, 96.390, 774.0, 27.8209
60.233699221, 96.390, 775.0, 27.8388
60.259959786, 96.390, 780.0, 27.9285
60.286220352, 96.390, 797.0, 28.2312
60.312480917, 96.390, 773.0, 27.8029
60.338741482, 96.390, 821.0, 28.6531
60.365002048, 96.390, 837.0, 28.9310
60.391262613, 96.390, 837.0, 28.9310
60.417523178, 96.390, 910.0, 30.1662
60.443783744, 96.390, 812.0, 28.4956
60.470044309, 96.390, 925.0, 30.4138
60.496304874, 96.390, 894.0, 29.8998
60.522565440, 96.390, 880.0, 29.6648
60.548826005, 96.390, 891.0, 29.8496
60.575086570, 96.390, 945.0, 30.7409
60.601347136, 96.390, 1008.0, 31.7490
60.627607701, 96.390, 980.0, 31.3050
60.653868266, 96.390, 973.0, 31.1929
60.680128832, 96.390, 982.0, 31.3369
60.706389397, 96.390, 930.0, 30.4959
60.732649963, 96.390, 963.0, 31.0322
60.758910528, 96.390, 984.0, 31.3688
60.785171093, 96.390, 1008.0, 31.7490
60.811431659, 96.390, 1002.0, 31.6544
60.837692224, 96.390, 1082.0, 32.8938
60.863952789, 96.390, 1000.0, 31.6228
60.890213355, 96.390, 1000.0, 31.6228
60.916473920, 96.390, 1013.0, 31.8277
60.942734485, 96.390, 1058.0, 32.5269
60.968995051, 96.390, 1102.0, 33.1964
60.995255616, 96.390, 1146.0, 33.8526
61.021516181, 96.390, 1184.0, 34.4093
61.047776747, 96.390, 1238.0, 35.1852
61.074037312, 96.390, 1226.0, 35.0143
61.100297878, 96.390, 1135.0, 33.6898
61.126558443, 96.390, 1099.0, 33.1512
61.152819008, 96.390, 1153.0, 33.9559
61.179079574, 96.390, 1175.0, 34.2783
61.205340139, 96.390, 1143.0, 33.8083
61.231600704, 96.390, 1149.0, 33.8969
61.257861270, 96.390, 1144.0, 33.8231
61.284121835, 96.390, 1050.0, 32.4037
61.310382400, 96.390, 1121.0, 33.4813
61.336642966, 96.390, 1139.0, 33.7491
61.362903531, 96.390, 1094.0, 33.0757
61.389164096, 96.390, 1135.0, 33.6898
61.415424662, 96.390, 984.0, 31.3688
61.441685227, 96.390, 960.0, 30.9839
61.467945792, 96.390, 1001.0, 31.6386
61.494206358, 96.390, 971.0, 31.1609
61.520466923, 96.390, 1087.0, 32.9697
61.546727489, 96.390, 1040.0, 32.2490
61.572988054, 96.390, 1021.0, 31.9531
61.599248619, 96.390, 1004.0, 31.6860
61.625509185, 96.390, 1040.0, 32.2490
61.651769750, 96.390, 1024.0, 32.0000
61.678030315, 96.390, 976.0, 31.2410
61.704290881, 96.390, 967.0, 31.0966
61.730551446, 96.390, 936.0, 30.5941
61.756812011, 96.390, 987.0, 31.4166
61.783072577, 96.390, 1056.0, 32.4962
61.809333142, 96.390, 998.0, 31.5911
61.835593707, 96.390, 956.0, 30.9192
61.861854273, 96.390, 1004.0, 31.6860
61.888114838, 96.390, 993.0, 31.5119
61.914375404, 96.390, 918.0, 30.2985
61.940635969, 96.390, 997.0, 31.5753
61.966896534, 96.390, 1009.0, 31.7648
61.993157100, 96.390, 980.0, 31.3050
62.019417665, 96.390, 980.0, 31.3050
62.045678230, 96.390, 972.0, 31.1769
62.071938796, 96.390, 955.0, 30.9031
62.098199361, 96.390, 998.0, 31.5911
62.124459926, 96.390, 921.0, 30.3480
62.150720492, 96.390, 926.0, 30.4302
62.176981057, 96.390, 992.0, 31.4960
62.203241622, 96.390, 976.0, 31.2410
62.229502188, 96.390, 929.0, 30.4795
62.255762753, 96.390, 969.0, 31.1288
62.282023318, 96.390, 961.0, 31.0000
62.308283884, 96.390, 931.0, 30.5123
62.334544449, 96.390, 888.0, 29.7993
62.360805015, 96.390, 963.0, 31.0322
62.387065580, 96.390, 856.0, 29.2575
62.413326145, 96.390, 894.0, 29.8998
62.439586711, 96.390, 912.0, 30.1993
62.465847276, 96.390, 953.0, 30.8707
62.492107841, 96.390, 914.0, 30.2324
62.518368407, 96.390, 890.0, 29.8329
62.544628972, 96.390, 854.0, 29.2233
62.570889537, 96.390, 841.0, 29.0000
62.597150103, 96.390, 866.0, 29.4279
62.623410668, 96.390, 869.0, 29.4788
62.649671233, 96.390, 927.0, 30.4467
62.675931799, 96.390, 824.0, 28.7054
62.702192364, 96.390, 801.0, 28.3019
62.728452930, 96.390, 828.0, 28.7750
62.754713495, 96.390, 804.0, 28.3549
62.780974060, 96.390, 811.0, 28.4781
62.807234626, 96.390, 844.0, 29.0517
62.833495191, 96.390, 783.0, 27.9821
62.859755756, 96.390, 816.0, 28.5657
62.886016322, 96.390, 831.0, 28.8271
62.912276887, 96.390, 779.0, 27.9106
62.938537452, 96.390, 742.0, 27.2397
62.964798018, 96.390, 790.0, 28.1069
62.991058583, 96.390, 713.0, 26.7021
63.017319148, 96.390, 703.0, 26.5141
63.043579714, 96.390, 748.0, 27.3496
63.069840279, 96.390, 748.0, 27.3496
63.096100844, 96.390, 752.0, 27.4226
63.122361410, 96.390, 767.0, 27.6948
63.148621975, 96.390, 744.0, 27.2764
63.174882541, 96.390, 704.0, 26.5330
63.201143106, 96.390, 752.0, 27.4226
63.227403671, 96.390, 720.0, 26.8328
63.253664237, 96.390, 731.0, 27.0370
63.279924802, 96.390, 704.0, 26.5330
63.306185367, 96.390, 699.0, 26.4386
63.332445933, 96.390, 767.0, 27.6948
63.358706498, 96.390, 713.0, 26.7021
63.384967063, 96.390, 741.0, 27.2213
63.411227629, 96.390, 699.0, 26.4386
63.437488194, 96.390, 713.0, 26.7021
63.463748759, 96.390, 693.0, 26.3249
63.490009325, 96.390, 745.0, 27.2947
63.516269890, 96.390, 703.0, 26.5141
63.542530455, 96.390, 720.0, 26.8328
63.568791021, 96.390, 702.0, 26.4953
63.595051586, 96.390, 716.0, 26.7582
63.621312152, 96.390, 687.0, 26.2107
63.647572717, 96.390, 713.0, 26.7021
63.673833282, 96.390, 650.0, 25.4951
63.700093848, 96.390, 699.0, 26.4386
63.726354413, 96.390, 647.0, 25.4362
63.752614978, 96.390, 646.0, 25.4165
63.778875544, 96.390, 664.0, 25.7682
63.805136109, 96.390, 689.0, 26.2488
63.831396674, 96.390, 729.0, 27.0000
63.857657240, 96.390, 705.0, 26.5518
63.883917805, 96.390, 731.0, 27.0370
63.910178370, 96.390, 790.0, 28.1069
63.936438936, 96.390, 742.0, 27.2397
63.962699501, 96.390, 816.0, 28.5657
63.988960067, 96.390, 777.0, 27.8747
64.015220632, 96.390, 792.0, 28.1425
64.041481197, 96.390, 696.0, 26.3818
64.067741763, 96.390, 746.0, 27.3130
64.094002328, 96.390, 765.0, 27.6586
64.120262893, 96.390, 696.0, 26.3818
64.146523459, 96.390, 747.0, 27.3313
64.172784024, 96.390, 639.0, 25.2784
64.199044589, 96.390, 668.0, 25.8457
64.225305155, 96.390, 644.0, 25.3772
64.251565720, 96.390, 687.0, 26.2107
64.277826285, 96.390, 649.0, 25.4755
64.304086851, 96.390, 626.0, 25.0200
64.330347416, 96.390, 636.0, 25.2190
64.356607981, 96.390, 684.0, 26.1534
64.382868547, 96.390, 608.0, 24.6577
64.409129112, 96.390, 607.0, 24.6374
64.435389678, 96.390, 643.0, 25.3574
64.461650243, 96.390, 580.0, 24.0832
64.487910808, 96.390, 628.0, 25.0599
64.514171374, 96.390, 635.0, 25.1992
64.540431939, 96.390, 579.0, 24.0624
64.566692504, 96.390, 602.0, 24.5357
64.592953070, 96.390, 656.0, 25.6125
64.619213635, 96.390, 622.0, 24.9399
64.645474200, 96.390, 706.0, 26.5707
64.671734766, 96.390, 701.0, 26.4764
64.697995331, 96.390, 710.0, 26.6458
64.724255896, 96.390, 740.0, 27.2029
64.750516462, 96.390, 719.0, 26.8142
64.776777027, 96.390, 680.0, 26.0768
64.803037593, 96.390, 679.0, 26.0576
64.829298158, 96.390, 618.0, 24.8596
64.855558723, 96.390, 697.0, 26.4008
64.881819289, 96.390, 709.0, 26.6271
64.908079854, 96.390, 643.0, 25.3574
64.934340419, 96.390, 650.0, 25.4951
64.960600985, 96.390, 711.0, 26.6646
64.986861550, 96.390, 653.0, 25.5539
