[Measurement conditions]
Sample identification,110_P04Free14Apr22_Act18Apr22_B1_1000M_NaOH_LS0132_470day
Comment - 1,"Configuration=Stage for Flat Samples/Holders, Owner=nmw10, Creation date=9/21/2022 10:06:30 AM"
Comment - 2,"Goniometer=Theta/Theta; Minimum step size 2Theta:0.0001; Minimum step size Omega:0.0001"
Comment - 3,"Sample stage=Stage for flat samples/holders"
Comment - 4,"Diffractometer system=EMPYREAN"
Comment - 5,"Measurement program=C:\Users\tmr79\OneDrive - The Pennsylvania State University\Documents\NEUP\XRD\Cement\Zerobackground scan.xrdmp, Created identifier={98A3B11C-88F9-4AA6-982C-73314A311EF5}, Created by=Titus Reed, Id=tmr79, Creation date=10/26/2021 3:01:47 PM"
Anode material,Cu
K-Alpha1 wavelength,1.5405980
K-Alpha2 wavelength,1.5444260
Ratio K-Alpha2/K-Alpha1,0.500
Divergence slit,Fixed,0.25
Monochromator used,NO
Generator voltage, 45
Tube current, 40
File date and time,10/Aug/2023 08:34
Unit cell,
h k l, 0 0 0
Scan axis,Gonio
Scan range,4.994599997,64.999991833
Scan step size,0.0262606
No. of points, 2285
Scan type,CONTINUOUS
Time per step,96.390
[Scan points]
Angle, TimePerStep, Intensity, ESD
5.007730280, 96.390, 5191.0, 72.0486
5.033990845, 96.390, 5278.0, 72.6498
5.060251411, 96.390, 5347.0, 73.1232
5.086511976, 96.390, 5315.0, 72.9040
5.112772541, 96.390, 5325.0, 72.9726
5.139033107, 96.390, 5224.0, 72.2772
5.165293672, 96.390, 5260.0, 72.5259
5.191554237, 96.390, 5265.0, 72.5603
5.217814803, 96.390, 5391.0, 73.4234
5.244075368, 96.390, 5354.0, 73.1710
5.270335934, 96.390, 5317.0, 72.9178
5.296596499, 96.390, 5367.0, 73.2598
5.322857064, 96.390, 5522.0, 74.3102
5.349117630, 96.390, 5583.0, 74.7195
5.375378195, 96.390, 5567.0, 74.6123
5.401638760, 96.390, 5588.0, 74.7529
5.427899326, 96.390, 5585.0, 74.7329
5.454159891, 96.390, 5764.0, 75.9210
5.480420456, 96.390, 5850.0, 76.4853
5.506681022, 96.390, 5935.0, 77.0390
5.532941587, 96.390, 5915.0, 76.9090
5.559202152, 96.390, 6154.0, 78.4474
5.585462718, 96.390, 6155.0, 78.4538
5.611723283, 96.390, 6397.0, 79.9812
5.637983849, 96.390, 6590.0, 81.1788
5.664244414, 96.390, 6554.0, 80.9568
5.690504979, 96.390, 6711.0, 81.9207
5.716765545, 96.390, 7008.0, 83.7138
5.743026110, 96.390, 6930.0, 83.2466
5.769286675, 96.390, 7039.0, 83.8987
5.795547241, 96.390, 7035.0, 83.8749
5.821807806, 96.390, 6984.0, 83.5703
5.848068371, 96.390, 7009.0, 83.7198
5.874328937, 96.390, 6921.0, 83.1925
5.900589502, 96.390, 6948.0, 83.3547
5.926850067, 96.390, 7041.0, 83.9107
5.953110633, 96.390, 6946.0, 83.3427
5.979371198, 96.390, 6856.0, 82.8010
6.005631763, 96.390, 6809.0, 82.5167
6.031892329, 96.390, 6811.0, 82.5288
6.058152894, 96.390, 6831.0, 82.6499
6.084413460, 96.390, 6887.0, 82.9880
6.110674025, 96.390, 6685.0, 81.7618
6.136934590, 96.390, 6746.0, 82.1340
6.163195156, 96.390, 6596.0, 81.2158
6.189455721, 96.390, 6557.0, 80.9753
6.215716286, 96.390, 6402.0, 80.0125
6.241976852, 96.390, 6428.0, 80.1748
6.268237417, 96.390, 6283.0, 79.2654
6.294497982, 96.390, 6261.0, 79.1265
6.320758548, 96.390, 6134.0, 78.3199
6.347019113, 96.390, 6257.0, 79.1012
6.373279678, 96.390, 6150.0, 78.4219
6.399540244, 96.390, 6033.0, 77.6724
6.425800809, 96.390, 5995.0, 77.4274
6.452061375, 96.390, 5845.0, 76.4526
6.478321940, 96.390, 5759.0, 75.8881
6.504582505, 96.390, 5794.0, 76.1183
6.530843071, 96.390, 5700.0, 75.4983
6.557103636, 96.390, 5757.0, 75.8749
6.583364201, 96.390, 5689.0, 75.4255
6.609624767, 96.390, 5541.0, 74.4379
6.635885332, 96.390, 5545.0, 74.4648
6.662145897, 96.390, 5523.0, 74.3169
6.688406463, 96.390, 5497.0, 74.1418
6.714667028, 96.390, 5578.0, 74.6860
6.740927593, 96.390, 5325.0, 72.9726
6.767188159, 96.390, 5353.0, 73.1642
6.793448724, 96.390, 5319.0, 72.9315
6.819709289, 96.390, 5190.0, 72.0417
6.845969855, 96.390, 5121.0, 71.5612
6.872230420, 96.390, 5209.0, 72.1734
6.898490986, 96.390, 5174.0, 71.9305
6.924751551, 96.390, 5159.0, 71.8262
6.951012116, 96.390, 5234.0, 72.3464
6.977272682, 96.390, 5015.0, 70.8167
7.003533247, 96.390, 4908.0, 70.0571
7.029793812, 96.390, 4871.0, 69.7925
7.056054378, 96.390, 4765.0, 69.0290
7.082314943, 96.390, 4813.0, 69.3758
7.108575508, 96.390, 4979.0, 70.5620
7.134836074, 96.390, 4668.0, 68.3228
7.161096639, 96.390, 4655.0, 68.2276
7.187357204, 96.390, 4642.0, 68.1322
7.213617770, 96.390, 4445.0, 66.6708
7.239878335, 96.390, 4504.0, 67.1118
7.266138900, 96.390, 4464.0, 66.8132
7.292399466, 96.390, 4524.0, 67.2607
7.318660031, 96.390, 4440.0, 66.6333
7.344920597, 96.390, 4406.0, 66.3777
7.371181162, 96.390, 4286.0, 65.4675
7.397441727, 96.390, 4128.0, 64.2495
7.423702293, 96.390, 4141.0, 64.3506
7.449962858, 96.390, 4080.0, 63.8749
7.476223423, 96.390, 3849.0, 62.0403
7.502483989, 96.390, 3863.0, 62.1530
7.528744554, 96.390, 3829.0, 61.8789
7.555005119, 96.390, 3870.0, 62.2093
7.581265685, 96.390, 3788.0, 61.5467
7.607526250, 96.390, 3703.0, 60.8523
7.633786815, 96.390, 3868.0, 62.1932
7.660047381, 96.390, 3660.0, 60.4979
7.686307946, 96.390, 3643.0, 60.3573
7.712568512, 96.390, 3552.0, 59.5987
7.738829077, 96.390, 3498.0, 59.1439
7.765089642, 96.390, 3498.0, 59.1439
7.791350208, 96.390, 3484.0, 59.0254
7.817610773, 96.390, 3459.0, 58.8133
7.843871338, 96.390, 3372.0, 58.0689
7.870131904, 96.390, 3458.0, 58.8048
7.896392469, 96.390, 3325.0, 57.6628
7.922653034, 96.390, 3460.0, 58.8218
7.948913600, 96.390, 3197.0, 56.5420
7.975174165, 96.390, 3298.0, 57.4282
8.001434730, 96.390, 3172.0, 56.3205
8.027695296, 96.390, 3332.0, 57.7235
8.053955861, 96.390, 3225.0, 56.7891
8.080216426, 96.390, 3268.0, 57.1664
8.106476992, 96.390, 3212.0, 56.6745
8.132737557, 96.390, 3157.0, 56.1872
8.158998123, 96.390, 3177.0, 56.3649
8.185258688, 96.390, 3096.0, 55.6417
8.211519253, 96.390, 3122.0, 55.8749
8.237779819, 96.390, 3099.0, 55.6687
8.264040384, 96.390, 3033.0, 55.0727
8.290300949, 96.390, 2995.0, 54.7266
8.316561515, 96.390, 3123.0, 55.8838
8.342822080, 96.390, 3017.0, 54.9272
8.369082645, 96.390, 2965.0, 54.4518
8.395343211, 96.390, 2967.0, 54.4702
8.421603776, 96.390, 2906.0, 53.9073
8.447864341, 96.390, 2987.0, 54.6535
8.474124907, 96.390, 3029.0, 55.0364
8.500385472, 96.390, 2842.0, 53.3104
8.526646038, 96.390, 2943.0, 54.2494
8.552906603, 96.390, 2903.0, 53.8795
8.579167168, 96.390, 2900.0, 53.8516
8.605427734, 96.390, 2884.0, 53.7029
8.631688299, 96.390, 2917.0, 54.0093
8.657948864, 96.390, 2910.0, 53.9444
8.684209430, 96.390, 2840.0, 53.2917
8.710469995, 96.390, 2844.0, 53.3292
8.736730560, 96.390, 2822.0, 53.1225
8.762991126, 96.390, 2813.0, 53.0377
8.789251691, 96.390, 2841.0, 53.3010
8.815512256, 96.390, 2910.0, 53.9444
8.841772822, 96.390, 2765.0, 52.5833
8.868033387, 96.390, 2774.0, 52.6688
8.894293952, 96.390, 2730.0, 52.2494
8.920554518, 96.390, 2723.0, 52.1824
8.946815083, 96.390, 2787.0, 52.7920
8.973075649, 96.390, 2780.0, 52.7257
8.999336214, 96.390, 2843.0, 53.3198
9.025596779, 96.390, 2787.0, 52.7920
9.051857345, 96.390, 2722.0, 52.1728
9.078117910, 96.390, 2859.0, 53.4696
9.104378475, 96.390, 2867.0, 53.5444
9.130639041, 96.390, 2770.0, 52.6308
9.156899606, 96.390, 2803.0, 52.9434
9.183160171, 96.390, 2788.0, 52.8015
9.209420737, 96.390, 2877.0, 53.6377
9.235681302, 96.390, 2756.0, 52.4976
9.261941867, 96.390, 2687.0, 51.8363
9.288202433, 96.390, 2629.0, 51.2738
9.314462998, 96.390, 2796.0, 52.8772
9.340723564, 96.390, 2739.0, 52.3355
9.366984129, 96.390, 2783.0, 52.7541
9.393244694, 96.390, 2796.0, 52.8772
9.419505260, 96.390, 2796.0, 52.8772
9.445765825, 96.390, 2826.0, 53.1601
9.472026390, 96.390, 2830.0, 53.1977
9.498286956, 96.390, 2780.0, 52.7257
9.524547521, 96.390, 2694.0, 51.9038
9.550808086, 96.390, 2815.0, 53.0566
9.577068652, 96.390, 2886.0, 53.7215
9.603329217, 96.390, 2840.0, 53.2917
9.629589782, 96.390, 2801.0, 52.9245
9.655850348, 96.390, 2827.0, 53.1695
9.682110913, 96.390, 2965.0, 54.4518
9.708371478, 96.390, 3036.0, 55.0999
9.734632044, 96.390, 3010.0, 54.8635
9.760892609, 96.390, 3015.0, 54.9090
9.787153175, 96.390, 3216.0, 56.7098
9.813413740, 96.390, 3283.0, 57.2975
9.839674305, 96.390, 3244.0, 56.9561
9.865934871, 96.390, 3394.0, 58.2580
9.892195436, 96.390, 3459.0, 58.8133
9.918456001, 96.390, 3430.0, 58.5662
9.944716567, 96.390, 3358.0, 57.9483
9.970977132, 96.390, 3382.0, 58.1550
9.997237697, 96.390, 3306.0, 57.4978
10.023498263, 96.390, 3121.0, 55.8659
10.049758828, 96.390, 3101.0, 55.6866
10.076019393, 96.390, 3093.0, 55.6147
10.102279959, 96.390, 2978.0, 54.5711
10.128540524, 96.390, 3038.0, 55.1181
10.154801090, 96.390, 2858.0, 53.4603
10.181061655, 96.390, 2930.0, 54.1295
10.207322220, 96.390, 2782.0, 52.7447
10.233582786, 96.390, 2896.0, 53.8145
10.259843351, 96.390, 2920.0, 54.0370
10.286103916, 96.390, 2792.0, 52.8394
10.312364482, 96.390, 2936.0, 54.1849
10.338625047, 96.390, 2920.0, 54.0370
10.364885612, 96.390, 2859.0, 53.4696
10.391146178, 96.390, 2830.0, 53.1977
10.417406743, 96.390, 2956.0, 54.3691
10.443667308, 96.390, 2787.0, 52.7920
10.469927874, 96.390, 2825.0, 53.1507
10.496188439, 96.390, 2925.0, 54.0833
10.522449004, 96.390, 2852.0, 53.4041
10.548709570, 96.390, 2857.0, 53.4509
10.574970135, 96.390, 2889.0, 53.7494
10.601230701, 96.390, 3003.0, 54.7996
10.627491266, 96.390, 2960.0, 54.4059
10.653751831, 96.390, 2956.0, 54.3691
10.680012397, 96.390, 2989.0, 54.6717
10.706272962, 96.390, 2950.0, 54.3139
10.732533527, 96.390, 2952.0, 54.3323
10.758794093, 96.390, 2897.0, 53.8238
10.785054658, 96.390, 2951.0, 54.3231
10.811315223, 96.390, 2922.0, 54.0555
10.837575789, 96.390, 3033.0, 55.0727
10.863836354, 96.390, 2912.0, 53.9630
10.890096919, 96.390, 2776.0, 52.6878
10.916357485, 96.390, 3007.0, 54.8361
10.942618050, 96.390, 2958.0, 54.3875
10.968878616, 96.390, 2909.0, 53.9351
10.995139181, 96.390, 2949.0, 54.3047
11.021399746, 96.390, 3032.0, 55.0636
11.047660312, 96.390, 2979.0, 54.5802
11.073920877, 96.390, 3044.0, 55.1725
11.100181442, 96.390, 3097.0, 55.6507
11.126442008, 96.390, 3052.0, 55.2449
11.152702573, 96.390, 3026.0, 55.0091
11.178963138, 96.390, 3049.0, 55.2178
11.205223704, 96.390, 3085.0, 55.5428
11.231484269, 96.390, 3085.0, 55.5428
11.257744834, 96.390, 3096.0, 55.6417
11.284005400, 96.390, 3117.0, 55.8301
11.310265965, 96.390, 3083.0, 55.5248
11.336526530, 96.390, 3162.0, 56.2317
11.362787096, 96.390, 3145.0, 56.0803
11.389047661, 96.390, 3154.0, 56.1605
11.415308227, 96.390, 3175.0, 56.3471
11.441568792, 96.390, 3213.0, 56.6833
11.467829357, 96.390, 3120.0, 55.8570
11.494089923, 96.390, 3363.0, 57.9914
11.520350488, 96.390, 3271.0, 57.1927
11.546611053, 96.390, 3176.0, 56.3560
11.572871619, 96.390, 3442.0, 58.6686
11.599132184, 96.390, 3235.0, 56.8771
11.625392749, 96.390, 3268.0, 57.1664
11.651653315, 96.390, 3238.0, 56.9034
11.677913880, 96.390, 3259.0, 57.0877
11.704174445, 96.390, 3315.0, 57.5760
11.730435011, 96.390, 3207.0, 56.6304
11.756695576, 96.390, 3235.0, 56.8771
11.782956141, 96.390, 3212.0, 56.6745
11.809216707, 96.390, 3047.0, 55.1996
11.835477272, 96.390, 3061.0, 55.3263
11.861737838, 96.390, 3019.0, 54.9454
11.887998403, 96.390, 2990.0, 54.6809
11.914258968, 96.390, 2966.0, 54.4610
11.940519534, 96.390, 2961.0, 54.4151
11.966780099, 96.390, 2896.0, 53.8145
11.993040664, 96.390, 2847.0, 53.3573
12.019301230, 96.390, 2821.0, 53.1131
12.045561795, 96.390, 2786.0, 52.7826
12.071822360, 96.390, 2750.0, 52.4404
12.098082926, 96.390, 2817.0, 53.0754
12.124343491, 96.390, 2643.0, 51.4101
12.150604056, 96.390, 2765.0, 52.5833
12.176864622, 96.390, 2655.0, 51.5267
12.203125187, 96.390, 2597.0, 50.9608
12.229385753, 96.390, 2585.0, 50.8429
12.255646318, 96.390, 2572.0, 50.7149
12.281906883, 96.390, 2618.0, 51.1664
12.308167449, 96.390, 2512.0, 50.1199
12.334428014, 96.390, 2596.0, 50.9510
12.360688579, 96.390, 2548.0, 50.4777
12.386949145, 96.390, 2506.0, 50.0600
12.413209710, 96.390, 2554.0, 50.5371
12.439470275, 96.390, 2449.0, 49.4874
12.465730841, 96.390, 2359.0, 48.5695
12.491991406, 96.390, 2403.0, 49.0204
12.518251971, 96.390, 2417.0, 49.1630
12.544512537, 96.390, 2425.0, 49.2443
12.570773102, 96.390, 2408.0, 49.0714
12.597033667, 96.390, 2358.0, 48.5592
12.623294233, 96.390, 2230.0, 47.2229
12.649554798, 96.390, 2387.0, 48.8569
12.675815364, 96.390, 2314.0, 48.1041
12.702075929, 96.390, 2316.0, 48.1248
12.728336494, 96.390, 2221.0, 47.1275
12.754597060, 96.390, 2208.0, 46.9894
12.780857625, 96.390, 2246.0, 47.3920
12.807118190, 96.390, 2221.0, 47.1275
12.833378756, 96.390, 2204.0, 46.9468
12.859639321, 96.390, 2270.0, 47.6445
12.885899886, 96.390, 2248.0, 47.4131
12.912160452, 96.390, 2064.0, 45.4313
12.938421017, 96.390, 2129.0, 46.1411
12.964681582, 96.390, 2153.0, 46.4004
12.990942148, 96.390, 2145.0, 46.3141
13.017202713, 96.390, 2148.0, 46.3465
13.043463279, 96.390, 2173.0, 46.6154
13.069723844, 96.390, 2042.0, 45.1885
13.095984409, 96.390, 2126.0, 46.1086
13.122244975, 96.390, 2037.0, 45.1331
13.148505540, 96.390, 2036.0, 45.1221
13.174766105, 96.390, 2121.0, 46.0543
13.201026671, 96.390, 2062.0, 45.4093
13.227287236, 96.390, 2146.0, 46.3249
13.253547801, 96.390, 2135.0, 46.2061
13.279808367, 96.390, 2058.0, 45.3652
13.306068932, 96.390, 2062.0, 45.4093
13.332329497, 96.390, 2044.0, 45.2106
13.358590063, 96.390, 2053.0, 45.3100
13.384850628, 96.390, 2072.0, 45.5192
13.411111193, 96.390, 2092.0, 45.7384
13.437371759, 96.390, 2005.0, 44.7772
13.463632324, 96.390, 2005.0, 44.7772
13.489892890, 96.390, 1978.0, 44.4747
13.516153455, 96.390, 2081.0, 45.6180
13.542414020, 96.390, 2099.0, 45.8148
13.568674586, 96.390, 2062.0, 45.4093
13.594935151, 96.390, 2132.0, 46.1736
13.621195716, 96.390, 2117.0, 46.0109
13.647456282, 96.390, 2169.0, 46.5725
13.673716847, 96.390, 2311.0, 48.0729
13.699977412, 96.390, 2350.0, 48.4768
13.726237978, 96.390, 2461.0, 49.6085
13.752498543, 96.390, 2615.0, 51.1371
13.778759108, 96.390, 2821.0, 53.1131
13.805019674, 96.390, 3031.0, 55.0545
13.831280239, 96.390, 3226.0, 56.7979
13.857540805, 96.390, 3763.0, 61.3433
13.883801370, 96.390, 4402.0, 66.3476
13.910061935, 96.390, 4894.0, 69.9571
13.936322501, 96.390, 5103.0, 71.4353
13.962583066, 96.390, 4488.0, 66.9925
13.988843631, 96.390, 3579.0, 59.8247
14.015104197, 96.390, 3066.0, 55.3715
14.041364762, 96.390, 2626.0, 51.2445
14.067625327, 96.390, 2384.0, 48.8262
14.093885893, 96.390, 2251.0, 47.4447
14.120146458, 96.390, 2105.0, 45.8803
14.146407023, 96.390, 2082.0, 45.6289
14.172667589, 96.390, 1909.0, 43.6921
14.198928154, 96.390, 1984.0, 44.5421
14.225188719, 96.390, 1934.0, 43.9773
14.251449285, 96.390, 1945.0, 44.1022
14.277709850, 96.390, 1882.0, 43.3820
14.303970416, 96.390, 1815.0, 42.6028
14.330230981, 96.390, 1923.0, 43.8520
14.356491546, 96.390, 1878.0, 43.3359
14.382752112, 96.390, 1906.0, 43.6578
14.409012677, 96.390, 1905.0, 43.6463
14.435273242, 96.390, 1889.0, 43.4626
14.461533808, 96.390, 1776.0, 42.1426
14.487794373, 96.390, 1876.0, 43.3128
14.514054938, 96.390, 1830.0, 42.7785
14.540315504, 96.390, 1739.0, 41.7013
14.566576069, 96.390, 1855.0, 43.0697
14.592836634, 96.390, 1817.0, 42.6263
14.619097200, 96.390, 1776.0, 42.1426
14.645357765, 96.390, 1736.0, 41.6653
14.671618331, 96.390, 1783.0, 42.2256
14.697878896, 96.390, 1744.0, 41.7612
14.724139461, 96.390, 1739.0, 41.7013
14.750400027, 96.390, 1758.0, 41.9285
14.776660592, 96.390, 1766.0, 42.0238
14.802921157, 96.390, 1762.0, 41.9762
14.829181723, 96.390, 1804.0, 42.4735
14.855442288, 96.390, 1762.0, 41.9762
14.881702853, 96.390, 1844.0, 42.9418
14.907963419, 96.390, 1794.0, 42.3556
14.934223984, 96.390, 1813.0, 42.5793
14.960484549, 96.390, 1920.0, 43.8178
14.986745115, 96.390, 1909.0, 43.6921
15.013005680, 96.390, 1938.0, 44.0227
15.039266245, 96.390, 2024.0, 44.9889
15.065526811, 96.390, 2000.0, 44.7214
15.091787376, 96.390, 2115.0, 45.9891
15.118047942, 96.390, 2203.0, 46.9361
15.144308507, 96.390, 2250.0, 47.4342
15.170569072, 96.390, 2281.0, 47.7598
15.196829638, 96.390, 2396.0, 48.9490
15.223090203, 96.390, 2368.0, 48.6621
15.249350768, 96.390, 2458.0, 49.5782
15.275611334, 96.390, 2427.0, 49.2646
15.301871899, 96.390, 2470.0, 49.6991
15.328132464, 96.390, 2443.0, 49.4267
15.354393030, 96.390, 2354.0, 48.5180
15.380653595, 96.390, 2307.0, 48.0312
15.406914160, 96.390, 2280.0, 47.7493
15.433174726, 96.390, 2253.0, 47.4658
15.459435291, 96.390, 2164.0, 46.5188
15.485695857, 96.390, 2076.0, 45.5631
15.511956422, 96.390, 2070.0, 45.4973
15.538216987, 96.390, 1984.0, 44.5421
15.564477553, 96.390, 2002.0, 44.7437
15.590738118, 96.390, 1915.0, 43.7607
15.616998683, 96.390, 1837.0, 42.8602
15.643259249, 96.390, 1792.0, 42.3320
15.669519814, 96.390, 1754.0, 41.8808
15.695780379, 96.390, 1735.0, 41.6533
15.722040945, 96.390, 1758.0, 41.9285
15.748301510, 96.390, 1744.0, 41.7612
15.774562075, 96.390, 1797.0, 42.3910
15.800822641, 96.390, 1761.0, 41.9643
15.827083206, 96.390, 1691.0, 41.1218
15.853343771, 96.390, 1691.0, 41.1218
15.879604337, 96.390, 1690.0, 41.1096
15.905864902, 96.390, 1705.0, 41.2916
15.932125468, 96.390, 1652.0, 40.6448
15.958386033, 96.390, 1628.0, 40.3485
15.984646598, 96.390, 1652.0, 40.6448
16.010907164, 96.390, 1642.0, 40.5216
16.037167729, 96.390, 1685.0, 41.0488
16.063428294, 96.390, 1581.0, 39.7618
16.089688860, 96.390, 1676.0, 40.9390
16.115949425, 96.390, 1614.0, 40.1746
16.142209990, 96.390, 1705.0, 41.2916
16.168470556, 96.390, 1606.0, 40.0749
16.194731121, 96.390, 1605.0, 40.0625
16.220991686, 96.390, 1604.0, 40.0500
16.247252252, 96.390, 1643.0, 40.5339
16.273512817, 96.390, 1667.0, 40.8289
16.299773382, 96.390, 1599.0, 39.9875
16.326033948, 96.390, 1631.0, 40.3856
16.352294513, 96.390, 1626.0, 40.3237
16.378555079, 96.390, 1679.0, 40.9756
16.404815644, 96.390, 1701.0, 41.2432
16.431076209, 96.390, 1752.0, 41.8569
16.457336775, 96.390, 1869.0, 43.2319
16.483597340, 96.390, 1882.0, 43.3820
16.509857905, 96.390, 1800.0, 42.4264
16.536118471, 96.390, 1704.0, 41.2795
16.562379036, 96.390, 1573.0, 39.6611
16.588639601, 96.390, 1665.0, 40.8044
16.614900167, 96.390, 1545.0, 39.3065
16.641160732, 96.390, 1629.0, 40.3609
16.667421297, 96.390, 1545.0, 39.3065
16.693681863, 96.390, 1509.0, 38.8458
16.719942428, 96.390, 1677.0, 40.9512
16.746202994, 96.390, 1692.0, 41.1339
16.772463559, 96.390, 1701.0, 41.2432
16.798724124, 96.390, 1806.0, 42.4971
16.824984690, 96.390, 1824.0, 42.7083
16.851245255, 96.390, 1753.0, 41.8688
16.877505820, 96.390, 1774.0, 42.1189
16.903766386, 96.390, 1636.0, 40.4475
16.930026951, 96.390, 1572.0, 39.6485
16.956287516, 96.390, 1518.0, 38.9615
16.982548082, 96.390, 1501.0, 38.7427
17.008808647, 96.390, 1559.0, 39.4842
17.035069212, 96.390, 1525.0, 39.0512
17.061329778, 96.390, 1510.0, 38.8587
17.087590343, 96.390, 1505.0, 38.7943
17.113850908, 96.390, 1445.0, 38.0132
17.140111474, 96.390, 1521.0, 39.0000
17.166372039, 96.390, 1490.0, 38.6005
17.192632605, 96.390, 1512.0, 38.8844
17.218893170, 96.390, 1471.0, 38.3536
17.245153735, 96.390, 1494.0, 38.6523
17.271414301, 96.390, 1536.0, 39.1918
17.297674866, 96.390, 1529.0, 39.1024
17.323935431, 96.390, 1500.0, 38.7298
17.350195997, 96.390, 1520.0, 38.9872
17.376456562, 96.390, 1526.0, 39.0640
17.402717127, 96.390, 1518.0, 38.9615
17.428977693, 96.390, 1545.0, 39.3065
17.455238258, 96.390, 1472.0, 38.3667
17.481498823, 96.390, 1413.0, 37.5899
17.507759389, 96.390, 1494.0, 38.6523
17.534019954, 96.390, 1545.0, 39.3065
17.560280520, 96.390, 1544.0, 39.2938
17.586541085, 96.390, 1419.0, 37.6696
17.612801650, 96.390, 1536.0, 39.1918
17.639062216, 96.390, 1529.0, 39.1024
17.665322781, 96.390, 1593.0, 39.9124
17.691583346, 96.390, 1489.0, 38.5876
17.717843912, 96.390, 1538.0, 39.2173
17.744104477, 96.390, 1474.0, 38.3927
17.770365042, 96.390, 1493.0, 38.6394
17.796625608, 96.390, 1555.0, 39.4335
17.822886173, 96.390, 1533.0, 39.1535
17.849146738, 96.390, 1415.0, 37.6165
17.875407304, 96.390, 1504.0, 38.7814
17.901667869, 96.390, 1508.0, 38.8330
17.927928434, 96.390, 1497.0, 38.6911
17.954189000, 96.390, 1488.0, 38.5746
17.980449565, 96.390, 1502.0, 38.7556
18.006710131, 96.390, 1565.0, 39.5601
18.032970696, 96.390, 1544.0, 39.2938
18.059231261, 96.390, 1503.0, 38.7685
18.085491827, 96.390, 1467.0, 38.3014
18.111752392, 96.390, 1597.0, 39.9625
18.138012957, 96.390, 1625.0, 40.3113
18.164273523, 96.390, 1591.0, 39.8873
18.190534088, 96.390, 1550.0, 39.3700
18.216794653, 96.390, 1556.0, 39.4462
18.243055219, 96.390, 1633.0, 40.4104
18.269315784, 96.390, 1662.0, 40.7676
18.295576349, 96.390, 1595.0, 39.9375
18.321836915, 96.390, 1596.0, 39.9500
18.348097480, 96.390, 1624.0, 40.2989
18.374358046, 96.390, 1538.0, 39.2173
18.400618611, 96.390, 1682.0, 41.0122
18.426879176, 96.390, 1596.0, 39.9500
18.453139742, 96.390, 1536.0, 39.1918
18.479400307, 96.390, 1607.0, 40.0874
18.505660872, 96.390, 1667.0, 40.8289
18.531921438, 96.390, 1647.0, 40.5832
18.558182003, 96.390, 1531.0, 39.1280
18.584442568, 96.390, 1593.0, 39.9124
18.610703134, 96.390, 1566.0, 39.5727
18.636963699, 96.390, 1683.0, 41.0244
18.663224264, 96.390, 1507.0, 38.8201
18.689484830, 96.390, 1642.0, 40.5216
18.715745395, 96.390, 1648.0, 40.5956
18.742005960, 96.390, 1598.0, 39.9750
18.768266526, 96.390, 1656.0, 40.6940
18.794527091, 96.390, 1643.0, 40.5339
18.820787657, 96.390, 1639.0, 40.4846
18.847048222, 96.390, 1628.0, 40.3485
18.873308787, 96.390, 1616.0, 40.1995
18.899569353, 96.390, 1661.0, 40.7554
18.925829918, 96.390, 1546.0, 39.3192
18.952090483, 96.390, 1631.0, 40.3856
18.978351049, 96.390, 1703.0, 41.2674
19.004611614, 96.390, 1650.0, 40.6202
19.030872179, 96.390, 1625.0, 40.3113
19.057132745, 96.390, 1646.0, 40.5709
19.083393310, 96.390, 1685.0, 41.0488
19.109653875, 96.390, 1602.0, 40.0250
19.135914441, 96.390, 1587.0, 39.8372
19.162175006, 96.390, 1698.0, 41.2068
19.188435572, 96.390, 1692.0, 41.1339
19.214696137, 96.390, 1619.0, 40.2368
19.240956702, 96.390, 1678.0, 40.9634
19.267217268, 96.390, 1705.0, 41.2916
19.293477833, 96.390, 1701.0, 41.2432
19.319738398, 96.390, 1696.0, 41.1825
19.345998964, 96.390, 1633.0, 40.4104
19.372259529, 96.390, 1661.0, 40.7554
19.398520094, 96.390, 1659.0, 40.7308
19.424780660, 96.390, 1640.0, 40.4969
19.451041225, 96.390, 1808.0, 42.5206
19.477301790, 96.390, 1752.0, 41.8569
19.503562356, 96.390, 1782.0, 42.2137
19.529822921, 96.390, 1767.0, 42.0357
19.556083486, 96.390, 1721.0, 41.4849
19.582344052, 96.390, 1799.0, 42.4146
19.608604617, 96.390, 1827.0, 42.7434
19.634865183, 96.390, 1786.0, 42.2611
19.661125748, 96.390, 1911.0, 43.7150
19.687386313, 96.390, 1920.0, 43.8178
19.713646879, 96.390, 2043.0, 45.1996
19.739907444, 96.390, 2104.0, 45.8694
19.766168009, 96.390, 2030.0, 45.0555
19.792428575, 96.390, 2195.0, 46.8508
19.818689140, 96.390, 2173.0, 46.6154
19.844949705, 96.390, 2154.0, 46.4112
19.871210271, 96.390, 2200.0, 46.9042
19.897470836, 96.390, 2127.0, 46.1194
19.923731401, 96.390, 2317.0, 48.1352
19.949991967, 96.390, 2245.0, 47.3814
19.976252532, 96.390, 2237.0, 47.2969
20.002513097, 96.390, 2082.0, 45.6289
20.028773663, 96.390, 2169.0, 46.5725
20.055034228, 96.390, 1986.0, 44.5646
20.081294794, 96.390, 1982.0, 44.5197
20.107555359, 96.390, 1879.0, 43.3474
20.133815924, 96.390, 1851.0, 43.0232
20.160076490, 96.390, 1755.0, 41.8927
20.186337055, 96.390, 1745.0, 41.7732
20.212597620, 96.390, 1751.0, 41.8450
20.238858186, 96.390, 1687.0, 41.0731
20.265118751, 96.390, 1670.0, 40.8656
20.291379316, 96.390, 1718.0, 41.4488
20.317639882, 96.390, 1797.0, 42.3910
20.343900447, 96.390, 1699.0, 41.2189
20.370161012, 96.390, 1709.0, 41.3401
20.396421578, 96.390, 1631.0, 40.3856
20.422682143, 96.390, 1705.0, 41.2916
20.448942709, 96.390, 1683.0, 41.0244
20.475203274, 96.390, 1584.0, 39.7995
20.501463839, 96.390, 1595.0, 39.9375
20.527724405, 96.390, 1647.0, 40.5832
20.553984970, 96.390, 1560.0, 39.4968
20.580245535, 96.390, 1583.0, 39.7869
20.606506101, 96.390, 1532.0, 39.1408
20.632766666, 96.390, 1608.0, 40.0999
20.659027231, 96.390, 1614.0, 40.1746
20.685287797, 96.390, 1626.0, 40.3237
20.711548362, 96.390, 1623.0, 40.2865
20.737808927, 96.390, 1611.0, 40.1373
20.764069493, 96.390, 1726.0, 41.5452
20.790330058, 96.390, 1672.0, 40.8901
20.816590623, 96.390, 1638.0, 40.4722
20.842851189, 96.390, 1635.0, 40.4351
20.869111754, 96.390, 1649.0, 40.6079
20.895372320, 96.390, 1713.0, 41.3884
20.921632885, 96.390, 1678.0, 40.9634
20.947893450, 96.390, 1667.0, 40.8289
20.974154016, 96.390, 1624.0, 40.2989
21.000414581, 96.390, 1661.0, 40.7554
21.026675146, 96.390, 1652.0, 40.6448
21.052935712, 96.390, 1621.0, 40.2616
21.079196277, 96.390, 1641.0, 40.5093
21.105456842, 96.390, 1685.0, 41.0488
21.131717408, 96.390, 1603.0, 40.0375
21.157977973, 96.390, 1595.0, 39.9375
21.184238538, 96.390, 1676.0, 40.9390
21.210499104, 96.390, 1571.0, 39.6358
21.236759669, 96.390, 1602.0, 40.0250
21.263020235, 96.390, 1744.0, 41.7612
21.289280800, 96.390, 1675.0, 40.9268
21.315541365, 96.390, 1561.0, 39.5095
21.341801931, 96.390, 1603.0, 40.0375
21.368062496, 96.390, 1629.0, 40.3609
21.394323061, 96.390, 1729.0, 41.5812
21.420583627, 96.390, 1641.0, 40.5093
21.446844192, 96.390, 1867.0, 43.2088
21.473104757, 96.390, 1700.0, 41.2311
21.499365323, 96.390, 1712.0, 41.3763
21.525625888, 96.390, 1713.0, 41.3884
21.551886453, 96.390, 1785.0, 42.2493
21.578147019, 96.390, 1636.0, 40.4475
21.604407584, 96.390, 1660.0, 40.7431
21.630668149, 96.390, 1628.0, 40.3485
21.656928715, 96.390, 1646.0, 40.5709
21.683189280, 96.390, 1690.0, 41.1096
21.709449846, 96.390, 1658.0, 40.7185
21.735710411, 96.390, 1670.0, 40.8656
21.761970976, 96.390, 1608.0, 40.0999
21.788231542, 96.390, 1692.0, 41.1339
21.814492107, 96.390, 1635.0, 40.4351
21.840752672, 96.390, 1709.0, 41.3401
21.867013238, 96.390, 1688.0, 41.0853
21.893273803, 96.390, 1731.0, 41.6053
21.919534368, 96.390, 1686.0, 41.0609
21.945794934, 96.390, 1754.0, 41.8808
21.972055499, 96.390, 1765.0, 42.0119
21.998316064, 96.390, 1732.0, 41.6173
22.024576630, 96.390, 1751.0, 41.8450
22.050837195, 96.390, 1802.0, 42.4500
22.077097761, 96.390, 1853.0, 43.0465
22.103358326, 96.390, 1895.0, 43.5316
22.129618891, 96.390, 1958.0, 44.2493
22.155879457, 96.390, 1888.0, 43.4511
22.182140022, 96.390, 1811.0, 42.5558
22.208400587, 96.390, 1923.0, 43.8520
22.234661153, 96.390, 1808.0, 42.5206
22.260921718, 96.390, 1843.0, 42.9302
22.287182283, 96.390, 1896.0, 43.5431
22.313442849, 96.390, 1902.0, 43.6119
22.339703414, 96.390, 1833.0, 42.8135
22.365963979, 96.390, 1890.0, 43.4741
22.392224545, 96.390, 1836.0, 42.8486
22.418485110, 96.390, 1934.0, 43.9773
22.444745675, 96.390, 1982.0, 44.5197
22.471006241, 96.390, 1974.0, 44.4297
22.497266806, 96.390, 1977.0, 44.4635
22.523527372, 96.390, 1949.0, 44.1475
22.549787937, 96.390, 2056.0, 45.3431
22.576048502, 96.390, 2020.0, 44.9444
22.602309068, 96.390, 2051.0, 45.2880
22.628569633, 96.390, 2127.0, 46.1194
22.654830198, 96.390, 2060.0, 45.3872
22.681090764, 96.390, 2173.0, 46.6154
22.707351329, 96.390, 2265.0, 47.5920
22.733611894, 96.390, 2250.0, 47.4342
22.759872460, 96.390, 2197.0, 46.8722
22.786133025, 96.390, 2283.0, 47.7807
22.812393590, 96.390, 2386.0, 48.8467
22.838654156, 96.390, 2360.0, 48.5798
22.864914721, 96.390, 2439.0, 49.3862
22.891175287, 96.390, 2448.0, 49.4773
22.917435852, 96.390, 2537.0, 50.3686
22.943696417, 96.390, 2602.0, 51.0098
22.969956983, 96.390, 2755.0, 52.4881
22.996217548, 96.390, 2885.0, 53.7122
23.022478113, 96.390, 3053.0, 55.2540
23.048738679, 96.390, 3201.0, 56.5774
23.074999244, 96.390, 3211.0, 56.6657
23.101259809, 96.390, 3313.0, 57.5587
23.127520375, 96.390, 3371.0, 58.0603
23.153780940, 96.390, 3375.0, 58.0948
23.180041505, 96.390, 3328.0, 57.6888
23.206302071, 96.390, 3314.0, 57.5674
23.232562636, 96.390, 3188.0, 56.4624
23.258823201, 96.390, 3212.0, 56.6745
23.285083767, 96.390, 3021.0, 54.9636
23.311344332, 96.390, 2982.0, 54.6077
23.337604898, 96.390, 2971.0, 54.5069
23.363865463, 96.390, 2809.0, 53.0000
23.390126028, 96.390, 2899.0, 53.8424
23.416386594, 96.390, 2772.0, 52.6498
23.442647159, 96.390, 2656.0, 51.5364
23.468907724, 96.390, 2599.0, 50.9804
23.495168290, 96.390, 2704.0, 52.0000
23.521428855, 96.390, 2590.0, 50.8920
23.547689420, 96.390, 2566.0, 50.6557
23.573949986, 96.390, 2391.0, 48.8979
23.600210551, 96.390, 2453.0, 49.5278
23.626471116, 96.390, 2400.0, 48.9898
23.652731682, 96.390, 2347.0, 48.4458
23.678992247, 96.390, 2266.0, 47.6025
23.705252813, 96.390, 2262.0, 47.5605
23.731513378, 96.390, 2315.0, 48.1144
23.757773943, 96.390, 2262.0, 47.5605
23.784034509, 96.390, 2197.0, 46.8722
23.810295074, 96.390, 2180.0, 46.6905
23.836555639, 96.390, 2218.0, 47.0956
23.862816205, 96.390, 2208.0, 46.9894
23.889076770, 96.390, 2268.0, 47.6235
23.915337335, 96.390, 2315.0, 48.1144
23.941597901, 96.390, 2315.0, 48.1144
23.967858466, 96.390, 2352.0, 48.4974
23.994119031, 96.390, 2438.0, 49.3761
24.020379597, 96.390, 2354.0, 48.5180
24.046640162, 96.390, 2524.0, 50.2394
24.072900727, 96.390, 2553.0, 50.5272
24.099161293, 96.390, 2735.0, 52.2972
24.125421858, 96.390, 2994.0, 54.7175
24.151682424, 96.390, 3349.0, 57.8705
24.177942989, 96.390, 3804.0, 61.6766
24.204203554, 96.390, 4336.0, 65.8483
24.230464120, 96.390, 5157.0, 71.8123
24.256724685, 96.390, 5826.0, 76.3282
24.282985250, 96.390, 6223.0, 78.8860
24.309245816, 96.390, 5841.0, 76.4264
24.335506381, 96.390, 5295.0, 72.7668
24.361766946, 96.390, 4547.0, 67.4314
24.388027512, 96.390, 3906.0, 62.4980
24.414288077, 96.390, 3348.0, 57.8619
24.440548642, 96.390, 2982.0, 54.6077
24.466809208, 96.390, 2705.0, 52.0096
24.493069773, 96.390, 2500.0, 50.0000
24.519330338, 96.390, 2324.0, 48.2079
24.545590904, 96.390, 2193.0, 46.8295
24.571851469, 96.390, 2110.0, 45.9347
24.598112035, 96.390, 2087.0, 45.6837
24.624372600, 96.390, 2047.0, 45.2438
24.650633165, 96.390, 1980.0, 44.4972
24.676893731, 96.390, 1948.0, 44.1362
24.703154296, 96.390, 1958.0, 44.2493
24.729414861, 96.390, 1822.0, 42.6849
24.755675427, 96.390, 1850.0, 43.0116
24.781935992, 96.390, 1743.0, 41.7493
24.808196557, 96.390, 1822.0, 42.6849
24.834457123, 96.390, 1822.0, 42.6849
24.860717688, 96.390, 1697.0, 41.1947
24.886978253, 96.390, 1653.0, 40.6571
24.913238819, 96.390, 1690.0, 41.1096
24.939499384, 96.390, 1695.0, 41.1704
24.965759950, 96.390, 1719.0, 41.4608
24.992020515, 96.390, 1715.0, 41.4126
25.018281080, 96.390, 1555.0, 39.4335
25.044541646, 96.390, 1611.0, 40.1373
25.070802211, 96.390, 1663.0, 40.7799
25.097062776, 96.390, 1582.0, 39.7744
25.123323342, 96.390, 1662.0, 40.7676
25.149583907, 96.390, 1643.0, 40.5339
25.175844472, 96.390, 1609.0, 40.1123
25.202105038, 96.390, 1503.0, 38.7685
25.228365603, 96.390, 1618.0, 40.2244
25.254626168, 96.390, 1612.0, 40.1497
25.280886734, 96.390, 1634.0, 40.4228
25.307147299, 96.390, 1558.0, 39.4715
25.333407864, 96.390, 1572.0, 39.6485
25.359668430, 96.390, 1526.0, 39.0640
25.385928995, 96.390, 1507.0, 38.8201
25.412189561, 96.390, 1550.0, 39.3700
25.438450126, 96.390, 1549.0, 39.3573
25.464710691, 96.390, 1509.0, 38.8458
25.490971257, 96.390, 1477.0, 38.4318
25.517231822, 96.390, 1448.0, 38.0526
25.543492387, 96.390, 1449.0, 38.0657
25.569752953, 96.390, 1549.0, 39.3573
25.596013518, 96.390, 1536.0, 39.1918
25.622274083, 96.390, 1493.0, 38.6394
25.648534649, 96.390, 1495.0, 38.6652
25.674795214, 96.390, 1519.0, 38.9744
25.701055779, 96.390, 1454.0, 38.1314
25.727316345, 96.390, 1510.0, 38.8587
25.753576910, 96.390, 1577.0, 39.7115
25.779837476, 96.390, 1539.0, 39.2301
25.806098041, 96.390, 1521.0, 39.0000
25.832358606, 96.390, 1542.0, 39.2683
25.858619172, 96.390, 1537.0, 39.2046
25.884879737, 96.390, 1624.0, 40.2989
25.911140302, 96.390, 1550.0, 39.3700
25.937400868, 96.390, 1570.0, 39.6232
25.963661433, 96.390, 1647.0, 40.5832
25.989921998, 96.390, 1623.0, 40.2865
26.016182564, 96.390, 1643.0, 40.5339
26.042443129, 96.390, 1662.0, 40.7676
26.068703694, 96.390, 1685.0, 41.0488
26.094964260, 96.390, 1699.0, 41.2189
26.121224825, 96.390, 1800.0, 42.4264
26.147485390, 96.390, 1736.0, 41.6653
26.173745956, 96.390, 1816.0, 42.6146
26.200006521, 96.390, 1844.0, 42.9418
26.226267087, 96.390, 1840.0, 42.8952
26.252527652, 96.390, 1886.0, 43.4281
26.278788217, 96.390, 1882.0, 43.3820
26.305048783, 96.390, 1942.0, 44.0681
26.331309348, 96.390, 1978.0, 44.4747
26.357569913, 96.390, 2123.0, 46.0760
26.383830479, 96.390, 2066.0, 45.4533
26.410091044, 96.390, 2337.0, 48.3425
26.436351609, 96.390, 2393.0, 48.9183
26.462612175, 96.390, 2442.0, 49.4166
26.488872740, 96.390, 2590.0, 50.8920
26.515133305, 96.390, 2492.0, 49.9199
26.541393871, 96.390, 2553.0, 50.5272
26.567654436, 96.390, 2552.0, 50.5173
26.593915002, 96.390, 2473.0, 49.7293
26.620175567, 96.390, 2440.0, 49.3964
26.646436132, 96.390, 2245.0, 47.3814
26.672696698, 96.390, 2130.0, 46.1519
26.698957263, 96.390, 2017.0, 44.9110
26.725217828, 96.390, 2010.0, 44.8330
26.751478394, 96.390, 1982.0, 44.5197
26.777738959, 96.390, 1879.0, 43.3474
26.803999524, 96.390, 1809.0, 42.5323
26.830260090, 96.390, 1687.0, 41.0731
26.856520655, 96.390, 1659.0, 40.7308
26.882781220, 96.390, 1706.0, 41.3038
26.909041786, 96.390, 1630.0, 40.3733
26.935302351, 96.390, 1635.0, 40.4351
26.961562916, 96.390, 1673.0, 40.9023
26.987823482, 96.390, 1611.0, 40.1373
27.014084047, 96.390, 1612.0, 40.1497
27.040344613, 96.390, 1691.0, 41.1218
27.066605178, 96.390, 1516.0, 38.9358
27.092865743, 96.390, 1596.0, 39.9500
27.119126309, 96.390, 1549.0, 39.3573
27.145386874, 96.390, 1548.0, 39.3446
27.171647439, 96.390, 1604.0, 40.0500
27.197908005, 96.390, 1536.0, 39.1918
27.224168570, 96.390, 1575.0, 39.6863
27.250429135, 96.390, 1569.0, 39.6106
27.276689701, 96.390, 1573.0, 39.6611
27.302950266, 96.390, 1532.0, 39.1408
27.329210831, 96.390, 1383.0, 37.1887
27.355471397, 96.390, 1532.0, 39.1408
27.381731962, 96.390, 1531.0, 39.1280
27.407992528, 96.390, 1516.0, 38.9358
27.434253093, 96.390, 1579.0, 39.7366
27.460513658, 96.390, 1503.0, 38.7685
27.486774224, 96.390, 1521.0, 39.0000
27.513034789, 96.390, 1613.0, 40.1622
27.539295354, 96.390, 1535.0, 39.1791
27.565555920, 96.390, 1589.0, 39.8623
27.591816485, 96.390, 1601.0, 40.0125
27.618077050, 96.390, 1579.0, 39.7366
27.644337616, 96.390, 1525.0, 39.0512
27.670598181, 96.390, 1537.0, 39.2046
27.696858746, 96.390, 1506.0, 38.8072
27.723119312, 96.390, 1516.0, 38.9358
27.749379877, 96.390, 1477.0, 38.4318
27.775640442, 96.390, 1550.0, 39.3700
27.801901008, 96.390, 1571.0, 39.6358
27.828161573, 96.390, 1503.0, 38.7685
27.854422139, 96.390, 1563.0, 39.5348
27.880682704, 96.390, 1616.0, 40.1995
27.906943269, 96.390, 1564.0, 39.5474
27.933203835, 96.390, 1535.0, 39.1791
27.959464400, 96.390, 1598.0, 39.9750
27.985724965, 96.390, 1716.0, 41.4246
28.011985531, 96.390, 1669.0, 40.8534
28.038246096, 96.390, 1723.0, 41.5090
28.064506661, 96.390, 1713.0, 41.3884
28.090767227, 96.390, 1868.0, 43.2204
28.117027792, 96.390, 1884.0, 43.4051
28.143288357, 96.390, 1897.0, 43.5546
28.169548923, 96.390, 1922.0, 43.8406
28.195809488, 96.390, 1768.0, 42.0476
28.222070054, 96.390, 1760.0, 41.9524
28.248330619, 96.390, 1635.0, 40.4351
28.274591184, 96.390, 1705.0, 41.2916
28.300851750, 96.390, 1697.0, 41.1947
28.327112315, 96.390, 1645.0, 40.5586
28.353372880, 96.390, 1637.0, 40.4599
28.379633446, 96.390, 1649.0, 40.6079
28.405894011, 96.390, 1687.0, 41.0731
28.432154576, 96.390, 1556.0, 39.4462
28.458415142, 96.390, 1557.0, 39.4588
28.484675707, 96.390, 1587.0, 39.8372
28.510936272, 96.390, 1651.0, 40.6325
28.537196838, 96.390, 1663.0, 40.7799
28.563457403, 96.390, 1678.0, 40.9634
28.589717968, 96.390, 1681.0, 41.0000
28.615978534, 96.390, 1643.0, 40.5339
28.642239099, 96.390, 1632.0, 40.3980
28.668499665, 96.390, 1640.0, 40.4969
28.694760230, 96.390, 1605.0, 40.0625
28.721020795, 96.390, 1623.0, 40.2865
28.747281361, 96.390, 1696.0, 41.1825
28.773541926, 96.390, 1630.0, 40.3733
28.799802491, 96.390, 1618.0, 40.2244
28.826063057, 96.390, 1743.0, 41.7493
28.852323622, 96.390, 1776.0, 42.1426
28.878584187, 96.390, 1787.0, 42.2729
28.904844753, 96.390, 1812.0, 42.5676
28.931105318, 96.390, 1712.0, 41.3763
28.957365883, 96.390, 1835.0, 42.8369
28.983626449, 96.390, 1863.0, 43.1625
29.009887014, 96.390, 1890.0, 43.4741
29.036147579, 96.390, 1877.0, 43.3244
29.062408145, 96.390, 1865.0, 43.1856
29.088668710, 96.390, 1853.0, 43.0465
29.114929276, 96.390, 2004.0, 44.7661
29.141189841, 96.390, 2031.0, 45.0666
29.167450406, 96.390, 1791.0, 42.3202
29.193710972, 96.390, 1865.0, 43.1856
29.219971537, 96.390, 1844.0, 42.9418
29.246232102, 96.390, 1810.0, 42.5441
29.272492668, 96.390, 1843.0, 42.9302
29.298753233, 96.390, 1796.0, 42.3792
29.325013798, 96.390, 1805.0, 42.4853
29.351274364, 96.390, 1726.0, 41.5452
29.377534929, 96.390, 1835.0, 42.8369
29.403795494, 96.390, 1782.0, 42.2137
29.430056060, 96.390, 1668.0, 40.8412
29.456316625, 96.390, 1694.0, 41.1582
29.482577191, 96.390, 1733.0, 41.6293
29.508837756, 96.390, 1737.0, 41.6773
29.535098321, 96.390, 1597.0, 39.9625
29.561358887, 96.390, 1659.0, 40.7308
29.587619452, 96.390, 1695.0, 41.1704
29.613880017, 96.390, 1647.0, 40.5832
29.640140583, 96.390, 1720.0, 41.4729
29.666401148, 96.390, 1738.0, 41.6893
29.692661713, 96.390, 1700.0, 41.2311
29.718922279, 96.390, 1598.0, 39.9750
29.745182844, 96.390, 1663.0, 40.7799
29.771443409, 96.390, 1682.0, 41.0122
29.797703975, 96.390, 1773.0, 42.1070
29.823964540, 96.390, 1672.0, 40.8901
29.850225105, 96.390, 1711.0, 41.3642
29.876485671, 96.390, 1638.0, 40.4722
29.902746236, 96.390, 1643.0, 40.5339
29.929006802, 96.390, 1684.0, 41.0366
29.955267367, 96.390, 1686.0, 41.0609
29.981527932, 96.390, 1739.0, 41.7013
30.007788498, 96.390, 1791.0, 42.3202
30.034049063, 96.390, 1800.0, 42.4264
30.060309628, 96.390, 1725.0, 41.5331
30.086570194, 96.390, 1844.0, 42.9418
30.112830759, 96.390, 1859.0, 43.1161
30.139091324, 96.390, 1856.0, 43.0813
30.165351890, 96.390, 1815.0, 42.6028
30.191612455, 96.390, 1835.0, 42.8369
30.217873020, 96.390, 1840.0, 42.8952
30.244133586, 96.390, 1860.0, 43.1277
30.270394151, 96.390, 1871.0, 43.2551
30.296654717, 96.390, 1923.0, 43.8520
30.322915282, 96.390, 1821.0, 42.6732
30.349175847, 96.390, 1901.0, 43.6005
30.375436413, 96.390, 1987.0, 44.5758
30.401696978, 96.390, 1989.0, 44.5982
30.427957543, 96.390, 2039.0, 45.1553
30.454218109, 96.390, 2058.0, 45.3652
30.480478674, 96.390, 2056.0, 45.3431
30.506739239, 96.390, 2033.0, 45.0888
30.532999805, 96.390, 2240.0, 47.3286
30.559260370, 96.390, 2211.0, 47.0213
30.585520935, 96.390, 2380.0, 48.7852
30.611781501, 96.390, 2364.0, 48.6210
30.638042066, 96.390, 2346.0, 48.4355
30.664302631, 96.390, 2508.0, 50.0799
30.690563197, 96.390, 2460.0, 49.5984
30.716823762, 96.390, 2645.0, 51.4296
30.743084328, 96.390, 2636.0, 51.3420
30.769344893, 96.390, 2559.0, 50.5866
30.795605458, 96.390, 2452.0, 49.5177
30.821866024, 96.390, 2570.0, 50.6952
30.848126589, 96.390, 2490.0, 49.8999
30.874387154, 96.390, 2442.0, 49.4166
30.900647720, 96.390, 2437.0, 49.3660
30.926908285, 96.390, 2413.0, 49.1223
30.953168850, 96.390, 2352.0, 48.4974
30.979429416, 96.390, 2267.0, 47.6130
31.005689981, 96.390, 2213.0, 47.0425
31.031950546, 96.390, 2173.0, 46.6154
31.058211112, 96.390, 2189.0, 46.7868
31.084471677, 96.390, 2177.0, 46.6583
31.110732243, 96.390, 2181.0, 46.7012
31.136992808, 96.390, 2115.0, 45.9891
31.163253373, 96.390, 2185.0, 46.7440
31.189513939, 96.390, 2102.0, 45.8476
31.215774504, 96.390, 2113.0, 45.9674
31.242035069, 96.390, 2182.0, 46.7119
31.268295635, 96.390, 2115.0, 45.9891
31.294556200, 96.390, 2203.0, 46.9361
31.320816765, 96.390, 2223.0, 47.1487
31.347077331, 96.390, 2216.0, 47.0744
31.373337896, 96.390, 2360.0, 48.5798
31.399598461, 96.390, 2457.0, 49.5681
31.425859027, 96.390, 2727.0, 52.2207
31.452119592, 96.390, 2814.0, 53.0471
31.478380157, 96.390, 3161.0, 56.2228
31.504640723, 96.390, 3283.0, 57.2975
31.530901288, 96.390, 3334.0, 57.7408
31.557161854, 96.390, 3257.0, 57.0701
31.583422419, 96.390, 3068.0, 55.3895
31.609682984, 96.390, 2998.0, 54.7540
31.635943550, 96.390, 2772.0, 52.6498
31.662204115, 96.390, 2581.0, 50.8035
31.688464680, 96.390, 2366.0, 48.6415
31.714725246, 96.390, 2358.0, 48.5592
31.740985811, 96.390, 2272.0, 47.6655
31.767246376, 96.390, 2105.0, 45.8803
31.793506942, 96.390, 2122.0, 46.0652
31.819767507, 96.390, 2055.0, 45.3321
31.846028072, 96.390, 1988.0, 44.5870
31.872288638, 96.390, 2032.0, 45.0777
31.898549203, 96.390, 2011.0, 44.8442
31.924809769, 96.390, 1999.0, 44.7102
31.951070334, 96.390, 1910.0, 43.7035
31.977330899, 96.390, 1870.0, 43.2435
32.003591465, 96.390, 1878.0, 43.3359
32.029852030, 96.390, 1869.0, 43.2319
32.056112595, 96.390, 1888.0, 43.4511
32.082373161, 96.390, 1999.0, 44.7102
32.108633726, 96.390, 2008.0, 44.8107
32.134894291, 96.390, 2112.0, 45.9565
32.161154857, 96.390, 2355.0, 48.5283
32.187415422, 96.390, 2549.0, 50.4876
32.213675987, 96.390, 2898.0, 53.8331
32.239936553, 96.390, 2920.0, 54.0370
32.266197118, 96.390, 2827.0, 53.1695
32.292457683, 96.390, 2729.0, 52.2398
32.318718249, 96.390, 2558.0, 50.5767
32.344978814, 96.390, 2559.0, 50.5866
32.371239380, 96.390, 2439.0, 49.3862
32.397499945, 96.390, 2516.0, 50.1597
32.423760510, 96.390, 2422.0, 49.2138
32.450021076, 96.390, 2356.0, 48.5386
32.476281641, 96.390, 2293.0, 47.8853
32.502542206, 96.390, 2096.0, 45.7821
32.528802772, 96.390, 1926.0, 43.8862
32.555063337, 96.390, 1807.0, 42.5088
32.581323902, 96.390, 1753.0, 41.8688
32.607584468, 96.390, 1728.0, 41.5692
32.633845033, 96.390, 1787.0, 42.2729
32.660105598, 96.390, 1668.0, 40.8412
32.686366164, 96.390, 1633.0, 40.4104
32.712626729, 96.390, 1604.0, 40.0500
32.738887295, 96.390, 1678.0, 40.9634
32.765147860, 96.390, 1666.0, 40.8167
32.791408425, 96.390, 1600.0, 40.0000
32.817668991, 96.390, 1573.0, 39.6611
32.843929556, 96.390, 1618.0, 40.2244
32.870190121, 96.390, 1544.0, 39.2938
32.896450687, 96.390, 1526.0, 39.0640
32.922711252, 96.390, 1601.0, 40.0125
32.948971817, 96.390, 1683.0, 41.0244
32.975232383, 96.390, 1594.0, 39.9249
33.001492948, 96.390, 1617.0, 40.2119
33.027753513, 96.390, 1637.0, 40.4599
33.054014079, 96.390, 1641.0, 40.5093
33.080274644, 96.390, 1778.0, 42.1663
33.106535209, 96.390, 1722.0, 41.4970
33.132795775, 96.390, 1838.0, 42.8719
33.159056340, 96.390, 1862.0, 43.1509
33.185316906, 96.390, 1873.0, 43.2782
33.211577471, 96.390, 1932.0, 43.9545
33.237838036, 96.390, 2099.0, 45.8148
33.264098602, 96.390, 2183.0, 46.7226
33.290359167, 96.390, 2197.0, 46.8722
33.316619732, 96.390, 2289.0, 47.8435
33.342880298, 96.390, 2304.0, 48.0000
33.369140863, 96.390, 2290.0, 47.8539
33.395401428, 96.390, 2269.0, 47.6340
33.421661994, 96.390, 2246.0, 47.3920
33.447922559, 96.390, 2402.0, 49.0102
33.474183124, 96.390, 2475.0, 49.7494
33.500443690, 96.390, 2445.0, 49.4469
33.526704255, 96.390, 2639.0, 51.3712
33.552964820, 96.390, 2414.0, 49.1325
33.579225386, 96.390, 2276.0, 47.7074
33.605485951, 96.390, 2156.0, 46.4327
33.631746517, 96.390, 2132.0, 46.1736
33.658007082, 96.390, 2007.0, 44.7996
33.684267647, 96.390, 1998.0, 44.6990
33.710528213, 96.390, 1930.0, 43.9318
33.736788778, 96.390, 1807.0, 42.5088
33.763049343, 96.390, 1851.0, 43.0232
33.789309909, 96.390, 1796.0, 42.3792
33.815570474, 96.390, 1882.0, 43.3820
33.841831039, 96.390, 1883.0, 43.3935
33.868091605, 96.390, 1853.0, 43.0465
33.894352170, 96.390, 1875.0, 43.3013
33.920612735, 96.390, 1901.0, 43.6005
33.946873301, 96.390, 1918.0, 43.7950
33.973133866, 96.390, 1969.0, 44.3734
33.999394432, 96.390, 1964.0, 44.3170
34.025654997, 96.390, 2044.0, 45.2106
34.051915562, 96.390, 2066.0, 45.4533
34.078176128, 96.390, 2103.0, 45.8585
34.104436693, 96.390, 2025.0, 45.0000
34.130697258, 96.390, 2105.0, 45.8803
34.156957824, 96.390, 2065.0, 45.4423
34.183218389, 96.390, 2100.0, 45.8258
34.209478954, 96.390, 2095.0, 45.7712
34.235739520, 96.390, 2086.0, 45.6727
34.262000085, 96.390, 2048.0, 45.2548
34.288260650, 96.390, 2190.0, 46.7974
34.314521216, 96.390, 2172.0, 46.6047
34.340781781, 96.390, 2162.0, 46.4973
34.367042346, 96.390, 2221.0, 47.1275
34.393302912, 96.390, 2316.0, 48.1248
34.419563477, 96.390, 2386.0, 48.8467
34.445824043, 96.390, 2448.0, 49.4773
34.472084608, 96.390, 2649.0, 51.4684
34.498345173, 96.390, 2744.0, 52.3832
34.524605739, 96.390, 2913.0, 53.9722
34.550866304, 96.390, 3314.0, 57.5674
34.577126869, 96.390, 3729.0, 61.0655
34.603387435, 96.390, 4033.0, 63.5059
34.629648000, 96.390, 4037.0, 63.5374
34.655908565, 96.390, 3903.0, 62.4740
34.682169131, 96.390, 3861.0, 62.1369
34.708429696, 96.390, 3568.0, 59.7327
34.734690261, 96.390, 3180.0, 56.3915
34.760950827, 96.390, 3011.0, 54.8726
34.787211392, 96.390, 2677.0, 51.7397
34.813471958, 96.390, 2568.0, 50.6754
34.839732523, 96.390, 2441.0, 49.4065
34.865993088, 96.390, 2394.0, 48.9285
34.892253654, 96.390, 2326.0, 48.2286
34.918514219, 96.390, 2276.0, 47.7074
34.944774784, 96.390, 2149.0, 46.3573
34.971035350, 96.390, 2178.0, 46.6690
34.997295915, 96.390, 2112.0, 45.9565
35.023556480, 96.390, 2182.0, 46.7119
35.049817046, 96.390, 2065.0, 45.4423
35.076077611, 96.390, 2112.0, 45.9565
35.102338176, 96.390, 2077.0, 45.5741
35.128598742, 96.390, 1974.0, 44.4297
35.154859307, 96.390, 2004.0, 44.7661
35.181119872, 96.390, 2008.0, 44.8107
35.207380438, 96.390, 1960.0, 44.2719
35.233641003, 96.390, 1948.0, 44.1362
35.259901569, 96.390, 1963.0, 44.3058
35.286162134, 96.390, 1924.0, 43.8634
35.312422699, 96.390, 1847.0, 42.9767
35.338683265, 96.390, 1817.0, 42.6263
35.364943830, 96.390, 1914.0, 43.7493
35.391204395, 96.390, 1834.0, 42.8252
35.417464961, 96.390, 1749.0, 41.8210
35.443725526, 96.390, 1874.0, 43.2897
35.469986091, 96.390, 1845.0, 42.9535
35.496246657, 96.390, 1866.0, 43.1972
35.522507222, 96.390, 1752.0, 41.8569
35.548767787, 96.390, 1737.0, 41.6773
35.575028353, 96.390, 1707.0, 41.3159
35.601288918, 96.390, 1796.0, 42.3792
35.627549484, 96.390, 1788.0, 42.2847
35.653810049, 96.390, 1792.0, 42.3320
35.680070614, 96.390, 1776.0, 42.1426
35.706331180, 96.390, 1783.0, 42.2256
35.732591745, 96.390, 1679.0, 40.9756
35.758852310, 96.390, 1619.0, 40.2368
35.785112876, 96.390, 1652.0, 40.6448
35.811373441, 96.390, 1669.0, 40.8534
35.837634006, 96.390, 1692.0, 41.1339
35.863894572, 96.390, 1703.0, 41.2674
35.890155137, 96.390, 1710.0, 41.3521
35.916415702, 96.390, 1649.0, 40.6079
35.942676268, 96.390, 1624.0, 40.2989
35.968936833, 96.390, 1692.0, 41.1339
35.995197398, 96.390, 1753.0, 41.8688
36.021457964, 96.390, 1759.0, 41.9404
36.047718529, 96.390, 1745.0, 41.7732
36.073979095, 96.390, 1754.0, 41.8808
36.100239660, 96.390, 1791.0, 42.3202
36.126500225, 96.390, 1844.0, 42.9418
36.152760791, 96.390, 1915.0, 43.7607
36.179021356, 96.390, 2016.0, 44.8999
36.205281921, 96.390, 1964.0, 44.3170
36.231542487, 96.390, 1888.0, 43.4511
36.257803052, 96.390, 1920.0, 43.8178
36.284063617, 96.390, 1813.0, 42.5793
36.310324183, 96.390, 1796.0, 42.3792
36.336584748, 96.390, 1634.0, 40.4228
36.362845313, 96.390, 1688.0, 41.0853
36.389105879, 96.390, 1643.0, 40.5339
36.415366444, 96.390, 1728.0, 41.5692
36.441627010, 96.390, 1669.0, 40.8534
36.467887575, 96.390, 1737.0, 41.6773
36.494148140, 96.390, 1735.0, 41.6533
36.520408706, 96.390, 1692.0, 41.1339
36.546669271, 96.390, 1870.0, 43.2435
36.572929836, 96.390, 1762.0, 41.9762
36.599190402, 96.390, 1817.0, 42.6263
36.625450967, 96.390, 1811.0, 42.5558
36.651711532, 96.390, 1746.0, 41.7852
36.677972098, 96.390, 1689.0, 41.0974
36.704232663, 96.390, 1743.0, 41.7493
36.730493228, 96.390, 1658.0, 40.7185
36.756753794, 96.390, 1623.0, 40.2865
36.783014359, 96.390, 1555.0, 39.4335
36.809274924, 96.390, 1591.0, 39.8873
36.835535490, 96.390, 1631.0, 40.3856
36.861796055, 96.390, 1589.0, 39.8623
36.888056621, 96.390, 1564.0, 39.5474
36.914317186, 96.390, 1537.0, 39.2046
36.940577751, 96.390, 1576.0, 39.6989
36.966838317, 96.390, 1619.0, 40.2368
36.993098882, 96.390, 1632.0, 40.3980
37.019359447, 96.390, 1587.0, 39.8372
37.045620013, 96.390, 1587.0, 39.8372
37.071880578, 96.390, 1672.0, 40.8901
37.098141143, 96.390, 1534.0, 39.1663
37.124401709, 96.390, 1596.0, 39.9500
37.150662274, 96.390, 1630.0, 40.3733
37.176922839, 96.390, 1641.0, 40.5093
37.203183405, 96.390, 1618.0, 40.2244
37.229443970, 96.390, 1588.0, 39.8497
37.255704535, 96.390, 1604.0, 40.0500
37.281965101, 96.390, 1609.0, 40.1123
37.308225666, 96.390, 1565.0, 39.5601
37.334486232, 96.390, 1585.0, 39.8121
37.360746797, 96.390, 1625.0, 40.3113
37.387007362, 96.390, 1576.0, 39.6989
37.413267928, 96.390, 1657.0, 40.7063
37.439528493, 96.390, 1762.0, 41.9762
37.465789058, 96.390, 1787.0, 42.2729
37.492049624, 96.390, 1828.0, 42.7551
37.518310189, 96.390, 1950.0, 44.1588
37.544570754, 96.390, 1819.0, 42.6497
37.570831320, 96.390, 1755.0, 41.8927
37.597091885, 96.390, 1854.0, 43.0581
37.623352450, 96.390, 1768.0, 42.0476
37.649613016, 96.390, 1693.0, 41.1461
37.675873581, 96.390, 1726.0, 41.5452
37.702134147, 96.390, 1747.0, 41.7971
37.728394712, 96.390, 1734.0, 41.6413
37.754655277, 96.390, 1952.0, 44.1814
37.780915843, 96.390, 2121.0, 46.0543
37.807176408, 96.390, 2270.0, 47.6445
37.833436973, 96.390, 2360.0, 48.5798
37.859697539, 96.390, 2236.0, 47.2864
37.885958104, 96.390, 2053.0, 45.3100
37.912218669, 96.390, 1984.0, 44.5421
37.938479235, 96.390, 1896.0, 43.5431
37.964739800, 96.390, 1788.0, 42.2847
37.991000365, 96.390, 1625.0, 40.3113
38.017260931, 96.390, 1627.0, 40.3361
38.043521496, 96.390, 1484.0, 38.5227
38.069782061, 96.390, 1479.0, 38.4578
38.096042627, 96.390, 1530.0, 39.1152
38.122303192, 96.390, 1429.0, 37.8021
38.148563758, 96.390, 1418.0, 37.6563
38.174824323, 96.390, 1438.0, 37.9210
38.201084888, 96.390, 1353.0, 36.7831
38.227345454, 96.390, 1448.0, 38.0526
38.253606019, 96.390, 1362.0, 36.9053
38.279866584, 96.390, 1418.0, 37.6563
38.306127150, 96.390, 1303.0, 36.0971
38.332387715, 96.390, 1342.0, 36.6333
38.358648280, 96.390, 1344.0, 36.6606
38.384908846, 96.390, 1325.0, 36.4005
38.411169411, 96.390, 1294.0, 35.9722
38.437429976, 96.390, 1303.0, 36.0971
38.463690542, 96.390, 1354.0, 36.7967
38.489951107, 96.390, 1370.0, 37.0135
38.516211673, 96.390, 1288.0, 35.8887
38.542472238, 96.390, 1316.0, 36.2767
38.568732803, 96.390, 1338.0, 36.5787
38.594993369, 96.390, 1298.0, 36.0278
38.621253934, 96.390, 1299.0, 36.0416
38.647514499, 96.390, 1261.0, 35.5106
38.673775065, 96.390, 1405.0, 37.4833
38.700035630, 96.390, 1354.0, 36.7967
38.726296195, 96.390, 1228.0, 35.0428
38.752556761, 96.390, 1266.0, 35.5809
38.778817326, 96.390, 1295.0, 35.9861
38.805077891, 96.390, 1248.0, 35.3270
38.831338457, 96.390, 1278.0, 35.7491
38.857599022, 96.390, 1273.0, 35.6791
38.883859587, 96.390, 1278.0, 35.7491
38.910120153, 96.390, 1312.0, 36.2215
38.936380718, 96.390, 1251.0, 35.3695
38.962641284, 96.390, 1302.0, 36.0832
38.988901849, 96.390, 1242.0, 35.2420
39.015162414, 96.390, 1219.0, 34.9142
39.041422980, 96.390, 1263.0, 35.5387
39.067683545, 96.390, 1217.0, 34.8855
39.093944110, 96.390, 1227.0, 35.0286
39.120204676, 96.390, 1265.0, 35.5668
39.146465241, 96.390, 1244.0, 35.2704
39.172725806, 96.390, 1234.0, 35.1283
39.198986372, 96.390, 1174.0, 34.2637
39.225246937, 96.390, 1210.0, 34.7851
39.251507502, 96.390, 1210.0, 34.7851
39.277768068, 96.390, 1243.0, 35.2562
39.304028633, 96.390, 1212.0, 34.8138
39.330289199, 96.390, 1224.0, 34.9857
39.356549764, 96.390, 1231.0, 35.0856
39.382810329, 96.390, 1220.0, 34.9285
39.409070895, 96.390, 1210.0, 34.7851
39.435331460, 96.390, 1146.0, 33.8526
39.461592025, 96.390, 1195.0, 34.5688
39.487852591, 96.390, 1245.0, 35.2846
39.514113156, 96.390, 1188.0, 34.4674
39.540373721, 96.390, 1210.0, 34.7851
39.566634287, 96.390, 1248.0, 35.3270
39.592894852, 96.390, 1238.0, 35.1852
39.619155417, 96.390, 1241.0, 35.2278
39.645415983, 96.390, 1176.0, 34.2929
39.671676548, 96.390, 1210.0, 34.7851
39.697937113, 96.390, 1219.0, 34.9142
39.724197679, 96.390, 1267.0, 35.5949
39.750458244, 96.390, 1151.0, 33.9264
39.776718810, 96.390, 1313.0, 36.2353
39.802979375, 96.390, 1227.0, 35.0286
39.829239940, 96.390, 1182.0, 34.3802
39.855500506, 96.390, 1236.0, 35.1568
39.881761071, 96.390, 1213.0, 34.8281
39.908021636, 96.390, 1164.0, 34.1174
39.934282202, 96.390, 1212.0, 34.8138
39.960542767, 96.390, 1226.0, 35.0143
39.986803332, 96.390, 1192.0, 34.5254
40.013063898, 96.390, 1183.0, 34.3948
40.039324463, 96.390, 1201.0, 34.6554
40.065585028, 96.390, 1257.0, 35.4542
40.091845594, 96.390, 1336.0, 36.5513
40.118106159, 96.390, 1302.0, 36.0832
40.144366725, 96.390, 1386.0, 37.2290
40.170627290, 96.390, 1471.0, 38.3536
40.196887855, 96.390, 1443.0, 37.9868
40.223148421, 96.390, 1386.0, 37.2290
40.249408986, 96.390, 1324.0, 36.3868
40.275669551, 96.390, 1346.0, 36.6879
40.301930117, 96.390, 1306.0, 36.1386
40.328190682, 96.390, 1275.0, 35.7071
40.354451247, 96.390, 1251.0, 35.3695
40.380711813, 96.390, 1266.0, 35.5809
40.406972378, 96.390, 1273.0, 35.6791
40.433232943, 96.390, 1262.0, 35.5246
40.459493509, 96.390, 1286.0, 35.8608
40.485754074, 96.390, 1268.0, 35.6090
40.512014639, 96.390, 1276.0, 35.7211
40.538275205, 96.390, 1313.0, 36.2353
40.564535770, 96.390, 1356.0, 36.8239
40.590796336, 96.390, 1393.0, 37.3229
40.617056901, 96.390, 1367.0, 36.9730
40.643317466, 96.390, 1339.0, 36.5923
40.669578032, 96.390, 1438.0, 37.9210
40.695838597, 96.390, 1341.0, 36.6197
40.722099162, 96.390, 1350.0, 36.7423
40.748359728, 96.390, 1368.0, 36.9865
40.774620293, 96.390, 1299.0, 36.0416
40.800880858, 96.390, 1271.0, 35.6511
40.827141424, 96.390, 1247.0, 35.3129
40.853401989, 96.390, 1225.0, 35.0000
40.879662554, 96.390, 1216.0, 34.8712
40.905923120, 96.390, 1226.0, 35.0143
40.932183685, 96.390, 1189.0, 34.4819
40.958444251, 96.390, 1187.0, 34.4529
40.984704816, 96.390, 1201.0, 34.6554
41.010965381, 96.390, 1191.0, 34.5109
41.037225947, 96.390, 1142.0, 33.7935
41.063486512, 96.390, 1201.0, 34.6554
41.089747077, 96.390, 1208.0, 34.7563
41.116007643, 96.390, 1229.0, 35.0571
41.142268208, 96.390, 1181.0, 34.3657
41.168528773, 96.390, 1219.0, 34.9142
41.194789339, 96.390, 1332.0, 36.4966
41.221049904, 96.390, 1301.0, 36.0694
41.247310469, 96.390, 1343.0, 36.6470
41.273571035, 96.390, 1385.0, 37.2156
41.299831600, 96.390, 1369.0, 37.0000
41.326092165, 96.390, 1289.0, 35.9026
41.352352731, 96.390, 1268.0, 35.6090
41.378613296, 96.390, 1250.0, 35.3553
41.404873862, 96.390, 1254.0, 35.4119
41.431134427, 96.390, 1218.0, 34.8999
41.457394992, 96.390, 1214.0, 34.8425
41.483655558, 96.390, 1179.0, 34.3366
41.509916123, 96.390, 1129.0, 33.6006
41.536176688, 96.390, 1069.0, 32.6956
41.562437254, 96.390, 1189.0, 34.4819
41.588697819, 96.390, 1158.0, 34.0294
41.614958384, 96.390, 1094.0, 33.0757
41.641218950, 96.390, 1133.0, 33.6601
41.667479515, 96.390, 1075.0, 32.7872
41.693740080, 96.390, 1137.0, 33.7194
41.720000646, 96.390, 1122.0, 33.4963
41.746261211, 96.390, 1095.0, 33.0908
41.772521776, 96.390, 1146.0, 33.8526
41.798782342, 96.390, 1157.0, 34.0147
41.825042907, 96.390, 1139.0, 33.7491
41.851303473, 96.390, 1100.0, 33.1662
41.877564038, 96.390, 1135.0, 33.6898
41.903824603, 96.390, 1168.0, 34.1760
41.930085169, 96.390, 1085.0, 32.9393
41.956345734, 96.390, 1073.0, 32.7567
41.982606299, 96.390, 1165.0, 34.1321
42.008866865, 96.390, 1068.0, 32.6803
42.035127430, 96.390, 1094.0, 33.0757
42.061387995, 96.390, 1120.0, 33.4664
42.087648561, 96.390, 1088.0, 32.9848
42.113909126, 96.390, 1161.0, 34.0735
42.140169691, 96.390, 1148.0, 33.8821
42.166430257, 96.390, 1157.0, 34.0147
42.192690822, 96.390, 1120.0, 33.4664
42.218951388, 96.390, 1118.0, 33.4365
42.245211953, 96.390, 1162.0, 34.0881
42.271472518, 96.390, 1111.0, 33.3317
42.297733084, 96.390, 1108.0, 33.2866
42.323993649, 96.390, 1183.0, 34.3948
42.350254214, 96.390, 1166.0, 34.1467
42.376514780, 96.390, 1226.0, 35.0143
42.402775345, 96.390, 1263.0, 35.5387
42.429035910, 96.390, 1160.0, 34.0588
42.455296476, 96.390, 1173.0, 34.2491
42.481557041, 96.390, 1165.0, 34.1321
42.507817606, 96.390, 1204.0, 34.6987
42.534078172, 96.390, 1249.0, 35.3412
42.560338737, 96.390, 1314.0, 36.2491
42.586599302, 96.390, 1313.0, 36.2353
42.612859868, 96.390, 1424.0, 37.7359
42.639120433, 96.390, 1592.0, 39.8999
42.665380999, 96.390, 1677.0, 40.9512
42.691641564, 96.390, 1977.0, 44.4635
42.717902129, 96.390, 2120.0, 46.0435
42.744162695, 96.390, 2303.0, 47.9896
42.770423260, 96.390, 2275.0, 47.6970
42.796683825, 96.390, 2342.0, 48.3942
42.822944391, 96.390, 2089.0, 45.7056
42.849204956, 96.390, 2038.0, 45.1442
42.875465521, 96.390, 1978.0, 44.4747
42.901726087, 96.390, 1818.0, 42.6380
42.927986652, 96.390, 1566.0, 39.5727
42.954247217, 96.390, 1451.0, 38.0920
42.980507783, 96.390, 1342.0, 36.6333
43.006768348, 96.390, 1333.0, 36.5103
43.033028914, 96.390, 1347.0, 36.7015
43.059289479, 96.390, 1229.0, 35.0571
43.085550044, 96.390, 1209.0, 34.7707
43.111810610, 96.390, 1170.0, 34.2053
43.138071175, 96.390, 1113.0, 33.3617
43.164331740, 96.390, 1106.0, 33.2566
43.190592306, 96.390, 1075.0, 32.7872
43.216852871, 96.390, 1111.0, 33.3317
43.243113436, 96.390, 1093.0, 33.0606
43.269374002, 96.390, 1090.0, 33.0151
43.295634567, 96.390, 1059.0, 32.5423
43.321895132, 96.390, 1065.0, 32.6343
43.348155698, 96.390, 1080.0, 32.8634
43.374416263, 96.390, 974.0, 31.2090
43.400676828, 96.390, 1094.0, 33.0757
43.426937394, 96.390, 1018.0, 31.9061
43.453197959, 96.390, 1043.0, 32.2955
43.479458525, 96.390, 1007.0, 31.7333
43.505719090, 96.390, 1008.0, 31.7490
43.531979655, 96.390, 1000.0, 31.6228
43.558240221, 96.390, 1001.0, 31.6386
43.584500786, 96.390, 1068.0, 32.6803
43.610761351, 96.390, 1011.0, 31.7962
43.637021917, 96.390, 1048.0, 32.3728
43.663282482, 96.390, 1038.0, 32.2180
43.689543047, 96.390, 1155.0, 33.9853
43.715803613, 96.390, 1131.0, 33.6303
43.742064178, 96.390, 1179.0, 34.3366
43.768324743, 96.390, 1136.0, 33.7046
43.794585309, 96.390, 1141.0, 33.7787
43.820845874, 96.390, 1038.0, 32.2180
43.847106440, 96.390, 1115.0, 33.3916
43.873367005, 96.390, 1062.0, 32.5883
43.899627570, 96.390, 1076.0, 32.8024
43.925888136, 96.390, 957.0, 30.9354
43.952148701, 96.390, 1042.0, 32.2800
43.978409266, 96.390, 934.0, 30.5614
44.004669832, 96.390, 1007.0, 31.7333
44.030930397, 96.390, 966.0, 31.0805
44.057190962, 96.390, 981.0, 31.3209
44.083451528, 96.390, 889.0, 29.8161
44.109712093, 96.390, 924.0, 30.3974
44.135972658, 96.390, 985.0, 31.3847
44.162233224, 96.390, 899.0, 29.9833
44.188493789, 96.390, 981.0, 31.3209
44.214754354, 96.390, 974.0, 31.2090
44.241014920, 96.390, 972.0, 31.1769
44.267275485, 96.390, 937.0, 30.6105
44.293536051, 96.390, 970.0, 31.1448
44.319796616, 96.390, 942.0, 30.6920
44.346057181, 96.390, 979.0, 31.2890
44.372317747, 96.390, 919.0, 30.3150
44.398578312, 96.390, 943.0, 30.7083
44.424838877, 96.390, 934.0, 30.5614
44.451099443, 96.390, 959.0, 30.9677
44.477360008, 96.390, 942.0, 30.6920
44.503620573, 96.390, 930.0, 30.4959
44.529881139, 96.390, 961.0, 31.0000
44.556141704, 96.390, 911.0, 30.1828
44.582402269, 96.390, 938.0, 30.6268
44.608662835, 96.390, 919.0, 30.3150
44.634923400, 96.390, 878.0, 29.6311
44.661183966, 96.390, 962.0, 31.0161
44.687444531, 96.390, 977.0, 31.2570
44.713705096, 96.390, 1034.0, 32.1559
44.739965662, 96.390, 962.0, 31.0161
44.766226227, 96.390, 964.0, 31.0483
44.792486792, 96.390, 1013.0, 31.8277
44.818747358, 96.390, 995.0, 31.5436
44.845007923, 96.390, 1029.0, 32.0780
44.871268488, 96.390, 1041.0, 32.2645
44.897529054, 96.390, 1085.0, 32.9393
44.923789619, 96.390, 1178.0, 34.3220
44.950050184, 96.390, 1158.0, 34.0294
44.976310750, 96.390, 1276.0, 35.7211
45.002571315, 96.390, 1247.0, 35.3129
45.028831880, 96.390, 1228.0, 35.0428
45.055092446, 96.390, 1231.0, 35.0856
45.081353011, 96.390, 1232.0, 35.0999
45.107613577, 96.390, 1226.0, 35.0143
45.133874142, 96.390, 1222.0, 34.9571
45.160134707, 96.390, 1205.0, 34.7131
45.186395273, 96.390, 1196.0, 34.5832
45.212655838, 96.390, 1148.0, 33.8821
45.238916403, 96.390, 1169.0, 34.1906
45.265176969, 96.390, 1171.0, 34.2199
45.291437534, 96.390, 1084.0, 32.9242
45.317698099, 96.390, 1075.0, 32.7872
45.343958665, 96.390, 1051.0, 32.4191
45.370219230, 96.390, 1075.0, 32.7872
45.396479795, 96.390, 1009.0, 31.7648
45.422740361, 96.390, 992.0, 31.4960
45.449000926, 96.390, 1003.0, 31.6702
45.475261492, 96.390, 999.0, 31.6070
45.501522057, 96.390, 985.0, 31.3847
45.527782622, 96.390, 982.0, 31.3369
45.554043188, 96.390, 1053.0, 32.4500
45.580303753, 96.390, 947.0, 30.7734
45.606564318, 96.390, 989.0, 31.4484
45.632824884, 96.390, 991.0, 31.4802
45.659085449, 96.390, 1014.0, 31.8434
45.685346014, 96.390, 1010.0, 31.7805
45.711606580, 96.390, 939.0, 30.6431
45.737867145, 96.390, 932.0, 30.5287
45.764127710, 96.390, 963.0, 31.0322
45.790388276, 96.390, 1057.0, 32.5115
45.816648841, 96.390, 966.0, 31.0805
45.842909406, 96.390, 957.0, 30.9354
45.869169972, 96.390, 938.0, 30.6268
45.895430537, 96.390, 994.0, 31.5278
45.921691103, 96.390, 1002.0, 31.6544
45.947951668, 96.390, 937.0, 30.6105
45.974212233, 96.390, 936.0, 30.5941
46.000472799, 96.390, 999.0, 31.6070
46.026733364, 96.390, 986.0, 31.4006
46.052993929, 96.390, 1038.0, 32.2180
46.079254495, 96.390, 996.0, 31.5595
46.105515060, 96.390, 1002.0, 31.6544
46.131775625, 96.390, 1041.0, 32.2645
46.158036191, 96.390, 1061.0, 32.5730
46.184296756, 96.390, 1035.0, 32.1714
46.210557321, 96.390, 1125.0, 33.5410
46.236817887, 96.390, 1014.0, 31.8434
46.263078452, 96.390, 1092.0, 33.0454
46.289339017, 96.390, 994.0, 31.5278
46.315599583, 96.390, 1059.0, 32.5423
46.341860148, 96.390, 1003.0, 31.6702
46.368120714, 96.390, 1035.0, 32.1714
46.394381279, 96.390, 992.0, 31.4960
46.420641844, 96.390, 995.0, 31.5436
46.446902410, 96.390, 957.0, 30.9354
46.473162975, 96.390, 947.0, 30.7734
46.499423540, 96.390, 963.0, 31.0322
46.525684106, 96.390, 989.0, 31.4484
46.551944671, 96.390, 981.0, 31.3209
46.578205236, 96.390, 992.0, 31.4960
46.604465802, 96.390, 938.0, 30.6268
46.630726367, 96.390, 905.0, 30.0832
46.656986932, 96.390, 927.0, 30.4467
46.683247498, 96.390, 928.0, 30.4631
46.709508063, 96.390, 991.0, 31.4802
46.735768629, 96.390, 894.0, 29.8998
46.762029194, 96.390, 959.0, 30.9677
46.788289759, 96.390, 927.0, 30.4467
46.814550325, 96.390, 964.0, 31.0483
46.840810890, 96.390, 981.0, 31.3209
46.867071455, 96.390, 931.0, 30.5123
46.893332021, 96.390, 991.0, 31.4802
46.919592586, 96.390, 915.0, 30.2490
46.945853151, 96.390, 968.0, 31.1127
46.972113717, 96.390, 969.0, 31.1288
46.998374282, 96.390, 915.0, 30.2490
47.024634847, 96.390, 918.0, 30.2985
47.050895413, 96.390, 900.0, 30.0000
47.077155978, 96.390, 973.0, 31.1929
47.103416543, 96.390, 942.0, 30.6920
47.129677109, 96.390, 968.0, 31.1127
47.155937674, 96.390, 964.0, 31.0483
47.182198240, 96.390, 945.0, 30.7409
47.208458805, 96.390, 987.0, 31.4166
47.234719370, 96.390, 952.0, 30.8545
47.260979936, 96.390, 922.0, 30.3645
47.287240501, 96.390, 977.0, 31.2570
47.313501066, 96.390, 946.0, 30.7571
47.339761632, 96.390, 956.0, 30.9192
47.366022197, 96.390, 938.0, 30.6268
47.392282762, 96.390, 892.0, 29.8664
47.418543328, 96.390, 924.0, 30.3974
47.444803893, 96.390, 832.0, 28.8444
47.471064458, 96.390, 936.0, 30.5941
47.497325024, 96.390, 890.0, 29.8329
47.523585589, 96.390, 938.0, 30.6268
47.549846155, 96.390, 959.0, 30.9677
47.576106720, 96.390, 937.0, 30.6105
47.602367285, 96.390, 915.0, 30.2490
47.628627851, 96.390, 914.0, 30.2324
47.654888416, 96.390, 904.0, 30.0666
47.681148981, 96.390, 894.0, 29.8998
47.707409547, 96.390, 861.0, 29.3428
47.733670112, 96.390, 901.0, 30.0167
47.759930677, 96.390, 891.0, 29.8496
47.786191243, 96.390, 865.0, 29.4109
47.812451808, 96.390, 903.0, 30.0500
47.838712373, 96.390, 902.0, 30.0333
47.864972939, 96.390, 816.0, 28.5657
47.891233504, 96.390, 852.0, 29.1890
47.917494069, 96.390, 817.0, 28.5832
47.943754635, 96.390, 796.0, 28.2135
47.970015200, 96.390, 841.0, 29.0000
47.996275766, 96.390, 795.0, 28.1957
48.022536331, 96.390, 821.0, 28.6531
48.048796896, 96.390, 753.0, 27.4408
48.075057462, 96.390, 826.0, 28.7402
48.101318027, 96.390, 763.0, 27.6225
48.127578592, 96.390, 768.0, 27.7128
48.153839158, 96.390, 778.0, 27.8927
48.180099723, 96.390, 813.0, 28.5132
48.206360288, 96.390, 810.0, 28.4605
48.232620854, 96.390, 816.0, 28.5657
48.258881419, 96.390, 738.0, 27.1662
48.285141984, 96.390, 804.0, 28.3549
48.311402550, 96.390, 825.0, 28.7228
48.337663115, 96.390, 761.0, 27.5862
48.363923681, 96.390, 841.0, 29.0000
48.390184246, 96.390, 839.0, 28.9655
48.416444811, 96.390, 815.0, 28.5482
48.442705377, 96.390, 815.0, 28.5482
48.468965942, 96.390, 831.0, 28.8271
48.495226507, 96.390, 821.0, 28.6531
48.521487073, 96.390, 825.0, 28.7228
48.547747638, 96.390, 837.0, 28.9310
48.574008203, 96.390, 815.0, 28.5482
48.600268769, 96.390, 828.0, 28.7750
48.626529334, 96.390, 770.0, 27.7489
48.652789899, 96.390, 747.0, 27.3313
48.679050465, 96.390, 764.0, 27.6405
48.705311030, 96.390, 838.0, 28.9482
48.731571595, 96.390, 813.0, 28.5132
48.757832161, 96.390, 798.0, 28.2489
48.784092726, 96.390, 798.0, 28.2489
48.810353292, 96.390, 759.0, 27.5500
48.836613857, 96.390, 818.0, 28.6007
48.862874422, 96.390, 720.0, 26.8328
48.889134988, 96.390, 785.0, 28.0179
48.915395553, 96.390, 767.0, 27.6948
48.941656118, 96.390, 765.0, 27.6586
48.967916684, 96.390, 758.0, 27.5318
48.994177249, 96.390, 731.0, 27.0370
49.020437814, 96.390, 765.0, 27.6586
49.046698380, 96.390, 739.0, 27.1846
49.072958945, 96.390, 772.0, 27.7849
49.099219510, 96.390, 746.0, 27.3130
49.125480076, 96.390, 741.0, 27.2213
49.151740641, 96.390, 751.0, 27.4044
49.178001207, 96.390, 707.0, 26.5895
49.204261772, 96.390, 770.0, 27.7489
49.230522337, 96.390, 736.0, 27.1293
49.256782903, 96.390, 738.0, 27.1662
49.283043468, 96.390, 762.0, 27.6043
49.309304033, 96.390, 785.0, 28.0179
49.335564599, 96.390, 708.0, 26.6083
49.361825164, 96.390, 746.0, 27.3130
49.388085729, 96.390, 685.0, 26.1725
49.414346295, 96.390, 776.0, 27.8568
49.440606860, 96.390, 801.0, 28.3019
49.466867425, 96.390, 766.0, 27.6767
49.493127991, 96.390, 781.0, 27.9464
49.519388556, 96.390, 791.0, 28.1247
49.545649121, 96.390, 721.0, 26.8514
49.571909687, 96.390, 730.0, 27.0185
49.598170252, 96.390, 744.0, 27.2764
49.624430818, 96.390, 797.0, 28.2312
49.650691383, 96.390, 758.0, 27.5318
49.676951948, 96.390, 767.0, 27.6948
49.703212514, 96.390, 794.0, 28.1780
49.729473079, 96.390, 912.0, 30.1993
49.755733644, 96.390, 868.0, 29.4618
49.781994210, 96.390, 917.0, 30.2820
49.808254775, 96.390, 897.0, 29.9500
49.834515340, 96.390, 896.0, 29.9333
49.860775906, 96.390, 933.0, 30.5450
49.887036471, 96.390, 888.0, 29.7993
49.913297036, 96.390, 867.0, 29.4449
49.939557602, 96.390, 903.0, 30.0500
49.965818167, 96.390, 838.0, 28.9482
49.992078732, 96.390, 832.0, 28.8444
50.018339298, 96.390, 831.0, 28.8271
50.044599863, 96.390, 832.0, 28.8444
50.070860429, 96.390, 832.0, 28.8444
50.097120994, 96.390, 755.0, 27.4773
50.123381559, 96.390, 754.0, 27.4591
50.149642125, 96.390, 752.0, 27.4226
50.175902690, 96.390, 769.0, 27.7308
50.202163255, 96.390, 775.0, 27.8388
50.228423821, 96.390, 798.0, 28.2489
50.254684386, 96.390, 755.0, 27.4773
50.280944951, 96.390, 746.0, 27.3130
50.307205517, 96.390, 734.0, 27.0924
50.333466082, 96.390, 779.0, 27.9106
50.359726647, 96.390, 789.0, 28.0891
50.385987213, 96.390, 749.0, 27.3679
50.412247778, 96.390, 767.0, 27.6948
50.438508344, 96.390, 775.0, 27.8388
50.464768909, 96.390, 759.0, 27.5500
50.491029474, 96.390, 751.0, 27.4044
50.517290040, 96.390, 704.0, 26.5330
50.543550605, 96.390, 768.0, 27.7128
50.569811170, 96.390, 743.0, 27.2580
50.596071736, 96.390, 806.0, 28.3901
50.622332301, 96.390, 757.0, 27.5136
50.648592866, 96.390, 771.0, 27.7669
50.674853432, 96.390, 785.0, 28.0179
50.701113997, 96.390, 727.0, 26.9629
50.727374562, 96.390, 750.0, 27.3861
50.753635128, 96.390, 779.0, 27.9106
50.779895693, 96.390, 747.0, 27.3313
50.806156258, 96.390, 814.0, 28.5307
50.832416824, 96.390, 785.0, 28.0179
50.858677389, 96.390, 833.0, 28.8617
50.884937955, 96.390, 744.0, 27.2764
50.911198520, 96.390, 783.0, 27.9821
50.937459085, 96.390, 814.0, 28.5307
50.963719651, 96.390, 813.0, 28.5132
50.989980216, 96.390, 852.0, 29.1890
51.016240781, 96.390, 894.0, 29.8998
51.042501347, 96.390, 835.0, 28.8964
51.068761912, 96.390, 826.0, 28.7402
51.095022477, 96.390, 845.0, 29.0689
51.121283043, 96.390, 799.0, 28.2666
51.147543608, 96.390, 781.0, 27.9464
51.173804173, 96.390, 781.0, 27.9464
51.200064739, 96.390, 789.0, 28.0891
51.226325304, 96.390, 822.0, 28.6705
51.252585870, 96.390, 809.0, 28.4429
51.278846435, 96.390, 794.0, 28.1780
51.305107000, 96.390, 814.0, 28.5307
51.331367566, 96.390, 856.0, 29.2575
51.357628131, 96.390, 864.0, 29.3939
51.383888696, 96.390, 854.0, 29.2233
51.410149262, 96.390, 845.0, 29.0689
51.436409827, 96.390, 856.0, 29.2575
51.462670392, 96.390, 859.0, 29.3087
51.488930958, 96.390, 826.0, 28.7402
51.515191523, 96.390, 903.0, 30.0500
51.541452088, 96.390, 896.0, 29.9333
51.567712654, 96.390, 802.0, 28.3196
51.593973219, 96.390, 785.0, 28.0179
51.620233784, 96.390, 842.0, 29.0172
51.646494350, 96.390, 820.0, 28.6356
51.672754915, 96.390, 837.0, 28.9310
51.699015481, 96.390, 771.0, 27.7669
51.725276046, 96.390, 809.0, 28.4429
51.751536611, 96.390, 894.0, 29.8998
51.777797177, 96.390, 777.0, 27.8747
51.804057742, 96.390, 910.0, 30.1662
51.830318307, 96.390, 811.0, 28.4781
51.856578873, 96.390, 837.0, 28.9310
51.882839438, 96.390, 929.0, 30.4795
51.909100003, 96.390, 1007.0, 31.7333
51.935360569, 96.390, 1079.0, 32.8481
51.961621134, 96.390, 1179.0, 34.3366
51.987881699, 96.390, 1162.0, 34.0881
52.014142265, 96.390, 1174.0, 34.2637
52.040402830, 96.390, 1070.0, 32.7109
52.066663396, 96.390, 1074.0, 32.7719
52.092923961, 96.390, 1014.0, 31.8434
52.119184526, 96.390, 1020.0, 31.9374
52.145445092, 96.390, 1045.0, 32.3265
52.171705657, 96.390, 922.0, 30.3645
52.197966222, 96.390, 909.0, 30.1496
52.224226788, 96.390, 884.0, 29.7321
52.250487353, 96.390, 881.0, 29.6816
52.276747918, 96.390, 864.0, 29.3939
52.303008484, 96.390, 857.0, 29.2746
52.329269049, 96.390, 816.0, 28.5657
52.355529614, 96.390, 804.0, 28.3549
52.381790180, 96.390, 826.0, 28.7402
52.408050745, 96.390, 810.0, 28.4605
52.434311310, 96.390, 876.0, 29.5973
52.460571876, 96.390, 794.0, 28.1780
52.486832441, 96.390, 814.0, 28.5307
52.513093007, 96.390, 843.0, 29.0345
52.539353572, 96.390, 804.0, 28.3549
52.565614137, 96.390, 798.0, 28.2489
52.591874703, 96.390, 857.0, 29.2746
52.618135268, 96.390, 798.0, 28.2489
52.644395833, 96.390, 784.0, 28.0000
52.670656399, 96.390, 816.0, 28.5657
52.696916964, 96.390, 839.0, 28.9655
52.723177529, 96.390, 826.0, 28.7402
52.749438095, 96.390, 852.0, 29.1890
52.775698660, 96.390, 887.0, 29.7825
52.801959225, 96.390, 849.0, 29.1376
52.828219791, 96.390, 815.0, 28.5482
52.854480356, 96.390, 858.0, 29.2916
52.880740922, 96.390, 848.0, 29.1204
52.907001487, 96.390, 852.0, 29.1890
52.933262052, 96.390, 880.0, 29.6648
52.959522618, 96.390, 922.0, 30.3645
52.985783183, 96.390, 868.0, 29.4618
53.012043748, 96.390, 871.0, 29.5127
53.038304314, 96.390, 839.0, 28.9655
53.064564879, 96.390, 832.0, 28.8444
53.090825444, 96.390, 817.0, 28.5832
53.117086010, 96.390, 800.0, 28.2843
53.143346575, 96.390, 816.0, 28.5657
53.169607140, 96.390, 757.0, 27.5136
53.195867706, 96.390, 788.0, 28.0713
53.222128271, 96.390, 756.0, 27.4955
53.248388836, 96.390, 752.0, 27.4226
53.274649402, 96.390, 776.0, 27.8568
53.300909967, 96.390, 735.0, 27.1109
53.327170533, 96.390, 769.0, 27.7308
53.353431098, 96.390, 737.0, 27.1477
53.379691663, 96.390, 733.0, 27.0740
53.405952229, 96.390, 672.0, 25.9230
53.432212794, 96.390, 690.0, 26.2679
53.458473359, 96.390, 712.0, 26.6833
53.484733925, 96.390, 704.0, 26.5330
53.510994490, 96.390, 704.0, 26.5330
53.537255055, 96.390, 684.0, 26.1534
53.563515621, 96.390, 699.0, 26.4386
53.589776186, 96.390, 674.0, 25.9615
53.616036751, 96.390, 669.0, 25.8650
53.642297317, 96.390, 682.0, 26.1151
53.668557882, 96.390, 658.0, 25.6515
53.694818448, 96.390, 633.0, 25.1595
53.721079013, 96.390, 651.0, 25.5147
53.747339578, 96.390, 666.0, 25.8070
53.773600144, 96.390, 666.0, 25.8070
53.799860709, 96.390, 649.0, 25.4755
53.826121274, 96.390, 666.0, 25.8070
53.852381840, 96.390, 680.0, 26.0768
53.878642405, 96.390, 679.0, 26.0576
53.904902970, 96.390, 628.0, 25.0599
53.931163536, 96.390, 693.0, 26.3249
53.957424101, 96.390, 665.0, 25.7876
53.983684666, 96.390, 642.0, 25.3377
54.009945232, 96.390, 659.0, 25.6710
54.036205797, 96.390, 723.0, 26.8887
54.062466362, 96.390, 692.0, 26.3059
54.088726928, 96.390, 708.0, 26.6083
54.114987493, 96.390, 637.0, 25.2389
54.141248059, 96.390, 692.0, 26.3059
54.167508624, 96.390, 671.0, 25.9037
54.193769189, 96.390, 685.0, 26.1725
54.220029755, 96.390, 718.0, 26.7955
54.246290320, 96.390, 630.0, 25.0998
54.272550885, 96.390, 704.0, 26.5330
54.298811451, 96.390, 642.0, 25.3377
54.325072016, 96.390, 678.0, 26.0384
54.351332581, 96.390, 663.0, 25.7488
54.377593147, 96.390, 679.0, 26.0576
54.403853712, 96.390, 690.0, 26.2679
54.430114277, 96.390, 704.0, 26.5330
54.456374843, 96.390, 723.0, 26.8887
54.482635408, 96.390, 709.0, 26.6271
54.508895973, 96.390, 733.0, 27.0740
54.535156539, 96.390, 684.0, 26.1534
54.561417104, 96.390, 733.0, 27.0740
54.587677670, 96.390, 678.0, 26.0384
54.613938235, 96.390, 703.0, 26.5141
54.640198800, 96.390, 679.0, 26.0576
54.666459366, 96.390, 734.0, 27.0924
54.692719931, 96.390, 656.0, 25.6125
54.718980496, 96.390, 708.0, 26.6083
54.745241062, 96.390, 733.0, 27.0740
54.771501627, 96.390, 642.0, 25.3377
54.797762192, 96.390, 684.0, 26.1534
54.824022758, 96.390, 650.0, 25.4951
54.850283323, 96.390, 637.0, 25.2389
54.876543888, 96.390, 643.0, 25.3574
54.902804454, 96.390, 686.0, 26.1916
54.929065019, 96.390, 645.0, 25.3969
54.955325585, 96.390, 692.0, 26.3059
54.981586150, 96.390, 678.0, 26.0384
55.007846715, 96.390, 689.0, 26.2488
55.034107281, 96.390, 713.0, 26.7021
55.060367846, 96.390, 748.0, 27.3496
55.086628411, 96.390, 741.0, 27.2213
55.112888977, 96.390, 706.0, 26.5707
55.139149542, 96.390, 728.0, 26.9815
55.165410107, 96.390, 720.0, 26.8328
55.191670673, 96.390, 704.0, 26.5330
55.217931238, 96.390, 673.0, 25.9422
55.244191803, 96.390, 700.0, 26.4575
55.270452369, 96.390, 663.0, 25.7488
55.296712934, 96.390, 671.0, 25.9037
55.322973499, 96.390, 688.0, 26.2298
55.349234065, 96.390, 644.0, 25.3772
55.375494630, 96.390, 606.0, 24.6171
55.401755196, 96.390, 680.0, 26.0768
55.428015761, 96.390, 666.0, 25.8070
55.454276326, 96.390, 628.0, 25.0599
55.480536892, 96.390, 630.0, 25.0998
55.506797457, 96.390, 642.0, 25.3377
55.533058022, 96.390, 655.0, 25.5930
55.559318588, 96.390, 595.0, 24.3926
55.585579153, 96.390, 637.0, 25.2389
55.611839718, 96.390, 685.0, 26.1725
55.638100284, 96.390, 701.0, 26.4764
55.664360849, 96.390, 708.0, 26.6083
55.690621414, 96.390, 774.0, 27.8209
55.716881980, 96.390, 705.0, 26.5518
55.743142545, 96.390, 683.0, 26.1343
55.769403111, 96.390, 635.0, 25.1992
55.795663676, 96.390, 692.0, 26.3059
55.821924241, 96.390, 719.0, 26.8142
55.848184807, 96.390, 672.0, 25.9230
55.874445372, 96.390, 710.0, 26.6458
55.900705937, 96.390, 629.0, 25.0799
55.926966503, 96.390, 618.0, 24.8596
55.953227068, 96.390, 645.0, 25.3969
55.979487633, 96.390, 665.0, 25.7876
56.005748199, 96.390, 654.0, 25.5734
56.032008764, 96.390, 659.0, 25.6710
56.058269329, 96.390, 636.0, 25.2190
56.084529895, 96.390, 687.0, 26.2107
56.110790460, 96.390, 660.0, 25.6905
56.137051025, 96.390, 706.0, 26.5707
56.163311591, 96.390, 727.0, 26.9629
56.189572156, 96.390, 741.0, 27.2213
56.215832722, 96.390, 681.0, 26.0960
56.242093287, 96.390, 745.0, 27.2947
56.268353852, 96.390, 691.0, 26.2869
56.294614418, 96.390, 658.0, 25.6515
56.320874983, 96.390, 657.0, 25.6320
56.347135548, 96.390, 658.0, 25.6515
56.373396114, 96.390, 683.0, 26.1343
56.399656679, 96.390, 724.0, 26.9072
56.425917244, 96.390, 643.0, 25.3574
56.452177810, 96.390, 664.0, 25.7682
56.478438375, 96.390, 650.0, 25.4951
56.504698940, 96.390, 696.0, 26.3818
56.530959506, 96.390, 735.0, 27.1109
56.557220071, 96.390, 685.0, 26.1725
56.583480637, 96.390, 668.0, 25.8457
56.609741202, 96.390, 741.0, 27.2213
56.636001767, 96.390, 686.0, 26.1916
56.662262333, 96.390, 681.0, 26.0960
56.688522898, 96.390, 764.0, 27.6405
56.714783463, 96.390, 729.0, 27.0000
56.741044029, 96.390, 762.0, 27.6043
56.767304594, 96.390, 784.0, 28.0000
56.793565159, 96.390, 793.0, 28.1603
56.819825725, 96.390, 809.0, 28.4429
56.846086290, 96.390, 780.0, 27.9285
56.872346855, 96.390, 778.0, 27.8927
56.898607421, 96.390, 795.0, 28.1957
56.924867986, 96.390, 784.0, 28.0000
56.951128551, 96.390, 805.0, 28.3725
56.977389117, 96.390, 817.0, 28.5832
57.003649682, 96.390, 832.0, 28.8444
57.029910248, 96.390, 836.0, 28.9137
57.056170813, 96.390, 818.0, 28.6007
57.082431378, 96.390, 881.0, 29.6816
57.108691944, 96.390, 924.0, 30.3974
57.134952509, 96.390, 939.0, 30.6431
57.161213074, 96.390, 989.0, 31.4484
57.187473640, 96.390, 926.0, 30.4302
57.213734205, 96.390, 834.0, 28.8791
57.239994770, 96.390, 939.0, 30.6431
57.266255336, 96.390, 923.0, 30.3809
57.292515901, 96.390, 866.0, 29.4279
57.318776466, 96.390, 845.0, 29.0689
57.345037032, 96.390, 781.0, 27.9464
57.371297597, 96.390, 771.0, 27.7669
57.397558163, 96.390, 730.0, 27.0185
57.423818728, 96.390, 759.0, 27.5500
57.450079293, 96.390, 743.0, 27.2580
57.476339859, 96.390, 729.0, 27.0000
57.502600424, 96.390, 705.0, 26.5518
57.528860989, 96.390, 692.0, 26.3059
57.555121555, 96.390, 708.0, 26.6083
57.581382120, 96.390, 741.0, 27.2213
57.607642685, 96.390, 677.0, 26.0192
57.633903251, 96.390, 718.0, 26.7955
57.660163816, 96.390, 665.0, 25.7876
57.686424381, 96.390, 672.0, 25.9230
57.712684947, 96.390, 699.0, 26.4386
57.738945512, 96.390, 702.0, 26.4953
57.765206077, 96.390, 710.0, 26.6458
57.791466643, 96.390, 686.0, 26.1916
57.817727208, 96.390, 679.0, 26.0576
57.843987774, 96.390, 736.0, 27.1293
57.870248339, 96.390, 682.0, 26.1151
57.896508904, 96.390, 637.0, 25.2389
57.922769470, 96.390, 695.0, 26.3629
57.949030035, 96.390, 761.0, 27.5862
57.975290600, 96.390, 775.0, 27.8388
58.001551166, 96.390, 734.0, 27.0924
58.027811731, 96.390, 767.0, 27.6948
58.054072296, 96.390, 790.0, 28.1069
58.080332862, 96.390, 883.0, 29.7153
58.106593427, 96.390, 939.0, 30.6431
58.132853992, 96.390, 985.0, 31.3847
58.159114558, 96.390, 1082.0, 32.8938
58.185375123, 96.390, 1075.0, 32.7872
58.211635689, 96.390, 1115.0, 33.3916
58.237896254, 96.390, 1073.0, 32.7567
58.264156819, 96.390, 1011.0, 31.7962
58.290417385, 96.390, 946.0, 30.7571
58.316677950, 96.390, 1022.0, 31.9687
58.342938515, 96.390, 1001.0, 31.6386
58.369199081, 96.390, 914.0, 30.2324
58.395459646, 96.390, 940.0, 30.6594
58.421720211, 96.390, 804.0, 28.3549
58.447980777, 96.390, 824.0, 28.7054
58.474241342, 96.390, 745.0, 27.2947
58.500501907, 96.390, 747.0, 27.3313
58.526762473, 96.390, 734.0, 27.0924
58.553023038, 96.390, 792.0, 28.1425
58.579283603, 96.390, 778.0, 27.8927
58.605544169, 96.390, 720.0, 26.8328
58.631804734, 96.390, 723.0, 26.8887
58.658065300, 96.390, 758.0, 27.5318
58.684325865, 96.390, 746.0, 27.3130
58.710586430, 96.390, 665.0, 25.7876
58.736846996, 96.390, 735.0, 27.1109
58.763107561, 96.390, 690.0, 26.2679
58.789368126, 96.390, 705.0, 26.5518
58.815628692, 96.390, 729.0, 27.0000
58.841889257, 96.390, 680.0, 26.0768
58.868149822, 96.390, 736.0, 27.1293
58.894410388, 96.390, 776.0, 27.8568
58.920670953, 96.390, 772.0, 27.7849
58.946931518, 96.390, 731.0, 27.0370
58.973192084, 96.390, 767.0, 27.6948
58.999452649, 96.390, 729.0, 27.0000
59.025713214, 96.390, 802.0, 28.3196
59.051973780, 96.390, 737.0, 27.1477
59.078234345, 96.390, 731.0, 27.0370
59.104494911, 96.390, 766.0, 27.6767
59.130755476, 96.390, 738.0, 27.1662
59.157016041, 96.390, 778.0, 27.8927
59.183276607, 96.390, 704.0, 26.5330
59.209537172, 96.390, 734.0, 27.0924
59.235797737, 96.390, 775.0, 27.8388
59.262058303, 96.390, 779.0, 27.9106
59.288318868, 96.390, 783.0, 27.9821
59.314579433, 96.390, 773.0, 27.8029
59.340839999, 96.390, 749.0, 27.3679
59.367100564, 96.390, 848.0, 29.1204
59.393361129, 96.390, 845.0, 29.0689
59.419621695, 96.390, 816.0, 28.5657
59.445882260, 96.390, 867.0, 29.4449
59.472142826, 96.390, 870.0, 29.4958
59.498403391, 96.390, 898.0, 29.9666
59.524663956, 96.390, 864.0, 29.3939
59.550924522, 96.390, 931.0, 30.5123
59.577185087, 96.390, 892.0, 29.8664
59.603445652, 96.390, 901.0, 30.0167
59.629706218, 96.390, 1010.0, 31.7805
59.655966783, 96.390, 986.0, 31.4006
59.682227348, 96.390, 975.0, 31.2250
59.708487914, 96.390, 987.0, 31.4166
59.734748479, 96.390, 1035.0, 32.1714
59.761009044, 96.390, 1031.0, 32.1092
59.787269610, 96.390, 1082.0, 32.8938
59.813530175, 96.390, 1024.0, 32.0000
59.839790740, 96.390, 1020.0, 31.9374
59.866051306, 96.390, 1070.0, 32.7109
59.892311871, 96.390, 1119.0, 33.4515
59.918572437, 96.390, 1090.0, 33.0151
59.944833002, 96.390, 1132.0, 33.6452
59.971093567, 96.390, 1135.0, 33.6898
59.997354133, 96.390, 1157.0, 34.0147
60.023614698, 96.390, 1208.0, 34.7563
60.049875263, 96.390, 1180.0, 34.3511
60.076135829, 96.390, 1387.0, 37.2424
60.102396394, 96.390, 1328.0, 36.4417
60.128656959, 96.390, 1281.0, 35.7911
60.154917525, 96.390, 1407.0, 37.5100
60.181178090, 96.390, 1403.0, 37.4566
60.207438655, 96.390, 1403.0, 37.4566
60.233699221, 96.390, 1392.0, 37.3095
60.259959786, 96.390, 1404.0, 37.4700
60.286220352, 96.390, 1322.0, 36.3593
60.312480917, 96.390, 1352.0, 36.7696
60.338741482, 96.390, 1351.0, 36.7560
60.365002048, 96.390, 1330.0, 36.4692
60.391262613, 96.390, 1310.0, 36.1939
60.417523178, 96.390, 1363.0, 36.9188
60.443783744, 96.390, 1275.0, 35.7071
60.470044309, 96.390, 1263.0, 35.5387
60.496304874, 96.390, 1210.0, 34.7851
60.522565440, 96.390, 1192.0, 34.5254
60.548826005, 96.390, 1203.0, 34.6843
60.575086570, 96.390, 1203.0, 34.6843
60.601347136, 96.390, 1155.0, 33.9853
60.627607701, 96.390, 1177.0, 34.3074
60.653868266, 96.390, 1213.0, 34.8281
60.680128832, 96.390, 1219.0, 34.9142
60.706389397, 96.390, 1090.0, 33.0151
60.732649963, 96.390, 1138.0, 33.7343
60.758910528, 96.390, 1074.0, 32.7719
60.785171093, 96.390, 1032.0, 32.1248
60.811431659, 96.390, 1027.0, 32.0468
60.837692224, 96.390, 1077.0, 32.8177
60.863952789, 96.390, 979.0, 31.2890
60.890213355, 96.390, 1016.0, 31.8748
60.916473920, 96.390, 976.0, 31.2410
60.942734485, 96.390, 946.0, 30.7571
60.968995051, 96.390, 912.0, 30.1993
60.995255616, 96.390, 906.0, 30.0998
61.021516181, 96.390, 890.0, 29.8329
61.047776747, 96.390, 912.0, 30.1993
61.074037312, 96.390, 988.0, 31.4325
61.100297878, 96.390, 917.0, 30.2820
61.126558443, 96.390, 860.0, 29.3258
61.152819008, 96.390, 915.0, 30.2490
61.179079574, 96.390, 831.0, 28.8271
61.205340139, 96.390, 833.0, 28.8617
61.231600704, 96.390, 855.0, 29.2404
61.257861270, 96.390, 897.0, 29.9500
61.284121835, 96.390, 856.0, 29.2575
61.310382400, 96.390, 823.0, 28.6880
61.336642966, 96.390, 865.0, 29.4109
61.362903531, 96.390, 792.0, 28.1425
61.389164096, 96.390, 821.0, 28.6531
61.415424662, 96.390, 827.0, 28.7576
61.441685227, 96.390, 862.0, 29.3598
61.467945792, 96.390, 816.0, 28.5657
61.494206358, 96.390, 743.0, 27.2580
61.520466923, 96.390, 805.0, 28.3725
61.546727489, 96.390, 844.0, 29.0517
61.572988054, 96.390, 827.0, 28.7576
61.599248619, 96.390, 809.0, 28.4429
61.625509185, 96.390, 808.0, 28.4253
61.651769750, 96.390, 800.0, 28.2843
61.678030315, 96.390, 829.0, 28.7924
61.704290881, 96.390, 768.0, 27.7128
61.730551446, 96.390, 820.0, 28.6356
61.756812011, 96.390, 824.0, 28.7054
61.783072577, 96.390, 836.0, 28.9137
61.809333142, 96.390, 858.0, 29.2916
61.835593707, 96.390, 826.0, 28.7402
61.861854273, 96.390, 847.0, 29.1033
61.888114838, 96.390, 845.0, 29.0689
61.914375404, 96.390, 835.0, 28.8964
61.940635969, 96.390, 876.0, 29.5973
61.966896534, 96.390, 914.0, 30.2324
61.993157100, 96.390, 887.0, 29.7825
62.019417665, 96.390, 973.0, 31.1929
62.045678230, 96.390, 962.0, 31.0161
62.071938796, 96.390, 938.0, 30.6268
62.098199361, 96.390, 986.0, 31.4006
62.124459926, 96.390, 921.0, 30.3480
62.150720492, 96.390, 927.0, 30.4467
62.176981057, 96.390, 964.0, 31.0483
62.203241622, 96.390, 896.0, 29.9333
62.229502188, 96.390, 878.0, 29.6311
62.255762753, 96.390, 879.0, 29.6479
62.282023318, 96.390, 841.0, 29.0000
62.308283884, 96.390, 779.0, 27.9106
62.334544449, 96.390, 803.0, 28.3373
62.360805015, 96.390, 681.0, 26.0960
62.387065580, 96.390, 732.0, 27.0555
62.413326145, 96.390, 680.0, 26.0768
62.439586711, 96.390, 740.0, 27.2029
62.465847276, 96.390, 706.0, 26.5707
62.492107841, 96.390, 718.0, 26.7955
62.518368407, 96.390, 703.0, 26.5141
62.544628972, 96.390, 675.0, 25.9808
62.570889537, 96.390, 702.0, 26.4953
62.597150103, 96.390, 741.0, 27.2213
62.623410668, 96.390, 677.0, 26.0192
62.649671233, 96.390, 720.0, 26.8328
62.675931799, 96.390, 710.0, 26.6458
62.702192364, 96.390, 714.0, 26.7208
62.728452930, 96.390, 741.0, 27.2213
62.754713495, 96.390, 725.0, 26.9258
62.780974060, 96.390, 723.0, 26.8887
62.807234626, 96.390, 722.0, 26.8701
62.833495191, 96.390, 767.0, 27.6948
62.859755756, 96.390, 659.0, 25.6710
62.886016322, 96.390, 681.0, 26.0960
62.912276887, 96.390, 739.0, 27.1846
62.938537452, 96.390, 682.0, 26.1151
62.964798018, 96.390, 716.0, 26.7582
62.991058583, 96.390, 691.0, 26.2869
63.017319148, 96.390, 651.0, 25.5147
63.043579714, 96.390, 626.0, 25.0200
63.069840279, 96.390, 620.0, 24.8998
63.096100844, 96.390, 660.0, 25.6905
63.122361410, 96.390, 622.0, 24.9399
63.148621975, 96.390, 611.0, 24.7184
63.174882541, 96.390, 608.0, 24.6577
63.201143106, 96.390, 649.0, 25.4755
63.227403671, 96.390, 643.0, 25.3574
63.253664237, 96.390, 641.0, 25.3180
63.279924802, 96.390, 585.0, 24.1868
63.306185367, 96.390, 589.0, 24.2693
63.332445933, 96.390, 618.0, 24.8596
63.358706498, 96.390, 602.0, 24.5357
63.384967063, 96.390, 582.0, 24.1247
63.411227629, 96.390, 563.0, 23.7276
63.437488194, 96.390, 599.0, 24.4745
63.463748759, 96.390, 578.0, 24.0416
63.490009325, 96.390, 603.0, 24.5561
63.516269890, 96.390, 593.0, 24.3516
63.542530455, 96.390, 599.0, 24.4745
63.568791021, 96.390, 643.0, 25.3574
63.595051586, 96.390, 591.0, 24.3105
63.621312152, 96.390, 557.0, 23.6008
63.647572717, 96.390, 604.0, 24.5764
63.673833282, 96.390, 639.0, 25.2784
63.700093848, 96.390, 619.0, 24.8797
63.726354413, 96.390, 639.0, 25.2784
63.752614978, 96.390, 613.0, 24.7588
63.778875544, 96.390, 672.0, 25.9230
63.805136109, 96.390, 691.0, 26.2869
63.831396674, 96.390, 637.0, 25.2389
63.857657240, 96.390, 641.0, 25.3180
63.883917805, 96.390, 636.0, 25.2190
63.910178370, 96.390, 732.0, 27.0555
63.936438936, 96.390, 751.0, 27.4044
63.962699501, 96.390, 726.0, 26.9444
63.988960067, 96.390, 771.0, 27.7669
64.015220632, 96.390, 810.0, 28.4605
64.041481197, 96.390, 726.0, 26.9444
64.067741763, 96.390, 700.0, 26.4575
64.094002328, 96.390, 688.0, 26.2298
64.120262893, 96.390, 711.0, 26.6646
64.146523459, 96.390, 646.0, 25.4165
64.172784024, 96.390, 645.0, 25.3969
64.199044589, 96.390, 697.0, 26.4008
64.225305155, 96.390, 617.0, 24.8395
64.251565720, 96.390, 602.0, 24.5357
64.277826285, 96.390, 614.0, 24.7790
64.304086851, 96.390, 583.0, 24.1454
64.330347416, 96.390, 537.0, 23.1733
64.356607981, 96.390, 550.0, 23.4521
64.382868547, 96.390, 525.0, 22.9129
64.409129112, 96.390, 555.0, 23.5584
64.435389678, 96.390, 503.0, 22.4277
64.461650243, 96.390, 541.0, 23.2594
64.487910808, 96.390, 500.0, 22.3607
64.514171374, 96.390, 524.0, 22.8910
64.540431939, 96.390, 530.0, 23.0217
64.566692504, 96.390, 562.0, 23.7065
64.592953070, 96.390, 547.0, 23.3880
64.619213635, 96.390, 505.0, 22.4722
64.645474200, 96.390, 496.0, 22.2711
64.671734766, 96.390, 543.0, 23.3024
64.697995331, 96.390, 460.0, 21.4476
64.724255896, 96.390, 512.0, 22.6274
64.750516462, 96.390, 489.0, 22.1133
64.776777027, 96.390, 502.0, 22.4054
64.803037593, 96.390, 523.0, 22.8692
64.829298158, 96.390, 511.0, 22.6053
64.855558723, 96.390, 545.0, 23.3452
64.881819289, 96.390, 498.0, 22.3159
64.908079854, 96.390, 522.0, 22.8473
64.934340419, 96.390, 520.0, 22.8035
64.960600985, 96.390, 490.0, 22.1359
64.986861550, 96.390, 550.0, 23.4521
