5.007730280 3339.0
5.033990845 3467.0
5.060251411 3351.0
5.086511976 3302.0
5.112772541 3423.0
5.139033107 3280.0
5.165293672 3245.0
5.191554237 3306.0
5.217814803 3233.0
5.244075368 3142.0
5.270335934 3143.0
5.296596499 3238.0
5.322857064 3156.0
5.349117630 3205.0
5.375378195 3186.0
5.401638760 3208.0
5.427899326 3093.0
5.454159891 3092.0
5.480420456 3177.0
5.506681022 3045.0
5.532941587 3130.0
5.559202152 3136.0
5.585462718 3004.0
5.611723283 2986.0
5.637983849 3018.0
5.664244414 3102.0
5.690504979 3070.0
5.716765545 3107.0
5.743026110 2937.0
5.769286675 3026.0
5.795547241 2955.0
5.821807806 2957.0
5.848068371 2905.0
5.874328937 2899.0
5.900589502 2978.0
5.926850067 3014.0
5.953110633 2833.0
5.979371198 2955.0
6.005631763 2992.0
6.031892329 2918.0
6.058152894 2977.0
6.084413460 2964.0
6.110674025 2821.0
6.136934590 2930.0
6.163195156 2814.0
6.189455721 2844.0
6.215716286 2855.0
6.241976852 2948.0
6.268237417 2990.0
6.294497982 2867.0
6.320758548 2893.0
6.347019113 2903.0
6.373279678 2883.0
6.399540244 2906.0
6.425800809 2841.0
6.452061375 2892.0
6.478321940 2817.0
6.504582505 2791.0
6.530843071 2864.0
6.557103636 2792.0
6.583364201 2854.0
6.609624767 2791.0
6.635885332 2843.0
6.662145897 2868.0
6.688406463 2813.0
6.714667028 2929.0
6.740927593 2882.0
6.767188159 2860.0
6.793448724 2896.0
6.819709289 2806.0
6.845969855 2808.0
6.872230420 2879.0
6.898490986 2870.0
6.924751551 2793.0
6.951012116 2750.0
6.977272682 2892.0
7.003533247 2862.0
7.029793812 2846.0
7.056054378 2880.0
7.082314943 2987.0
7.108575508 2833.0
7.134836074 2945.0
7.161096639 2966.0
7.187357204 2891.0
7.213617770 2914.0
7.239878335 2942.0
7.266138900 3054.0
7.292399466 2917.0
7.318660031 3040.0
7.344920597 2964.0
7.371181162 2841.0
7.397441727 2937.0
7.423702293 2930.0
7.449962858 3087.0
7.476223423 3005.0
7.502483989 3110.0
7.528744554 3071.0
7.555005119 3030.0
7.581265685 3062.0
7.607526250 3127.0
7.633786815 3187.0
7.660047381 3122.0
7.686307946 3324.0
7.712568512 3327.0
7.738829077 3300.0
7.765089642 3358.0
7.791350208 3334.0
7.817610773 3403.0
7.843871338 3601.0
7.870131904 3500.0
7.896392469 3686.0
7.922653034 3622.0
7.948913600 3788.0
7.975174165 3867.0
8.001434730 3967.0
8.027695296 4152.0
8.053955861 4166.0
8.080216426 4096.0
8.106476992 4428.0
8.132737557 4635.0
8.158998123 4651.0
8.185258688 4799.0
8.211519253 5165.0
8.237779819 4996.0
8.264040384 5242.0
8.290300949 5274.0
8.316561515 5540.0
8.342822080 5491.0
8.369082645 5781.0
8.395343211 5901.0
8.421603776 6001.0
8.447864341 5972.0
8.474124907 6292.0
8.500385472 6323.0
8.526646038 6250.0
8.552906603 6087.0
8.579167168 5960.0
8.605427734 5949.0
8.631688299 6091.0
8.657948864 5871.0
8.684209430 5900.0
8.710469995 5825.0
8.736730560 5718.0
8.762991126 5453.0
8.789251691 5683.0
8.815512256 5550.0
8.841772822 5469.0
8.868033387 5377.0
8.894293952 5475.0
8.920554518 5273.0
8.946815083 5053.0
8.973075649 5252.0
8.999336214 4930.0
9.025596779 4956.0
9.051857345 5173.0
9.078117910 4858.0
9.104378475 4931.0
9.130639041 4857.0
9.156899606 4583.0
9.183160171 4716.0
9.209420737 4625.0
9.235681302 4320.0
9.261941867 4319.0
9.288202433 4303.0
9.314462998 4118.0
9.340723564 4114.0
9.366984129 4116.0
9.393244694 4071.0
9.419505260 4013.0
9.445765825 3956.0
9.472026390 3828.0
9.498286956 3771.0
9.524547521 3863.0
9.550808086 3629.0
9.577068652 3630.0
9.603329217 3595.0
9.629589782 3610.0
9.655850348 3601.0
9.682110913 3580.0
9.708371478 3489.0
9.734632044 3557.0
9.760892609 3503.0
9.787153175 3563.0
9.813413740 3574.0
9.839674305 3615.0
9.865934871 3734.0
9.892195436 3786.0
9.918456001 3777.0
9.944716567 3902.0
9.970977132 3951.0
9.997237697 3994.0
10.023498263 4062.0
10.049758828 3979.0
10.076019393 4132.0
10.102279959 4095.0
10.128540524 4027.0
10.154801090 3909.0
10.181061655 3896.0
10.207322220 3707.0
10.233582786 3548.0
10.259843351 3474.0
10.286103916 3320.0
10.312364482 3134.0
10.338625047 3076.0
10.364885612 3024.0
10.391146178 2824.0
10.417406743 2820.0
10.443667308 2752.0
10.469927874 2735.0
10.496188439 2579.0
10.522449004 2624.0
10.548709570 2722.0
10.574970135 2549.0
10.601230701 2561.0
10.627491266 2652.0
10.653751831 2597.0
10.680012397 2596.0
10.706272962 2623.0
10.732533527 2532.0
10.758794093 2544.0
10.785054658 2625.0
10.811315223 2632.0
10.837575789 2700.0
10.863836354 2687.0
10.890096919 2723.0
10.916357485 2718.0
10.942618050 2726.0
10.968878616 2706.0
10.995139181 2605.0
11.021399746 2558.0
11.047660312 2695.0
11.073920877 2508.0
11.100181442 2443.0
11.126442008 2530.0
11.152702573 2454.0
11.178963138 2528.0
11.205223704 2415.0
11.231484269 2461.0
11.257744834 2508.0
11.284005400 2440.0
11.310265965 2426.0
11.336526530 2513.0
11.362787096 2526.0
11.389047661 2518.0
11.415308227 2487.0
11.441568792 2349.0
11.467829357 2480.0
11.494089923 2505.0
11.520350488 2496.0
11.546611053 2467.0
11.572871619 2498.0
11.599132184 2511.0
11.625392749 2428.0
11.651653315 2506.0
11.677913880 2510.0
11.704174445 2480.0
11.730435011 2450.0
11.756695576 2443.0
11.782956141 2426.0
11.809216707 2409.0
11.835477272 2417.0
11.861737838 2415.0
11.887998403 2471.0
11.914258968 2436.0
11.940519534 2469.0
11.966780099 2405.0
11.993040664 2509.0
12.019301230 2453.0
12.045561795 2620.0
12.071822360 2640.0
12.098082926 2559.0
12.124343491 2646.0
12.150604056 2768.0
12.176864622 2697.0
12.203125187 2775.0
12.229385753 2735.0
12.255646318 2720.0
12.281906883 2586.0
12.308167449 2571.0
12.334428014 2490.0
12.360688579 2462.0
12.386949145 2468.0
12.413209710 2397.0
12.439470275 2317.0
12.465730841 2242.0
12.491991406 2174.0
12.518251971 2076.0
12.544512537 2064.0
12.570773102 2070.0
12.597033667 1993.0
12.623294233 2025.0
12.649554798 1972.0
12.675815364 2015.0
12.702075929 1916.0
12.728336494 1951.0
12.754597060 1991.0
12.780857625 1891.0
12.807118190 1866.0
12.833378756 1974.0
12.859639321 1917.0
12.885899886 1957.0
12.912160452 1928.0
12.938421017 1956.0
12.964681582 1898.0
12.990942148 1910.0
13.017202713 1875.0
13.043463279 1832.0
13.069723844 1943.0
13.095984409 1839.0
13.122244975 1959.0
13.148505540 1905.0
13.174766105 1833.0
13.201026671 1815.0
13.227287236 1823.0
13.253547801 1800.0
13.279808367 1838.0
13.306068932 1773.0
13.332329497 1791.0
13.358590063 1784.0
13.384850628 1874.0
13.411111193 1794.0
13.437371759 1774.0
13.463632324 1792.0
13.489892890 1860.0
13.516153455 1826.0
13.542414020 1760.0
13.568674586 1818.0
13.594935151 1750.0
13.621195716 1738.0
13.647456282 1755.0
13.673716847 1762.0
13.699977412 1764.0
13.726237978 1813.0
13.752498543 1721.0
13.778759108 1764.0
13.805019674 1735.0
13.831280239 1774.0
13.857540805 1722.0
13.883801370 1804.0
13.910061935 1786.0
13.936322501 1676.0
13.962583066 1643.0
13.988843631 1714.0
14.015104197 1795.0
14.041364762 1693.0
14.067625327 1756.0
14.093885893 1724.0
14.120146458 1685.0
14.146407023 1660.0
14.172667589 1764.0
14.198928154 1653.0
14.225188719 1743.0
14.251449285 1737.0
14.277709850 1724.0
14.303970416 1694.0
14.330230981 1757.0
14.356491546 1691.0
14.382752112 1735.0
14.409012677 1646.0
14.435273242 1710.0
14.461533808 1702.0
14.487794373 1760.0
14.514054938 1743.0
14.540315504 1758.0
14.566576069 1873.0
14.592836634 1843.0
14.619097200 1724.0
14.645357765 1879.0
14.671618331 1894.0
14.697878896 1912.0
14.724139461 1929.0
14.750400027 1929.0
14.776660592 1981.0
14.802921157 2030.0
14.829181723 2007.0
14.855442288 2047.0
14.881702853 2057.0
14.907963419 1997.0
14.934223984 1935.0
14.960484549 1873.0
14.986745115 1872.0
15.013005680 1814.0
15.039266245 1932.0
15.065526811 1933.0
15.091787376 1882.0
15.118047942 1991.0
15.144308507 1921.0
15.170569072 1955.0
15.196829638 1928.0
15.223090203 2033.0
15.249350768 2030.0
15.275611334 1957.0
15.301871899 1988.0
15.328132464 2022.0
15.354393030 1949.0
15.380653595 1809.0
15.406914160 1886.0
15.433174726 1871.0
15.459435291 1742.0
15.485695857 1770.0
15.511956422 1736.0
15.538216987 1803.0
15.564477553 1731.0
15.590738118 1807.0
15.616998683 1691.0
15.643259249 1731.0
15.669519814 1779.0
15.695780379 1719.0
15.722040945 1765.0
15.748301510 1836.0
15.774562075 1693.0
15.800822641 1795.0
15.827083206 1699.0
15.853343771 1767.0
15.879604337 1740.0
15.905864902 1755.0
15.932125468 1811.0
15.958386033 1880.0
15.984646598 1826.0
16.010907164 1806.0
16.037167729 1791.0
16.063428294 1842.0
16.089688860 1838.0
16.115949425 1912.0
16.142209990 1881.0
16.168470556 1879.0
16.194731121 2013.0
16.220991686 1898.0
16.247252252 1959.0
16.273512817 1940.0
16.299773382 1931.0
16.326033948 1938.0
16.352294513 1986.0
16.378555079 2026.0
16.404815644 2046.0
16.431076209 2020.0
16.457336775 2088.0
16.483597340 2155.0
16.509857905 2075.0
16.536118471 2064.0
16.562379036 2180.0
16.588639601 2170.0
16.614900167 2205.0
16.641160732 2331.0
16.667421297 2267.0
16.693681863 2344.0
16.719942428 2344.0
16.746202994 2362.0
16.772463559 2302.0
16.798724124 2350.0
16.824984690 2414.0
16.851245255 2362.0
16.877505820 2449.0
16.903766386 2439.0
16.930026951 2436.0
16.956287516 2326.0
16.982548082 2470.0
17.008808647 2337.0
17.035069212 2302.0
17.061329778 2353.0
17.087590343 2393.0
17.113850908 2343.0
17.140111474 2230.0
17.166372039 2273.0
17.192632605 2273.0
17.218893170 2174.0
17.245153735 2144.0
17.271414301 2149.0
17.297674866 2113.0
17.323935431 2134.0
17.350195997 2042.0
17.376456562 2052.0
17.402717127 2075.0
17.428977693 2047.0
17.455238258 2061.0
17.481498823 1969.0
17.507759389 1982.0
17.534019954 1971.0
17.560280520 1938.0
17.586541085 1856.0
17.612801650 1809.0
17.639062216 1815.0
17.665322781 1843.0
17.691583346 1891.0
17.717843912 1776.0
17.744104477 1769.0
17.770365042 1840.0
17.796625608 1815.0
17.822886173 1758.0
17.849146738 1749.0
17.875407304 1701.0
17.901667869 1774.0
17.927928434 1641.0
17.954189000 1705.0
17.980449565 1653.0
18.006710131 1643.0
18.032970696 1651.0
18.059231261 1597.0
18.085491827 1609.0
18.111752392 1589.0
18.138012957 1500.0
18.164273523 1566.0
18.190534088 1478.0
18.216794653 1497.0
18.243055219 1516.0
18.269315784 1440.0
18.295576349 1466.0
18.321836915 1552.0
18.348097480 1440.0
18.374358046 1492.0
18.400618611 1476.0
18.426879176 1443.0
18.453139742 1504.0
18.479400307 1485.0
18.505660872 1374.0
18.531921438 1422.0
18.558182003 1482.0
18.584442568 1514.0
18.610703134 1466.0
18.636963699 1427.0
18.663224264 1454.0
18.689484830 1402.0
18.715745395 1429.0
18.742005960 1452.0
18.768266526 1489.0
18.794527091 1448.0
18.820787657 1454.0
18.847048222 1415.0
18.873308787 1391.0
18.899569353 1462.0
18.925829918 1438.0
18.952090483 1404.0
18.978351049 1377.0
19.004611614 1419.0
19.030872179 1485.0
19.057132745 1437.0
19.083393310 1501.0
19.109653875 1403.0
19.135914441 1458.0
19.162175006 1472.0
19.188435572 1464.0
19.214696137 1459.0
19.240956702 1431.0
19.267217268 1464.0
19.293477833 1511.0
19.319738398 1506.0
19.345998964 1573.0
19.372259529 1419.0
19.398520094 1535.0
19.424780660 1492.0
19.451041225 1531.0
19.477301790 1567.0
19.503562356 1543.0
19.529822921 1635.0
19.556083486 1600.0
19.582344052 1633.0
19.608604617 1534.0
19.634865183 1630.0
19.661125748 1527.0
19.687386313 1546.0
19.713646879 1565.0
19.739907444 1540.0
19.766168009 1544.0
19.792428575 1529.0
19.818689140 1515.0
19.844949705 1468.0
19.871210271 1518.0
19.897470836 1488.0
19.923731401 1491.0
19.949991967 1541.0
19.976252532 1520.0
20.002513098 1438.0
20.028773663 1393.0
20.055034228 1546.0
20.081294794 1463.0
20.107555359 1446.0
20.133815924 1491.0
20.160076490 1421.0
20.186337055 1458.0
20.212597620 1444.0
20.238858186 1446.0
20.265118751 1366.0
20.291379316 1390.0
20.317639882 1436.0
20.343900447 1468.0
20.370161012 1440.0
20.396421578 1379.0
20.422682143 1459.0
20.448942709 1415.0
20.475203274 1421.0
20.501463839 1399.0
20.527724405 1461.0
20.553984970 1405.0
20.580245535 1402.0
20.606506101 1430.0
20.632766666 1476.0
20.659027231 1369.0
20.685287797 1398.0
20.711548362 1381.0
20.737808927 1359.0
20.764069493 1449.0
20.790330058 1428.0
20.816590623 1390.0
20.842851189 1387.0
20.869111754 1370.0
20.895372320 1396.0
20.921632885 1345.0
20.947893450 1417.0
20.974154016 1348.0
21.000414581 1397.0
21.026675146 1429.0
21.052935712 1427.0
21.079196277 1462.0
21.105456842 1451.0
21.131717408 1401.0
21.157977973 1400.0
21.184238538 1333.0
21.210499104 1399.0
21.236759669 1403.0
21.263020235 1439.0
21.289280800 1448.0
21.315541365 1451.0
21.341801931 1482.0
21.368062496 1487.0
21.394323061 1446.0
21.420583627 1560.0
21.446844192 1504.0
21.473104757 1480.0
21.499365323 1497.0
21.525625888 1487.0
21.551886453 1384.0
21.578147019 1426.0
21.604407584 1421.0
21.630668149 1410.0
21.656928715 1408.0
21.683189280 1370.0
21.709449846 1379.0
21.735710411 1408.0
21.761970976 1417.0
21.788231542 1469.0
21.814492107 1418.0
21.840752672 1482.0
21.867013238 1477.0
21.893273803 1426.0
21.919534368 1544.0
21.945794934 1555.0
21.972055499 1505.0
21.998316064 1496.0
22.024576630 1479.0
22.050837195 1490.0
22.077097761 1493.0
22.103358326 1323.0
22.129618891 1376.0
22.155879457 1412.0
22.182140022 1395.0
22.208400587 1398.0
22.234661153 1358.0
22.260921718 1332.0
22.287182283 1385.0
22.313442849 1412.0
22.339703414 1393.0
22.365963979 1420.0
22.392224545 1397.0
22.418485110 1400.0
22.444745675 1423.0
22.471006241 1448.0
22.497266806 1347.0
22.523527372 1375.0
22.549787937 1339.0
22.576048502 1308.0
22.602309068 1406.0
22.628569633 1316.0
22.654830198 1376.0
22.681090764 1372.0
22.707351329 1435.0
22.733611894 1383.0
22.759872460 1331.0
22.786133025 1414.0
22.812393590 1369.0
22.838654156 1369.0
22.864914721 1434.0
22.891175287 1444.0
22.917435852 1509.0
22.943696417 1406.0
22.969956983 1477.0
22.996217548 1510.0
23.022478113 1597.0
23.048738679 1553.0
23.074999244 1588.0
23.101259809 1712.0
23.127520375 1621.0
23.153780940 1704.0
23.180041505 1687.0
23.206302071 1562.0
23.232562636 1581.0
23.258823201 1498.0
23.285083767 1496.0
23.311344332 1509.0
23.337604898 1505.0
23.363865463 1482.0
23.390126028 1414.0
23.416386594 1455.0
23.442647159 1447.0
23.468907724 1415.0
23.495168290 1418.0
23.521428855 1454.0
23.547689420 1432.0
23.573949986 1462.0
23.600210551 1466.0
23.626471116 1388.0
23.652731682 1390.0
23.678992247 1391.0
23.705252813 1437.0
23.731513378 1368.0
23.757773943 1389.0
23.784034509 1450.0
23.810295074 1368.0
23.836555639 1360.0
23.862816205 1328.0
23.889076770 1332.0
23.915337335 1294.0
23.941597901 1442.0
23.967858466 1349.0
23.994119031 1284.0
24.020379597 1402.0
24.046640162 1418.0
24.072900727 1432.0
24.099161293 1332.0
24.125421858 1377.0
24.151682424 1388.0
24.177942989 1352.0
24.204203554 1449.0
24.230464120 1325.0
24.256724685 1334.0
24.282985250 1386.0
24.309245816 1423.0
24.335506381 1457.0
24.361766946 1520.0
24.388027512 1458.0
24.414288077 1507.0
24.440548642 1509.0
24.466809208 1530.0
24.493069773 1660.0
24.519330338 1578.0
24.545590904 1567.0
24.571851469 1661.0
24.598112035 1659.0
24.624372600 1671.0
24.650633165 1646.0
24.676893731 1747.0
24.703154296 1691.0
24.729414861 1683.0
24.755675427 1712.0
24.781935992 1680.0
24.808196557 1708.0
24.834457123 1805.0
24.860717688 1674.0
24.886978253 1689.0
24.913238819 1646.0
24.939499384 1673.0
24.965759950 1663.0
24.992020515 1601.0
25.018281080 1580.0
25.044541646 1581.0
25.070802211 1572.0
25.097062776 1622.0
25.123323342 1588.0
25.149583907 1508.0
25.175844472 1585.0
25.202105038 1502.0
25.228365603 1550.0
25.254626168 1537.0
25.280886734 1530.0
25.307147299 1568.0
25.333407864 1603.0
25.359668430 1497.0
25.385928995 1543.0
25.412189561 1525.0
25.438450126 1571.0
25.464710691 1514.0
25.490971257 1484.0
25.517231822 1428.0
25.543492387 1402.0
25.569752953 1459.0
25.596013518 1469.0
25.622274083 1394.0
25.648534649 1352.0
25.674795214 1376.0
25.701055779 1334.0
25.727316345 1345.0
25.753576910 1317.0
25.779837476 1296.0
25.806098041 1277.0
25.832358606 1279.0
25.858619172 1266.0
25.884879737 1286.0
25.911140302 1252.0
25.937400868 1284.0
25.963661433 1206.0
25.989921998 1215.0
26.016182564 1289.0
26.042443129 1230.0
26.068703694 1251.0
26.094964260 1266.0
26.121224825 1247.0
26.147485390 1320.0
26.173745956 1277.0
26.200006521 1356.0
26.226267087 1416.0
26.252527652 1398.0
26.278788217 1547.0
26.305048783 1586.0
26.331309348 1557.0
26.357569913 1632.0
26.383830479 1551.0
26.410091044 1551.0
26.436351609 1614.0
26.462612175 1599.0
26.488872740 1510.0
26.515133305 1480.0
26.541393871 1397.0
26.567654436 1384.0
26.593915002 1343.0
26.620175567 1362.0
26.646436132 1370.0
26.672696698 1261.0
26.698957263 1285.0
26.725217828 1328.0
26.751478394 1224.0
26.777738959 1283.0
26.803999524 1230.0
26.830260090 1241.0
26.856520655 1151.0
26.882781220 1176.0
26.909041786 1251.0
26.935302351 1211.0
26.961562916 1251.0
26.987823482 1193.0
27.014084047 1199.0
27.040344613 1182.0
27.066605178 1227.0
27.092865743 1234.0
27.119126309 1209.0
27.145386874 1213.0
27.171647439 1282.0
27.197908005 1256.0
27.224168570 1202.0
27.250429135 1295.0
27.276689701 1280.0
27.302950266 1286.0
27.329210831 1260.0
27.355471397 1276.0
27.381731962 1281.0
27.407992528 1221.0
27.434253093 1277.0
27.460513658 1328.0
27.486774224 1315.0
27.513034789 1331.0
27.539295354 1225.0
27.565555920 1268.0
27.591816485 1269.0
27.618077050 1177.0
27.644337616 1215.0
27.670598181 1247.0
27.696858746 1335.0
27.723119312 1239.0
27.749379877 1268.0
27.775640442 1283.0
27.801901008 1287.0
27.828161573 1156.0
27.854422139 1176.0
27.880682704 1069.0
27.906943269 1162.0
27.933203835 1059.0
27.959464400 1127.0
27.985724965 1052.0
28.011985531 979.0
28.038246096 1054.0
28.064506661 1029.0
28.090767227 1090.0
28.117027792 1009.0
28.143288357 1049.0
28.169548923 986.0
28.195809488 1022.0
28.222070054 1059.0
28.248330619 1036.0
28.274591184 1031.0
28.300851750 1106.0
28.327112315 1035.0
28.353372880 982.0
28.379633446 1071.0
28.405894011 990.0
28.432154576 1048.0
28.458415142 1051.0
28.484675707 1063.0
28.510936272 1060.0
28.537196838 1005.0
28.563457403 1037.0
28.589717968 1028.0
28.615978534 1095.0
28.642239099 1104.0
28.668499665 1068.0
28.694760230 1091.0
28.721020795 1105.0
28.747281361 1113.0
28.773541926 1056.0
28.799802491 1115.0
28.826063057 1149.0
28.852323622 1144.0
28.878584187 1157.0
28.904844753 1156.0
28.931105318 1176.0
28.957365883 1188.0
28.983626449 1266.0
29.009887014 1239.0
29.036147579 1270.0
29.062408145 1252.0
29.088668710 1304.0
29.114929276 1251.0
29.141189841 1191.0
29.167450406 1248.0
29.193710972 1211.0
29.219971537 1225.0
29.246232102 1200.0
29.272492668 1241.0
29.298753233 1273.0
29.325013798 1208.0
29.351274364 1296.0
29.377534929 1242.0
29.403795494 1205.0
29.430056060 1246.0
29.456316625 1262.0
29.482577191 1202.0
29.508837756 1261.0
29.535098321 1228.0
29.561358887 1253.0
29.587619452 1259.0
29.613880017 1245.0
29.640140583 1228.0
29.666401148 1261.0
29.692661713 1301.0
29.718922279 1242.0
29.745182844 1264.0
29.771443409 1399.0
29.797703975 1372.0
29.823964540 1323.0
29.850225105 1318.0
29.876485671 1386.0
29.902746236 1398.0
29.929006802 1446.0
29.955267367 1426.0
29.981527932 1428.0
30.007788498 1364.0
30.034049063 1444.0
30.060309628 1387.0
30.086570194 1471.0
30.112830759 1425.0
30.139091324 1526.0
30.165351890 1508.0
30.191612455 1494.0
30.217873020 1741.0
30.244133586 1809.0
30.270394151 1922.0
30.296654717 2070.0
30.322915282 2179.0
30.349175847 2322.0
30.375436413 2396.0
30.401696978 2421.0
30.427957543 2289.0
30.454218109 2222.0
30.480478674 1980.0
30.506739239 1926.0
30.532999805 1756.0
30.559260370 1580.0
30.585520935 1508.0
30.611781501 1466.0
30.638042066 1411.0
30.664302631 1337.0
30.690563197 1330.0
30.716823762 1303.0
30.743084328 1364.0
30.769344893 1329.0
30.795605458 1300.0
30.821866024 1352.0
30.848126589 1289.0
30.874387154 1339.0
30.900647720 1271.0
30.926908285 1359.0
30.953168850 1376.0
30.979429416 1420.0
31.005689981 1417.0
31.031950546 1424.0
31.058211112 1498.0
31.084471677 1570.0
31.110732243 1615.0
31.136992808 1673.0
31.163253373 1669.0
31.189513939 1689.0
31.215774504 1643.0
31.242035069 1581.0
31.268295635 1539.0
31.294556200 1466.0
31.320816765 1365.0
31.347077331 1323.0
31.373337896 1275.0
31.399598461 1227.0
31.425859027 1223.0
31.452119592 1237.0
31.478380157 1194.0
31.504640723 1186.0
31.530901288 1172.0
31.557161854 1140.0
31.583422419 1139.0
31.609682984 1114.0
31.635943550 1144.0
31.662204115 1127.0
31.688464680 1146.0
31.714725246 1030.0
31.740985811 1176.0
31.767246376 1078.0
31.793506942 1171.0
31.819767507 1107.0
31.846028072 1156.0
31.872288638 1169.0
31.898549203 1218.0
31.924809769 1214.0
31.951070334 1176.0
31.977330899 1184.0
32.003591465 1215.0
32.029852030 1146.0
32.056112595 1165.0
32.082373161 1150.0
32.108633726 1135.0
32.134894291 1159.0
32.161154857 1148.0
32.187415422 1136.0
32.213675987 1083.0
32.239936553 1117.0
32.266197118 1076.0
32.292457683 1104.0
32.318718249 1148.0
32.344978814 1101.0
32.371239380 1131.0
32.397499945 1063.0
32.423760510 1107.0
32.450021076 1149.0
32.476281641 1176.0
32.502542206 1119.0
32.528802772 1169.0
32.555063337 1209.0
32.581323902 1134.0
32.607584468 1180.0
32.633845033 1153.0
32.660105598 1171.0
32.686366164 1123.0
32.712626729 1210.0
32.738887295 1200.0
32.765147860 1220.0
32.791408425 1194.0
32.817668991 1201.0
32.843929556 1102.0
32.870190121 1208.0
32.896450687 1151.0
32.922711252 1136.0
32.948971817 1190.0
32.975232383 1143.0
33.001492948 1172.0
33.027753513 1070.0
33.054014079 1080.0
33.080274644 1162.0
33.106535209 1184.0
33.132795775 1180.0
33.159056340 1138.0
33.185316906 1214.0
33.211577471 1212.0
33.237838036 1246.0
33.264098602 1242.0
33.290359167 1311.0
33.316619732 1323.0
33.342880298 1298.0
33.369140863 1430.0
33.395401428 1409.0
33.421661994 1452.0
33.447922559 1464.0
33.474183124 1502.0
33.500443690 1594.0
33.526704255 1598.0
33.552964820 1618.0
33.579225386 1590.0
33.605485951 1599.0
33.631746517 1662.0
33.658007082 1675.0
33.684267647 1709.0
33.710528213 1610.0
33.736788778 1695.0
33.763049343 1569.0
33.789309909 1589.0
33.815570474 1584.0
33.841831039 1627.0
33.868091605 1548.0
33.894352170 1458.0
33.920612735 1533.0
33.946873301 1479.0
33.973133866 1489.0
33.999394432 1428.0
34.025654997 1447.0
34.051915562 1408.0
34.078176128 1390.0
34.104436693 1440.0
34.130697258 1470.0
34.156957824 1440.0
34.183218389 1398.0
34.209478954 1408.0
34.235739520 1478.0
34.262000085 1511.0
34.288260650 1520.0
34.314521216 1468.0
34.340781781 1485.0
34.367042346 1471.0
34.393302912 1446.0
34.419563477 1508.0
34.445824043 1590.0
34.472084608 1537.0
34.498345173 1500.0
34.524605739 1490.0
34.550866304 1626.0
34.577126869 1607.0
34.603387435 1595.0
34.629648000 1588.0
34.655908565 1565.0
34.682169131 1549.0
34.708429696 1564.0
34.734690261 1570.0
34.760950827 1552.0
34.787211392 1596.0
34.813471958 1571.0
34.839732523 1552.0
34.865993088 1651.0
34.892253654 1614.0
34.918514219 1534.0
34.944774784 1663.0
34.971035350 1605.0
34.997295915 1584.0
35.023556480 1645.0
35.049817046 1603.0
35.076077611 1738.0
35.102338176 1721.0
35.128598742 1683.0
35.154859307 1700.0
35.181119872 1664.0
35.207380438 1789.0
35.233641003 1778.0
35.259901569 1756.0
35.286162134 1819.0
35.312422699 1759.0
35.338683265 1738.0
35.364943830 1787.0
35.391204395 1730.0
35.417464961 1668.0
35.443725526 1572.0
35.469986091 1614.0
35.496246657 1721.0
35.522507222 1593.0
35.548767787 1551.0
35.575028353 1629.0
35.601288918 1610.0
35.627549484 1623.0
35.653810049 1634.0
35.680070614 1736.0
35.706331180 1625.0
35.732591745 1555.0
35.758852310 1543.0
35.785112876 1591.0
35.811373441 1522.0
35.837634006 1570.0
35.863894572 1505.0
35.890155137 1472.0
35.916415702 1456.0
35.942676268 1429.0
35.968936833 1511.0
35.995197398 1459.0
36.021457964 1551.0
36.047718529 1526.0
36.073979095 1458.0
36.100239660 1499.0
36.126500225 1484.0
36.152760791 1531.0
36.179021356 1418.0
36.205281921 1401.0
36.231542487 1450.0
36.257803052 1470.0
36.284063617 1482.0
36.310324183 1499.0
36.336584748 1490.0
36.362845313 1460.0
36.389105879 1473.0
36.415366444 1529.0
36.441627010 1461.0
36.467887575 1524.0
36.494148140 1586.0
36.520408706 1465.0
36.546669271 1528.0
36.572929836 1471.0
36.599190402 1475.0
36.625450967 1316.0
36.651711532 1353.0
36.677972098 1335.0
36.704232663 1445.0
36.730493228 1267.0
36.756753794 1329.0
36.783014359 1286.0
36.809274924 1342.0
36.835535490 1255.0
36.861796055 1319.0
36.888056621 1288.0
36.914317186 1289.0
36.940577751 1318.0
36.966838317 1255.0
36.993098882 1280.0
37.019359447 1323.0
37.045620013 1360.0
37.071880578 1246.0
37.098141143 1281.0
37.124401709 1245.0
37.150662274 1291.0
37.176922839 1286.0
37.203183405 1256.0
37.229443970 1229.0
37.255704535 1245.0
37.281965101 1220.0
37.308225666 1277.0
37.334486232 1268.0
37.360746797 1172.0
37.387007362 1305.0
37.413267928 1285.0
37.439528493 1309.0
37.465789058 1235.0
37.492049624 1219.0
37.518310189 1246.0
37.544570754 1246.0
37.570831320 1213.0
37.597091885 1213.0
37.623352450 1219.0
37.649613016 1154.0
37.675873581 1227.0
37.702134147 1193.0
37.728394712 1197.0
37.754655277 1085.0
37.780915843 1236.0
37.807176408 1206.0
37.833436973 1189.0
37.859697539 1141.0
37.885958104 1106.0
37.912218669 1099.0
37.938479235 1097.0
37.964739800 1113.0
37.991000365 1120.0
38.017260931 1083.0
38.043521496 1140.0
38.069782061 1081.0
38.096042627 1081.0
38.122303192 1088.0
38.148563758 1124.0
38.174824323 1075.0
38.201084888 1092.0
38.227345454 1070.0
38.253606019 1079.0
38.279866584 1036.0
38.306127150 1093.0
38.332387715 1083.0
38.358648280 1062.0
38.384908846 1121.0
38.411169411 1120.0
38.437429976 1097.0
38.463690542 1048.0
38.489951107 988.0
38.516211673 1110.0
38.542472238 1055.0
38.568732803 1088.0
38.594993369 1086.0
38.621253934 1034.0
38.647514499 1054.0
38.673775065 1089.0
38.700035630 1066.0
38.726296195 1000.0
38.752556761 1089.0
38.778817326 1083.0
38.805077891 1103.0
38.831338457 1066.0
38.857599022 1085.0
38.883859587 1011.0
38.910120153 1031.0
38.936380718 1061.0
38.962641284 1126.0
38.988901849 1094.0
39.015162414 1064.0
39.041422980 1094.0
39.067683545 1148.0
39.093944110 1039.0
39.120204676 1059.0
39.146465241 991.0
39.172725806 1020.0
39.198986372 965.0
39.225246937 985.0
39.251507502 1049.0
39.277768068 1055.0
39.304028633 1010.0
39.330289199 1035.0
39.356549764 1018.0
39.382810329 1022.0
39.409070895 985.0
39.435331460 947.0
39.461592025 972.0
39.487852591 1080.0
39.514113156 1010.0
39.540373721 995.0
39.566634287 975.0
39.592894852 1006.0
39.619155417 946.0
39.645415983 976.0
39.671676548 1014.0
39.697937113 981.0
39.724197679 922.0
39.750458244 917.0
39.776718810 931.0
39.802979375 925.0
39.829239940 939.0
39.855500506 897.0
39.881761071 889.0
39.908021636 942.0
39.934282202 925.0
39.960542767 863.0
39.986803332 890.0
40.013063898 817.0
40.039324463 867.0
40.065585028 832.0
40.091845594 837.0
40.118106159 850.0
40.144366725 851.0
40.170627290 846.0
40.196887855 822.0
40.223148421 828.0
40.249408986 829.0
40.275669551 848.0
40.301930117 802.0
40.328190682 814.0
40.354451247 819.0
40.380711813 843.0
40.406972378 871.0
40.433232943 839.0
40.459493509 806.0
40.485754074 851.0
40.512014639 834.0
40.538275205 915.0
40.564535770 824.0
40.590796336 819.0
40.617056901 925.0
40.643317466 857.0
40.669578032 892.0
40.695838597 903.0
40.722099162 895.0
40.748359728 903.0
40.774620293 873.0
40.800880858 915.0
40.827141424 937.0
40.853401989 941.0
40.879662554 965.0
40.905923120 897.0
40.932183685 889.0
40.958444251 857.0
40.984704816 869.0
41.010965381 880.0
41.037225947 831.0
41.063486512 805.0
41.089747077 793.0
41.116007643 820.0
41.142268208 811.0
41.168528773 800.0
41.194789339 789.0
41.221049904 753.0
41.247310469 774.0
41.273571035 809.0
41.299831600 794.0
41.326092165 731.0
41.352352731 780.0
41.378613296 759.0
41.404873862 767.0
41.431134427 757.0
41.457394992 785.0
41.483655558 789.0
41.509916123 779.0
41.536176688 750.0
41.562437254 823.0
41.588697819 830.0
41.614958384 815.0
41.641218950 789.0
41.667479515 872.0
41.693740080 779.0
41.720000646 801.0
41.746261211 751.0
41.772521776 788.0
41.798782342 751.0
41.825042907 826.0
41.851303473 735.0
41.877564038 744.0
41.903824603 773.0
41.930085169 754.0
41.956345734 733.0
41.982606299 761.0
42.008866865 809.0
42.035127430 783.0
42.061387995 793.0
42.087648561 802.0
42.113909126 766.0
42.140169691 726.0
42.166430257 731.0
42.192690822 776.0
42.218951388 775.0
42.245211953 772.0
42.271472518 720.0
42.297733084 836.0
42.323993649 812.0
42.350254214 809.0
42.376514780 853.0
42.402775345 818.0
42.429035910 765.0
42.455296476 734.0
42.481557041 757.0
42.507817606 811.0
42.534078172 786.0
42.560338737 771.0
42.586599302 788.0
42.612859868 798.0
42.639120433 779.0
42.665380999 823.0
42.691641564 822.0
42.717902129 804.0
42.744162695 818.0
42.770423260 810.0
42.796683825 792.0
42.822944391 811.0
42.849204956 794.0
42.875465521 845.0
42.901726087 778.0
42.927986652 766.0
42.954247217 787.0
42.980507783 753.0
43.006768348 781.0
43.033028914 844.0
43.059289479 844.0
43.085550044 811.0
43.111810610 722.0
43.138071175 789.0
43.164331740 773.0
43.190592306 747.0
43.216852871 835.0
43.243113436 802.0
43.269374002 850.0
43.295634567 829.0
43.321895132 831.0
43.348155698 895.0
43.374416263 900.0
43.400676828 943.0
43.426937394 986.0
43.453197959 1037.0
43.479458525 970.0
43.505719090 996.0
43.531979655 991.0
43.558240221 937.0
43.584500786 1029.0
43.610761351 1033.0
43.637021917 1011.0
43.663282482 978.0
43.689543047 1011.0
43.715803613 1066.0
43.742064178 1020.0
43.768324743 992.0
43.794585309 962.0
43.820845874 1024.0
43.847106440 931.0
43.873367005 975.0
43.899627570 937.0
43.925888136 874.0
43.952148701 927.0
43.978409266 931.0
44.004669832 954.0
44.030930397 950.0
44.057190962 956.0
44.083451528 967.0
44.109712093 1002.0
44.135972658 961.0
44.162233224 985.0
44.188493789 1004.0
44.214754354 979.0
44.241014920 983.0
44.267275485 987.0
44.293536051 935.0
44.319796616 939.0
44.346057181 945.0
44.372317747 949.0
44.398578312 879.0
44.424838877 900.0
44.451099443 856.0
44.477360008 896.0
44.503620573 896.0
44.529881139 836.0
44.556141704 815.0
44.582402269 825.0
44.608662835 802.0
44.634923400 828.0
44.661183966 827.0
44.687444531 853.0
44.713705096 791.0
44.739965662 779.0
44.766226227 767.0
44.792486792 784.0
44.818747358 780.0
44.845007923 776.0
44.871268488 800.0
44.897529054 797.0
44.923789619 842.0
44.950050184 735.0
44.976310750 848.0
45.002571315 794.0
45.028831880 754.0
45.055092446 817.0
45.081353011 761.0
45.107613577 816.0
45.133874142 754.0
45.160134707 726.0
45.186395273 746.0
45.212655838 813.0
45.238916403 736.0
45.265176969 775.0
45.291437534 810.0
45.317698099 763.0
45.343958665 754.0
45.370219230 778.0
45.396479795 757.0
45.422740361 818.0
45.449000926 808.0
45.475261492 765.0
45.501522057 856.0
45.527782622 841.0
45.554043188 825.0
45.580303753 800.0
45.606564318 779.0
45.632824884 775.0
45.659085449 834.0
45.685346014 862.0
45.711606580 822.0
45.737867145 792.0
45.764127710 881.0
45.790388276 821.0
45.816648841 807.0
45.842909406 797.0
45.869169972 766.0
45.895430537 812.0
45.921691103 856.0
45.947951668 856.0
45.974212233 780.0
46.000472799 731.0
46.026733364 744.0
46.052993929 744.0
46.079254495 736.0
46.105515060 750.0
46.131775625 741.0
46.158036191 803.0
46.184296756 718.0
46.210557321 709.0
46.236817887 735.0
46.263078452 723.0
46.289339017 774.0
46.315599583 738.0
46.341860148 704.0
46.368120714 659.0
46.394381279 801.0
46.420641844 769.0
46.446902410 775.0
46.473162975 704.0
46.499423540 784.0
46.525684106 757.0
46.551944671 776.0
46.578205236 747.0
46.604465802 778.0
46.630726367 772.0
46.656986932 732.0
46.683247498 711.0
46.709508063 780.0
46.735768629 718.0
46.762029194 807.0
46.788289759 785.0
46.814550325 812.0
46.840810890 753.0
46.867071455 809.0
46.893332021 794.0
46.919592586 758.0
46.945853151 775.0
46.972113717 843.0
46.998374282 791.0
47.024634847 821.0
47.050895413 759.0
47.077155978 772.0
47.103416543 791.0
47.129677109 778.0
47.155937674 790.0
47.182198240 766.0
47.208458805 761.0
47.234719370 742.0
47.260979936 782.0
47.287240501 768.0
47.313501066 709.0
47.339761632 702.0
47.366022197 759.0
47.392282762 688.0
47.418543328 718.0
47.444803893 698.0
47.471064458 716.0
47.497325024 695.0
47.523585589 669.0
47.549846155 706.0
47.576106720 704.0
47.602367285 725.0
47.628627851 682.0
47.654888416 660.0
47.681148981 700.0
47.707409547 707.0
47.733670112 630.0
47.759930677 642.0
47.786191243 667.0
47.812451808 646.0
47.838712373 679.0
47.864972939 650.0
47.891233504 639.0
47.917494069 626.0
47.943754635 672.0
47.970015200 693.0
47.996275766 632.0
48.022536331 654.0
48.048796896 589.0
48.075057462 632.0
48.101318027 654.0
48.127578592 630.0
48.153839158 652.0
48.180099723 648.0
48.206360288 622.0
48.232620854 636.0
48.258881419 596.0
48.285141984 578.0
48.311402550 676.0
48.337663115 672.0
48.363923681 607.0
48.390184246 609.0
48.416444811 586.0
48.442705377 656.0
48.468965942 582.0
48.495226507 625.0
48.521487073 644.0
48.547747638 586.0
48.574008203 611.0
48.600268769 570.0
48.626529334 596.0
48.652789899 593.0
48.679050465 563.0
48.705311030 598.0
48.731571595 586.0
48.757832161 640.0
48.784092726 585.0
48.810353292 601.0
48.836613857 591.0
48.862874422 581.0
48.889134988 589.0
48.915395553 553.0
48.941656118 582.0
48.967916684 598.0
48.994177249 557.0
49.020437814 541.0
49.046698380 574.0
49.072958945 578.0
49.099219510 568.0
49.125480076 627.0
49.151740641 596.0
49.178001207 560.0
49.204261772 607.0
49.230522337 553.0
49.256782903 610.0
49.283043468 578.0
49.309304033 567.0
49.335564599 586.0
49.361825164 569.0
49.388085729 545.0
49.414346295 559.0
49.440606860 581.0
49.466867425 568.0
49.493127991 621.0
49.519388556 582.0
49.545649121 586.0
49.571909687 579.0
49.598170252 552.0
49.624430818 675.0
49.650691383 603.0
49.676951948 580.0
49.703212514 607.0
49.729473079 623.0
49.755733644 588.0
49.781994210 567.0
49.808254775 623.0
49.834515340 617.0
49.860775906 591.0
49.887036471 616.0
49.913297036 586.0
49.939557602 615.0
49.965818167 577.0
49.992078733 551.0
50.018339298 536.0
50.044599863 602.0
50.070860429 568.0
50.097120994 538.0
50.123381559 513.0
50.149642125 576.0
50.175902690 559.0
50.202163255 545.0
50.228423821 571.0
50.254684386 522.0
50.280944951 605.0
50.307205517 570.0
50.333466082 567.0
50.359726647 550.0
50.385987213 547.0
50.412247778 528.0
50.438508344 538.0
50.464768909 540.0
50.491029474 609.0
50.517290040 619.0
50.543550605 551.0
50.569811170 536.0
50.596071736 512.0
50.622332301 579.0
50.648592866 569.0
50.674853432 586.0
50.701113997 516.0
50.727374562 573.0
50.753635128 564.0
50.779895693 548.0
50.806156258 576.0
50.832416824 540.0
50.858677389 580.0
50.884937955 510.0
50.911198520 550.0
50.937459085 505.0
50.963719651 506.0
50.989980216 543.0
51.016240781 502.0
51.042501347 523.0
51.068761912 520.0
51.095022477 543.0
51.121283043 533.0
51.147543608 522.0
51.173804173 549.0
51.200064739 525.0
51.226325304 509.0
51.252585870 467.0
51.278846435 507.0
51.305107000 534.0
51.331367566 474.0
51.357628131 508.0
51.383888696 538.0
51.410149262 464.0
51.436409827 560.0
51.462670392 519.0
51.488930958 555.0
51.515191523 539.0
51.541452088 475.0
51.567712654 520.0
51.593973219 553.0
51.620233784 575.0
51.646494350 502.0
51.672754915 514.0
51.699015481 508.0
51.725276046 530.0
51.751536611 491.0
51.777797177 492.0
51.804057742 534.0
51.830318307 536.0
51.856578873 510.0
51.882839438 544.0
51.909100003 565.0
51.935360569 507.0
51.961621134 518.0
51.987881699 531.0
52.014142265 512.0
52.040402830 472.0
52.066663396 543.0
52.092923961 530.0
52.119184526 495.0
52.145445092 508.0
52.171705657 534.0
52.197966222 521.0
52.224226788 498.0
52.250487353 509.0
52.276747918 530.0
52.303008484 503.0
52.329269049 489.0
52.355529614 564.0
52.381790180 564.0
52.408050745 499.0
52.434311310 562.0
52.460571876 585.0
52.486832441 524.0
52.513093007 543.0
52.539353572 500.0
52.565614137 513.0
52.591874703 525.0
52.618135268 575.0
52.644395833 570.0
52.670656399 585.0
52.696916964 532.0
52.723177529 526.0
52.749438095 559.0
52.775698660 521.0
52.801959225 540.0
52.828219791 532.0
52.854480356 556.0
52.880740922 561.0
52.907001487 533.0
52.933262052 553.0
52.959522618 539.0
52.985783183 541.0
53.012043748 521.0
53.038304314 535.0
53.064564879 605.0
53.090825444 486.0
53.117086010 518.0
53.143346575 561.0
53.169607140 549.0
53.195867706 532.0
53.222128271 540.0
53.248388836 574.0
53.274649402 545.0
53.300909967 523.0
53.327170533 456.0
53.353431098 493.0
53.379691663 544.0
53.405952229 543.0
53.432212794 562.0
53.458473359 512.0
53.484733925 531.0
53.510994490 530.0
53.537255055 520.0
53.563515621 528.0
53.589776186 544.0
53.616036751 550.0
53.642297317 535.0
53.668557882 481.0
53.694818448 504.0
53.721079013 558.0
53.747339578 530.0
53.773600144 490.0
53.799860709 505.0
53.826121274 504.0
53.852381840 523.0
53.878642405 527.0
53.904902970 509.0
53.931163536 542.0
53.957424101 508.0
53.983684666 548.0
54.009945232 523.0
54.036205797 481.0
54.062466362 500.0
54.088726928 524.0
54.114987493 591.0
54.141248059 477.0
54.167508624 475.0
54.193769189 532.0
54.220029755 482.0
54.246290320 542.0
54.272550885 521.0
54.298811451 517.0
54.325072016 504.0
54.351332581 467.0
54.377593147 525.0
54.403853712 481.0
54.430114277 526.0
54.456374843 554.0
54.482635408 471.0
54.508895973 524.0
54.535156539 497.0
54.561417104 505.0
54.587677670 494.0
54.613938235 528.0
54.640198800 527.0
54.666459366 498.0
54.692719931 546.0
54.718980496 543.0
54.745241062 513.0
54.771501627 542.0
54.797762192 518.0
54.824022758 523.0
54.850283323 547.0
54.876543888 557.0
54.902804454 526.0
54.929065019 504.0
54.955325585 564.0
54.981586150 506.0
55.007846715 500.0
55.034107281 534.0
55.060367846 528.0
55.086628411 512.0
55.112888977 482.0
55.139149542 494.0
55.165410107 507.0
55.191670673 511.0
55.217931238 522.0
55.244191803 494.0
55.270452369 494.0
55.296712934 520.0
55.322973499 474.0
55.349234065 489.0
55.375494630 526.0
55.401755196 534.0
55.428015761 481.0
55.454276326 517.0
55.480536892 490.0
55.506797457 486.0
55.533058022 552.0
55.559318588 505.0
55.585579153 535.0
55.611839718 550.0
55.638100284 541.0
55.664360849 542.0
55.690621414 530.0
55.716881980 525.0
55.743142545 513.0
55.769403111 526.0
55.795663676 538.0
55.821924241 526.0
55.848184807 606.0
55.874445372 546.0
55.900705937 551.0
55.926966503 534.0
55.953227068 533.0
55.979487633 549.0
56.005748199 552.0
56.032008764 512.0
56.058269329 495.0
56.084529895 511.0
56.110790460 542.0
56.137051025 572.0
56.163311591 516.0
56.189572156 544.0
56.215832722 455.0
56.242093287 532.0
56.268353852 551.0
56.294614418 553.0
56.320874983 533.0
56.347135548 538.0
56.373396114 547.0
56.399656679 515.0
56.425917244 544.0
56.452177810 529.0
56.478438375 518.0
56.504698940 504.0
56.530959506 549.0
56.557220071 518.0
56.583480637 547.0
56.609741202 537.0
56.636001767 533.0
56.662262333 478.0
56.688522898 551.0
56.714783463 540.0
56.741044029 491.0
56.767304594 535.0
56.793565159 524.0
56.819825725 558.0
56.846086290 541.0
56.872346855 546.0
56.898607421 511.0
56.924867986 540.0
56.951128551 553.0
56.977389117 499.0
57.003649682 535.0
57.029910248 532.0
57.056170813 589.0
57.082431378 584.0
57.108691944 597.0
57.134952509 570.0
57.161213074 583.0
57.187473640 601.0
57.213734205 625.0
57.239994770 564.0
57.266255336 568.0
57.292515901 548.0
57.318776466 551.0
57.345037032 562.0
57.371297597 550.0
57.397558163 577.0
57.423818728 530.0
57.450079293 562.0
57.476339859 557.0
57.502600424 559.0
57.528860989 505.0
57.555121555 487.0
57.581382120 469.0
57.607642685 523.0
57.633903251 562.0
57.660163816 529.0
57.686424381 495.0
57.712684947 479.0
57.738945512 484.0
57.765206077 516.0
57.791466643 496.0
57.817727208 479.0
57.843987774 507.0
57.870248339 509.0
57.896508904 495.0
57.922769470 466.0
57.949030035 463.0
57.975290600 471.0
58.001551166 486.0
58.027811731 482.0
58.054072296 478.0
58.080332862 469.0
58.106593427 476.0
58.132853992 456.0
58.159114558 496.0
58.185375123 469.0
58.211635689 529.0
58.237896254 505.0
58.264156819 447.0
58.290417385 489.0
58.316677950 476.0
58.342938515 454.0
58.369199081 547.0
58.395459646 510.0
58.421720211 515.0
58.447980777 508.0
58.474241342 483.0
58.500501907 468.0
58.526762473 503.0
58.553023038 473.0
58.579283603 468.0
58.605544169 495.0
58.631804734 485.0
58.658065300 482.0
58.684325865 514.0
58.710586430 519.0
58.736846996 476.0
58.763107561 479.0
58.789368126 460.0
58.815628692 511.0
58.841889257 491.0
58.868149822 478.0
58.894410388 488.0
58.920670953 501.0
58.946931518 500.0
58.973192084 496.0
58.999452649 448.0
59.025713214 464.0
59.051973780 472.0
59.078234345 454.0
59.104494911 486.0
59.130755476 475.0
59.157016041 521.0
59.183276607 469.0
59.209537172 503.0
59.235797737 461.0
59.262058303 468.0
59.288318868 496.0
59.314579433 495.0
59.340839999 472.0
59.367100564 479.0
59.393361129 507.0
59.419621695 529.0
59.445882260 537.0
59.472142826 531.0
59.498403391 476.0
59.524663956 493.0
59.550924522 532.0
59.577185087 478.0
59.603445652 463.0
59.629706218 519.0
59.655966783 532.0
59.682227348 526.0
59.708487914 550.0
59.734748479 502.0
59.761009044 575.0
59.787269610 569.0
59.813530175 505.0
59.839790740 556.0
59.866051306 520.0
59.892311871 501.0
59.918572437 525.0
59.944833002 532.0
59.971093567 561.0
59.997354133 564.0
60.023614698 577.0
60.049875263 578.0
60.076135829 565.0
60.102396394 622.0
60.128656959 574.0
60.154917525 603.0
60.181178090 619.0
60.207438655 605.0
60.233699221 620.0
60.259959786 574.0
60.286220352 646.0
60.312480917 655.0
60.338741482 634.0
60.365002048 615.0
60.391262613 647.0
60.417523178 634.0
60.443783744 662.0
60.470044309 665.0
60.496304874 731.0
60.522565440 753.0
60.548826005 718.0
60.575086570 706.0
60.601347136 761.0
60.627607701 788.0
60.653868266 815.0
60.680128832 813.0
60.706389397 871.0
60.732649963 919.0
60.758910528 914.0
60.785171093 915.0
60.811431659 938.0
60.837692224 974.0
60.863952789 961.0
60.890213355 982.0
60.916473920 997.0
60.942734485 995.0
60.968995051 1031.0
60.995255616 1032.0
61.021516181 1020.0
61.047776747 1008.0
61.074037312 968.0
61.100297878 1105.0
61.126558443 1044.0
61.152819008 990.0
61.179079574 911.0
61.205340139 928.0
61.231600704 965.0
61.257861270 979.0
61.284121835 911.0
61.310382400 949.0
61.336642966 920.0
61.362903531 880.0
61.389164096 859.0
61.415424662 891.0
61.441685227 873.0
61.467945792 815.0
61.494206358 891.0
61.520466923 832.0
61.546727489 841.0
61.572988054 818.0
61.599248619 824.0
61.625509185 790.0
61.651769750 767.0
61.678030315 830.0
61.704290881 719.0
61.730551446 775.0
61.756812011 808.0
61.783072577 812.0
61.809333142 740.0
61.835593707 796.0
61.861854273 765.0
61.888114838 767.0
61.914375404 802.0
61.940635969 785.0
61.966896534 806.0
61.993157100 806.0
62.019417665 812.0
62.045678230 828.0
62.071938796 847.0
62.098199361 838.0
62.124459926 806.0
62.150720492 808.0
62.176981057 769.0
62.203241622 854.0
62.229502188 777.0
62.255762753 811.0
62.282023318 789.0
62.308283884 779.0
62.334544449 795.0
62.360805015 745.0
62.387065580 721.0
62.413326145 711.0
62.439586711 702.0
62.465847276 634.0
62.492107841 695.0
62.518368407 674.0
62.544628972 669.0
62.570889537 626.0
62.597150103 616.0
62.623410668 601.0
62.649671233 640.0
62.675931799 568.0
62.702192364 595.0
62.728452930 583.0
62.754713495 607.0
62.780974060 593.0
62.807234626 569.0
62.833495191 590.0
62.859755756 576.0
62.886016322 576.0
62.912276887 588.0
62.938537452 572.0
62.964798018 562.0
62.991058583 567.0
63.017319148 579.0
63.043579714 523.0
63.069840279 520.0
63.096100844 547.0
63.122361410 541.0
63.148621975 513.0
63.174882541 544.0
63.201143106 577.0
63.227403671 569.0
63.253664237 547.0
63.279924802 499.0
63.306185367 519.0
63.332445933 492.0
63.358706498 525.0
63.384967063 514.0
63.411227629 519.0
63.437488194 507.0
63.463748759 506.0
63.490009325 535.0
63.516269890 485.0
63.542530455 555.0
63.568791021 508.0
63.595051586 485.0
63.621312152 483.0
63.647572717 524.0
63.673833282 499.0
63.700093848 455.0
63.726354413 464.0
63.752614978 491.0
63.778875544 502.0
63.805136109 498.0
63.831396674 447.0
63.857657240 506.0
63.883917805 492.0
63.910178370 488.0
63.936438936 425.0
63.962699501 450.0
63.988960067 452.0
64.015220632 457.0
64.041481197 471.0
64.067741763 436.0
64.094002328 470.0
64.120262893 439.0
64.146523459 444.0
64.172784024 446.0
64.199044589 459.0
64.225305155 454.0
64.251565720 502.0
64.277826285 424.0
64.304086851 426.0
64.330347416 394.0
64.356607981 410.0
64.382868547 410.0
64.409129112 450.0
64.435389678 426.0
64.461650243 452.0
64.487910808 429.0
64.514171374 428.0
64.540431939 410.0
64.566692504 398.0
64.592953070 427.0
64.619213635 446.0
64.645474200 421.0
64.671734766 409.0
64.697995331 416.0
64.724255896 382.0
64.750516462 406.0
64.776777027 471.0
64.803037593 415.0
64.829298158 414.0
64.855558723 442.0
64.881819289 451.0
64.908079854 472.0
64.934340419 400.0
64.960600985 435.0
64.986861550 426.0
