5.018330280 2929.0
5.044590845 3012.0
5.070851411 3104.0
5.097111976 2973.0
5.123372541 3011.0
5.149633107 2989.0
5.175893672 2951.0
5.202154237 3005.0
5.228414803 2986.0
5.254675368 2796.0
5.280935934 2882.0
5.307196499 2794.0
5.333457064 2781.0
5.359717630 2764.0
5.385978195 2904.0
5.412238760 2891.0
5.438499326 2816.0
5.464759891 2858.0
5.491020456 2744.0
5.517281022 2765.0
5.543541587 2776.0
5.569802152 2810.0
5.596062718 2780.0
5.622323283 2941.0
5.648583848 2736.0
5.674844414 2835.0
5.701104979 2794.0
5.727365544 2868.0
5.753626110 2813.0
5.779886675 2730.0
5.806147241 2726.0
5.832407806 2763.0
5.858668371 2769.0
5.884928937 2625.0
5.911189502 2721.0
5.937450067 2717.0
5.963710633 2730.0
5.989971198 2689.0
6.016231763 2763.0
6.042492329 2710.0
6.068752894 2587.0
6.095013459 2682.0
6.121274025 2649.0
6.147534590 2706.0
6.173795155 2714.0
6.200055721 2710.0
6.226316286 2651.0
6.252576851 2591.0
6.278837417 2683.0
6.305097982 2806.0
6.331358548 2655.0
6.357619113 2708.0
6.383879678 2648.0
6.410140244 2700.0
6.436400809 2622.0
6.462661374 2613.0
6.488921940 2664.0
6.515182505 2678.0
6.541443070 2564.0
6.567703636 2691.0
6.593964201 2656.0
6.620224766 2560.0
6.646485332 2696.0
6.672745897 2626.0
6.699006462 2623.0
6.725267028 2669.0
6.751527593 2613.0
6.777788159 2632.0
6.804048724 2603.0
6.830309289 2647.0
6.856569855 2729.0
6.882830420 2635.0
6.909090985 2684.0
6.935351551 2535.0
6.961612116 2660.0
6.987872681 2597.0
7.014133247 2589.0
7.040393812 2651.0
7.066654377 2648.0
7.092914943 2712.0
7.119175508 2653.0
7.145436073 2646.0
7.171696639 2697.0
7.197957204 2682.0
7.224217769 2579.0
7.250478335 2644.0
7.276738900 2727.0
7.302999466 2707.0
7.329260031 2797.0
7.355520596 2689.0
7.381781162 2782.0
7.408041727 2753.0
7.434302292 2787.0
7.460562858 2809.0
7.486823423 2736.0
7.513083988 2853.0
7.539344554 2771.0
7.565605119 2819.0
7.591865684 2952.0
7.618126250 2909.0
7.644386815 2983.0
7.670647380 3025.0
7.696907946 2978.0
7.723168511 3083.0
7.749429076 3166.0
7.775689642 3038.0
7.801950207 3069.0
7.828210773 3159.0
7.854471338 3215.0
7.880731903 3314.0
7.906992469 3315.0
7.933253034 3418.0
7.959513599 3537.0
7.985774165 3571.0
8.012034730 3653.0
8.038295295 3767.0
8.064555861 3831.0
8.090816426 3923.0
8.117076991 4031.0
8.143337557 4128.0
8.169598122 4324.0
8.195858687 4428.0
8.222119253 4591.0
8.248379818 4648.0
8.274640384 4895.0
8.300900949 4675.0
8.327161514 4923.0
8.353422080 5245.0
8.379682645 5218.0
8.405943210 5324.0
8.432203776 5313.0
8.458464341 5474.0
8.484724906 5561.0
8.510985472 5608.0
8.537246037 5664.0
8.563506602 5726.0
8.589767168 5697.0
8.616027733 5500.0
8.642288298 5492.0
8.668548864 5441.0
8.694809429 5379.0
8.721069994 5434.0
8.747330560 5165.0
8.773591125 5239.0
8.799851691 4958.0
8.826112256 4936.0
8.852372821 4863.0
8.878633387 4697.0
8.904893952 4928.0
8.931154517 4796.0
8.957415083 4714.0
8.983675648 4550.0
9.009936213 4438.0
9.036196779 4541.0
9.062457344 4338.0
9.088717909 4282.0
9.114978475 4171.0
9.141239040 4147.0
9.167499605 4104.0
9.193760171 3955.0
9.220020736 3872.0
9.246281301 3795.0
9.272541867 3829.0
9.298802432 3760.0
9.325062998 3647.0
9.351323563 3638.0
9.377584128 3521.0
9.403844694 3514.0
9.430105259 3364.0
9.456365824 3316.0
9.482626390 3273.0
9.508886955 3393.0
9.535147520 3228.0
9.561408086 3307.0
9.587668651 3337.0
9.613929216 3182.0
9.640189782 3180.0
9.666450347 3167.0
9.692710912 3212.0
9.718971478 3137.0
9.745232043 3088.0
9.771492609 3132.0
9.797753174 3087.0
9.824013739 3133.0
9.850274305 3197.0
9.876534870 3227.0
9.902795435 3197.0
9.929056001 3117.0
9.955316566 3229.0
9.981577131 3412.0
10.007837697 3451.0
10.034098262 3379.0
10.060358827 3436.0
10.086619393 3437.0
10.112879958 3381.0
10.139140523 3452.0
10.165401089 3299.0
10.191661654 3376.0
10.217922219 3192.0
10.244182785 3289.0
10.270443350 3097.0
10.296703916 3194.0
10.322964481 2954.0
10.349225046 2973.0
10.375485612 2793.0
10.401746177 2786.0
10.428006742 2679.0
10.454267308 2690.0
10.480527873 2575.0
10.506788438 2616.0
10.533049004 2507.0
10.559309569 2510.0
10.585570134 2422.0
10.611830700 2413.0
10.638091265 2431.0
10.664351830 2506.0
10.690612396 2509.0
10.716872961 2453.0
10.743133526 2370.0
10.769394092 2498.0
10.795654657 2511.0
10.821915223 2457.0
10.848175788 2539.0
10.874436353 2592.0
10.900696919 2473.0
10.926957484 2454.0
10.953218049 2411.0
10.979478615 2443.0
11.005739180 2408.0
11.031999745 2431.0
11.058260311 2439.0
11.084520876 2409.0
11.110781441 2411.0
11.137042007 2361.0
11.163302572 2391.0
11.189563137 2320.0
11.215823703 2350.0
11.242084268 2308.0
11.268344834 2375.0
11.294605399 2260.0
11.320865964 2323.0
11.347126530 2337.0
11.373387095 2359.0
11.399647660 2270.0
11.425908226 2279.0
11.452168791 2327.0
11.478429356 2298.0
11.504689922 2377.0
11.530950487 2315.0
11.557211052 2330.0
11.583471618 2330.0
11.609732183 2280.0
11.635992748 2288.0
11.662253314 2296.0
11.688513879 2370.0
11.714774444 2306.0
11.741035010 2269.0
11.767295575 2327.0
11.793556141 2359.0
11.819816706 2369.0
11.846077271 2235.0
11.872337837 2239.0
11.898598402 2290.0
11.924858967 2308.0
11.951119533 2229.0
11.977380098 2316.0
12.003640663 2335.0
12.029901229 2375.0
12.056161794 2353.0
12.082422359 2354.0
12.108682925 2256.0
12.134943490 2404.0
12.161204055 2427.0
12.187464621 2358.0
12.213725186 2382.0
12.239985751 2364.0
12.266246317 2353.0
12.292506882 2473.0
12.318767448 2317.0
12.345028013 2448.0
12.371288578 2356.0
12.397549144 2238.0
12.423809709 2235.0
12.450070274 2169.0
12.476330840 2140.0
12.502591405 2065.0
12.528851970 2103.0
12.555112536 2016.0
12.581373101 2020.0
12.607633666 2012.0
12.633894232 2010.0
12.660154797 1974.0
12.686415362 1877.0
12.712675928 1900.0
12.738936493 1918.0
12.765197059 1891.0
12.791457624 1886.0
12.817718189 1943.0
12.843978755 1879.0
12.870239320 1855.0
12.896499885 1893.0
12.922760451 1866.0
12.949021016 1902.0
12.975281581 1811.0
13.001542147 1884.0
13.027802712 1797.0
13.054063277 1826.0
13.080323843 1762.0
13.106584408 1736.0
13.132844973 1850.0
13.159105539 1679.0
13.185366104 1803.0
13.211626669 1777.0
13.237887235 1823.0
13.264147800 1784.0
13.290408366 1741.0
13.316668931 1777.0
13.342929496 1705.0
13.369190062 1721.0
13.395450627 1711.0
13.421711192 1804.0
13.447971758 1763.0
13.474232323 1762.0
13.500492888 1778.0
13.526753454 1666.0
13.553014019 1701.0
13.579274584 1751.0
13.605535150 1692.0
13.631795715 1704.0
13.658056280 1697.0
13.684316846 1725.0
13.710577411 1773.0
13.736837976 1763.0
13.763098542 1751.0
13.789359107 1696.0
13.815619673 1618.0
13.841880238 1714.0
13.868140803 1665.0
13.894401369 1688.0
13.920661934 1723.0
13.946922499 1642.0
13.973183065 1650.0
13.999443630 1689.0
14.025704195 1738.0
14.051964761 1627.0
14.078225326 1656.0
14.104485891 1679.0
14.130746457 1689.0
14.157007022 1665.0
14.183267587 1625.0
14.209528153 1696.0
14.235788718 1645.0
14.262049284 1613.0
14.288309849 1658.0
14.314570414 1602.0
14.340830980 1682.0
14.367091545 1646.0
14.393352110 1671.0
14.419612676 1646.0
14.445873241 1696.0
14.472133806 1639.0
14.498394372 1617.0
14.524654937 1678.0
14.550915502 1634.0
14.577176068 1628.0
14.603436633 1700.0
14.629697198 1695.0
14.655957764 1743.0
14.682218329 1743.0
14.708478894 1795.0
14.734739460 1747.0
14.761000025 1795.0
14.787260591 1862.0
14.813521156 1852.0
14.839781721 1804.0
14.866042287 2012.0
14.892302852 1927.0
14.918563417 1815.0
14.944823983 1833.0
14.971084548 1874.0
14.997345113 1820.0
15.023605679 1832.0
15.049866244 1872.0
15.076126809 1870.0
15.102387375 1916.0
15.128647940 1829.0
15.154908505 1847.0
15.181169071 1855.0
15.207429636 1880.0
15.233690201 1930.0
15.259950767 2015.0
15.286211332 1928.0
15.312471898 1910.0
15.338732463 1761.0
15.364993028 1886.0
15.391253594 1880.0
15.417514159 1794.0
15.443774724 1838.0
15.470035290 1815.0
15.496295855 1711.0
15.522556420 1706.0
15.548816986 1656.0
15.575077551 1634.0
15.601338116 1629.0
15.627598682 1680.0
15.653859247 1746.0
15.680119812 1570.0
15.706380378 1632.0
15.732640943 1705.0
15.758901509 1633.0
15.785162074 1695.0
15.811422639 1672.0
15.837683205 1761.0
15.863943770 1645.0
15.890204335 1694.0
15.916464901 1650.0
15.942725466 1805.0
15.968986031 1755.0
15.995246597 1767.0
16.021507162 1880.0
16.047767727 1824.0
16.074028293 1871.0
16.100288858 1742.0
16.126549423 1794.0
16.152809989 1733.0
16.179070554 1818.0
16.205331119 1843.0
16.231591685 1823.0
16.257852250 1787.0
16.284112816 1929.0
16.310373381 1843.0
16.336633946 1891.0
16.362894512 1887.0
16.389155077 1897.0
16.415415642 1928.0
16.441676208 2001.0
16.467936773 2012.0
16.494197338 1995.0
16.520457904 1943.0
16.546718469 2069.0
16.572979034 2090.0
16.599239600 2176.0
16.625500165 2094.0
16.651760730 2166.0
16.678021296 2189.0
16.704281861 2113.0
16.730542426 2262.0
16.756802992 2320.0
16.783063557 2288.0
16.809324123 2332.0
16.835584688 2292.0
16.861845253 2362.0
16.888105819 2259.0
16.914366384 2214.0
16.940626949 2301.0
16.966887515 2359.0
16.993148080 2379.0
17.019408645 2267.0
17.045669211 2259.0
17.071929776 2329.0
17.098190341 2160.0
17.124450907 2300.0
17.150711472 2230.0
17.176972037 2109.0
17.203232603 2177.0
17.229493168 2013.0
17.255753734 2110.0
17.282014299 2021.0
17.308274864 1995.0
17.334535430 1917.0
17.360795995 1932.0
17.387056560 1939.0
17.413317126 1976.0
17.439577691 1773.0
17.465838256 1881.0
17.492098822 1900.0
17.518359387 1929.0
17.544619952 1870.0
17.570880518 1858.0
17.597141083 1822.0
17.623401648 1801.0
17.649662214 1767.0
17.675922779 1725.0
17.702183344 1771.0
17.728443910 1722.0
17.754704475 1717.0
17.780965041 1644.0
17.807225606 1725.0
17.833486171 1612.0
17.859746737 1616.0
17.886007302 1682.0
17.912267867 1642.0
17.938528433 1622.0
17.964788998 1566.0
17.991049563 1540.0
18.017310129 1591.0
18.043570694 1559.0
18.069831259 1490.0
18.096091825 1612.0
18.122352390 1474.0
18.148612955 1491.0
18.174873521 1493.0
18.201134086 1498.0
18.227394651 1472.0
18.253655217 1509.0
18.279915782 1493.0
18.306176348 1470.0
18.332436913 1425.0
18.358697478 1451.0
18.384958044 1427.0
18.411218609 1432.0
18.437479174 1391.0
18.463739740 1342.0
18.490000305 1388.0
18.516260870 1487.0
18.542521436 1427.0
18.568782001 1466.0
18.595042566 1387.0
18.621303132 1402.0
18.647563697 1387.0
18.673824262 1390.0
18.700084828 1351.0
18.726345393 1391.0
18.752605959 1346.0
18.778866524 1434.0
18.805127089 1362.0
18.831387655 1440.0
18.857648220 1426.0
18.883908785 1382.0
18.910169351 1390.0
18.936429916 1301.0
18.962690481 1420.0
18.988951047 1401.0
19.015211612 1451.0
19.041472177 1366.0
19.067732743 1447.0
19.093993308 1421.0
19.120253873 1500.0
19.146514439 1389.0
19.172775004 1335.0
19.199035569 1455.0
19.225296135 1461.0
19.251556700 1420.0
19.277817266 1374.0
19.304077831 1484.0
19.330338396 1483.0
19.356598962 1453.0
19.382859527 1480.0
19.409120092 1520.0
19.435380658 1490.0
19.461641223 1482.0
19.487901788 1462.0
19.514162354 1568.0
19.540422919 1599.0
19.566683484 1545.0
19.592944050 1550.0
19.619204615 1477.0
19.645465180 1590.0
19.671725746 1521.0
19.697986311 1494.0
19.724246876 1449.0
19.750507442 1489.0
19.776768007 1436.0
19.803028573 1466.0
19.829289138 1500.0
19.855549703 1435.0
19.881810269 1493.0
19.908070834 1447.0
19.934331399 1452.0
19.960591965 1437.0
19.986852530 1481.0
