5.007730280 3624.0
5.033990845 3539.0
5.060251411 3564.0
5.086511976 3602.0
5.112772541 3588.0
5.139033107 3520.0
5.165293672 3468.0
5.191554237 3530.0
5.217814803 3515.0
5.244075368 3440.0
5.270335934 3486.0
5.296596499 3444.0
5.322857064 3363.0
5.349117630 3306.0
5.375378195 3284.0
5.401638760 3268.0
5.427899326 3174.0
5.454159891 3201.0
5.480420456 3231.0
5.506681022 3195.0
5.532941587 3289.0
5.559202152 3185.0
5.585462718 3269.0
5.611723283 3212.0
5.637983849 3181.0
5.664244414 3211.0
5.690504979 3086.0
5.716765545 3112.0
5.743026110 3131.0
5.769286675 3038.0
5.795547241 3109.0
5.821807806 3015.0
5.848068371 3113.0
5.874328937 3172.0
5.900589502 3112.0
5.926850067 3069.0
5.953110633 2973.0
5.979371198 3026.0
6.005631763 3176.0
6.031892329 2943.0
6.058152894 3091.0
6.084413460 3065.0
6.110674025 3068.0
6.136934590 2972.0
6.163195156 2982.0
6.189455721 3098.0
6.215716286 3066.0
6.241976852 2975.0
6.268237417 2957.0
6.294497982 2889.0
6.320758548 3048.0
6.347019113 2937.0
6.373279678 2994.0
6.399540244 2985.0
6.425800809 2973.0
6.452061375 2928.0
6.478321940 2998.0
6.504582505 3016.0
6.530843071 2974.0
6.557103636 2989.0
6.583364201 3057.0
6.609624767 2954.0
6.635885332 2886.0
6.662145897 2906.0
6.688406463 2980.0
6.714667028 2885.0
6.740927593 2839.0
6.767188159 2948.0
6.793448724 2947.0
6.819709289 2890.0
6.845969855 2903.0
6.872230420 2900.0
6.898490986 2906.0
6.924751551 2919.0
6.951012116 2863.0
6.977272682 2845.0
7.003533247 2891.0
7.029793812 2901.0
7.056054378 2897.0
7.082314943 2908.0
7.108575508 2897.0
7.134836074 2870.0
7.161096639 2939.0
7.187357204 2808.0
7.213617770 2867.0
7.239878335 2886.0
7.266138900 2917.0
7.292399466 2901.0
7.318660031 2872.0
7.344920597 2870.0
7.371181162 2908.0
7.397441727 2796.0
7.423702293 2877.0
7.449962858 2861.0
7.476223423 2822.0
7.502483989 2901.0
7.528744554 2811.0
7.555005119 2835.0
7.581265685 2767.0
7.607526250 2859.0
7.633786815 2828.0
7.660047381 2908.0
7.686307946 2744.0
7.712568512 2677.0
7.738829077 2777.0
7.765089642 2818.0
7.791350208 2824.0
7.817610773 2753.0
7.843871338 2751.0
7.870131904 2739.0
7.896392469 2838.0
7.922653034 2740.0
7.948913600 2801.0
7.975174165 2813.0
8.001434730 2759.0
8.027695296 2800.0
8.053955861 2734.0
8.080216426 2743.0
8.106476992 2686.0
8.132737557 2709.0
8.158998123 2762.0
8.185258688 2773.0
8.211519253 2723.0
8.237779819 2681.0
8.264040384 2746.0
8.290300949 2707.0
8.316561515 2805.0
8.342822080 2915.0
8.369082645 2729.0
8.395343211 2698.0
8.421603776 2816.0
8.447864341 2762.0
8.474124907 2707.0
8.500385472 2675.0
8.526646038 2711.0
8.552906603 2631.0
8.579167168 2787.0
8.605427734 2821.0
8.631688299 2837.0
8.657948864 2777.0
8.684209430 2784.0
8.710469995 2749.0
8.736730560 2731.0
8.762991126 2680.0
8.789251691 2809.0
8.815512256 2737.0
8.841772822 2767.0
8.868033387 2746.0
8.894293952 2805.0
8.920554518 2676.0
8.946815083 2693.0
8.973075649 2668.0
8.999336214 2720.0
9.025596779 2721.0
9.051857345 2723.0
9.078117910 2694.0
9.104378475 2772.0
9.130639041 2832.0
9.156899606 2627.0
9.183160171 2713.0
9.209420737 2823.0
9.235681302 2707.0
9.261941867 2776.0
9.288202433 2812.0
9.314462998 2820.0
9.340723564 2838.0
9.366984129 2802.0
9.393244694 2782.0
9.419505260 2895.0
9.445765825 2744.0
9.472026390 2855.0
9.498286956 2896.0
9.524547521 2873.0
9.550808086 2828.0
9.577068652 2786.0
9.603329217 2883.0
9.629589782 3023.0
9.655850348 2893.0
9.682110913 2945.0
9.708371478 3035.0
9.734632044 2996.0
9.760892609 2995.0
9.787153175 3064.0
9.813413740 3093.0
9.839674305 3056.0
9.865934871 3260.0
9.892195436 3194.0
9.918456001 3283.0
9.944716567 3258.0
9.970977132 3320.0
9.997237697 3309.0
10.023498263 3355.0
10.049758828 3480.0
10.076019393 3465.0
10.102279959 3583.0
10.128540524 3619.0
10.154801090 3641.0
10.181061655 3722.0
10.207322220 3800.0
10.233582786 3956.0
10.259843351 4028.0
10.286103916 3984.0
10.312364482 4040.0
10.338625047 4197.0
10.364885612 4166.0
10.391146178 4496.0
10.417406743 4394.0
10.443667308 4618.0
10.469927874 4614.0
10.496188439 4689.0
10.522449004 4732.0
10.548709570 4965.0
10.574970135 5217.0
10.601230701 5220.0
10.627491266 5151.0
10.653751831 5290.0
10.680012397 5441.0
10.706272962 5451.0
10.732533527 5587.0
10.758794093 5753.0
10.785054658 5819.0
10.811315223 5844.0
10.837575789 5809.0
10.863836354 5783.0
10.890096919 5819.0
10.916357485 5659.0
10.942618050 5510.0
10.968878616 5342.0
10.995139181 5059.0
11.021399746 5016.0
11.047660312 4657.0
11.073920877 4560.0
11.100181442 4482.0
11.126442008 4305.0
11.152702573 4126.0
11.178963138 4116.0
11.205223704 4013.0
11.231484269 4007.0
11.257744834 3826.0
11.284005400 3727.0
11.310265965 3691.0
11.336526530 3768.0
11.362787096 3682.0
11.389047661 3631.0
11.415308227 3547.0
11.441568792 3605.0
11.467829357 3595.0
11.494089923 3667.0
11.520350488 3484.0
11.546611053 3466.0
11.572871619 3522.0
11.599132184 3457.0
11.625392749 3364.0
11.651653315 3365.0
11.677913880 3408.0
11.704174445 3380.0
11.730435011 3280.0
11.756695576 3354.0
11.782956141 3253.0
11.809216707 3081.0
11.835477272 3200.0
11.861737838 3171.0
11.887998403 3147.0
11.914258968 3075.0
11.940519534 2976.0
11.966780099 2983.0
11.993040664 2924.0
12.019301230 2964.0
12.045561795 2936.0
12.071822360 2888.0
12.098082926 2831.0
12.124343491 2849.0
12.150604056 2814.0
12.176864622 2654.0
12.203125187 2821.0
12.229385753 2779.0
12.255646318 2740.0
12.281906883 2776.0
12.308167449 2796.0
12.334428014 2614.0
12.360688579 2623.0
12.386949145 2692.0
12.413209710 2662.0
12.439470275 2679.0
12.465730841 2614.0
12.491991406 2690.0
12.518251971 2645.0
12.544512537 2553.0
12.570773102 2696.0
12.597033667 2732.0
12.623294233 2693.0
12.649554798 2756.0
12.675815364 2916.0
12.702075929 2801.0
12.728336494 2904.0
12.754597060 2866.0
12.780857625 3011.0
12.807118190 3102.0
12.833378756 3128.0
12.859639321 3006.0
12.885899886 3067.0
12.912160452 3123.0
12.938421017 2863.0
12.964681582 2937.0
12.990942148 2688.0
13.017202713 2768.0
13.043463279 2691.0
13.069723844 2554.0
13.095984409 2590.0
13.122244975 2481.0
13.148505540 2344.0
13.174766105 2466.0
13.201026671 2362.0
13.227287236 2274.0
13.253547801 2300.0
13.279808367 2234.0
13.306068932 2330.0
13.332329497 2263.0
13.358590063 2187.0
13.384850628 2271.0
13.411111193 2175.0
13.437371759 2262.0
13.463632324 2236.0
13.489892890 2176.0
13.516153455 2207.0
13.542414020 2129.0
13.568674586 2205.0
13.594935151 2201.0
13.621195716 2125.0
13.647456282 2193.0
13.673716847 2164.0
13.699977412 2090.0
13.726237978 2183.0
13.752498543 2064.0
13.778759108 2113.0
13.805019674 2176.0
13.831280239 2089.0
13.857540805 2056.0
13.883801370 2106.0
13.910061935 2021.0
13.936322501 2089.0
13.962583066 2072.0
13.988843631 2067.0
14.015104197 2071.0
14.041364762 2028.0
14.067625327 1973.0
14.093885893 2015.0
14.120146458 2076.0
14.146407023 2012.0
14.172667589 2025.0
14.198928154 2043.0
14.225188719 1985.0
14.251449285 1986.0
14.277709850 1967.0
14.303970416 1984.0
14.330230981 1919.0
14.356491546 1913.0
14.382752112 1932.0
14.409012677 1985.0
14.435273242 1977.0
14.461533808 1935.0
14.487794373 1947.0
14.514054938 1969.0
14.540315504 1906.0
14.566576069 1945.0
14.592836634 1934.0
14.619097200 1940.0
14.645357765 1914.0
14.671618331 1934.0
14.697878896 1935.0
14.724139461 1990.0
14.750400027 1913.0
14.776660592 1908.0
14.802921157 1908.0
14.829181723 1865.0
14.855442288 1923.0
14.881702853 1977.0
14.907963419 1854.0
14.934223984 1887.0
14.960484549 1889.0
14.986745115 1999.0
15.013005680 1953.0
15.039266245 1946.0
15.065526811 1957.0
15.091787376 2049.0
15.118047942 2045.0
15.144308507 1963.0
15.170569072 2048.0
15.196829638 2059.0
15.223090203 2092.0
15.249350768 2004.0
15.275611334 2054.0
15.301871899 2111.0
15.328132464 1986.0
15.354393030 2001.0
15.380653595 2006.0
15.406914160 1954.0
15.433174726 1963.0
15.459435291 1935.0
15.485695857 1971.0
15.511956422 1858.0
15.538216987 1875.0
15.564477553 1811.0
15.590738118 1901.0
15.616998683 1799.0
15.643259249 1827.0
15.669519814 1850.0
15.695780379 1881.0
15.722040945 1741.0
15.748301510 1741.0
15.774562075 1774.0
15.800822641 1787.0
15.827083206 1828.0
15.853343771 1826.0
15.879604337 1849.0
15.905864902 1741.0
15.932125468 1697.0
15.958386033 1756.0
15.984646598 1871.0
16.010907164 1758.0
16.037167729 1746.0
16.063428294 1782.0
16.089688860 1872.0
16.115949425 1747.0
16.142209990 1733.0
16.168470556 1848.0
16.194731121 1755.0
16.220991686 1764.0
16.247252252 1805.0
16.273512817 1752.0
16.299773382 1689.0
16.326033948 1753.0
16.352294513 1732.0
16.378555079 1764.0
16.404815644 1824.0
16.431076209 1750.0
16.457336775 1836.0
16.483597340 1772.0
16.509857905 1720.0
16.536118471 1809.0
16.562379036 1778.0
16.588639601 1739.0
16.614900167 1757.0
16.641160732 1755.0
16.667421297 1689.0
16.693681863 1703.0
16.719942428 1745.0
16.746202994 1733.0
16.772463559 1802.0
16.798724124 1761.0
16.824984690 1759.0
16.851245255 1703.0
16.877505820 1755.0
16.903766386 1781.0
16.930026951 1760.0
16.956287516 1668.0
16.982548082 1741.0
17.008808647 1716.0
17.035069212 1755.0
17.061329778 1675.0
17.087590343 1599.0
17.113850908 1731.0
17.140111474 1628.0
17.166372039 1704.0
17.192632605 1745.0
17.218893170 1668.0
17.245153735 1767.0
17.271414301 1701.0
17.297674866 1730.0
17.323935431 1754.0
17.350195997 1814.0
17.376456562 1739.0
17.402717127 1906.0
17.428977693 1828.0
17.455238258 1929.0
17.481498823 1881.0
17.507759389 1850.0
17.534019954 1786.0
17.560280520 1851.0
17.586541085 1775.0
17.612801650 1823.0
17.639062216 1773.0
17.665322781 1716.0
17.691583346 1678.0
17.717843912 1767.0
17.744104477 1657.0
17.770365042 1696.0
17.796625608 1742.0
17.822886173 1654.0
17.849146738 1641.0
17.875407304 1624.0
17.901667869 1551.0
17.927928434 1614.0
17.954189000 1626.0
17.980449565 1609.0
18.006710131 1700.0
18.032970696 1648.0
18.059231261 1557.0
18.085491827 1645.0
18.111752392 1655.0
18.138012957 1646.0
18.164273523 1655.0
18.190534088 1665.0
18.216794653 1669.0
18.243055219 1650.0
18.269315784 1587.0
18.295576349 1684.0
18.321836915 1625.0
18.348097480 1586.0
18.374358046 1612.0
18.400618611 1638.0
18.426879176 1549.0
18.453139742 1614.0
18.479400307 1627.0
18.505660872 1604.0
18.531921438 1622.0
18.558182003 1508.0
18.584442568 1579.0
18.610703134 1616.0
18.636963699 1559.0
18.663224264 1608.0
18.689484830 1658.0
18.715745395 1573.0
18.742005960 1694.0
18.768266526 1610.0
18.794527091 1631.0
18.820787657 1616.0
18.847048222 1658.0
18.873308787 1612.0
18.899569353 1615.0
18.925829918 1643.0
18.952090483 1614.0
18.978351049 1536.0
19.004611614 1672.0
19.030872179 1680.0
19.057132745 1602.0
19.083393310 1610.0
19.109653875 1667.0
19.135914441 1618.0
19.162175006 1624.0
19.188435572 1694.0
19.214696137 1630.0
19.240956702 1638.0
19.267217268 1703.0
19.293477833 1692.0
19.319738398 1783.0
19.345998964 1697.0
19.372259529 1731.0
19.398520094 1742.0
19.424780660 1807.0
19.451041225 1871.0
19.477301790 1801.0
19.503562356 1876.0
19.529822921 1860.0
19.556083486 1874.0
19.582344052 1883.0
19.608604617 1816.0
19.634865183 1955.0
19.661125748 1907.0
19.687386313 1858.0
19.713646879 1864.0
19.739907444 1842.0
19.766168009 1827.0
19.792428575 1964.0
19.818689140 1718.0
19.844949705 1814.0
19.871210271 1765.0
19.897470836 1856.0
19.923731401 1894.0
19.949991967 1826.0
19.976252532 1760.0
20.002513097 1728.0
20.028773663 1740.0
20.055034228 1721.0
20.081294794 1802.0
20.107555359 1754.0
20.133815924 1753.0
20.160076490 1797.0
20.186337055 1796.0
20.212597620 1788.0
20.238858186 1749.0
20.265118751 1796.0
20.291379316 1848.0
20.317639882 1756.0
20.343900447 1848.0
20.370161012 1821.0
20.396421578 1785.0
20.422682143 1810.0
20.448942709 1745.0
20.475203274 1845.0
20.501463839 1909.0
20.527724405 1875.0
20.553984970 1885.0
20.580245535 1946.0
20.606506101 1769.0
20.632766666 1814.0
20.659027231 1840.0
20.685287797 1923.0
20.711548362 1922.0
20.737808927 1915.0
20.764069493 1833.0
20.790330058 1948.0
20.816590623 1947.0
20.842851189 1913.0
20.869111754 1945.0
20.895372320 1967.0
20.921632885 2016.0
20.947893450 2047.0
20.974154016 1925.0
21.000414581 2040.0
21.026675146 1987.0
21.052935712 2050.0
21.079196277 2021.0
21.105456842 1977.0
21.131717408 2057.0
21.157977973 2108.0
21.184238538 2056.0
21.210499104 1989.0
21.236759669 1991.0
21.263020235 1993.0
21.289280800 1974.0
21.315541365 2011.0
21.341801931 2048.0
21.368062496 2011.0
21.394323061 2035.0
21.420583627 1890.0
21.446844192 2103.0
21.473104757 2037.0
21.499365323 2045.0
21.525625888 1965.0
21.551886453 1957.0
21.578147019 1922.0
21.604407584 1873.0
21.630668149 1819.0
21.656928715 1883.0
21.683189280 1901.0
21.709449846 1950.0
21.735710411 1929.0
21.761970976 1959.0
21.788231542 1931.0
21.814492107 1921.0
21.840752672 1980.0
21.867013238 1952.0
21.893273803 1880.0
21.919534368 1893.0
21.945794934 1901.0
21.972055499 1864.0
21.998316064 1903.0
22.024576630 1927.0
22.050837195 1827.0
22.077097761 1940.0
22.103358326 1893.0
22.129618891 1761.0
22.155879457 1871.0
22.182140022 1855.0
22.208400587 1810.0
22.234661153 1800.0
22.260921718 1750.0
22.287182283 1751.0
22.313442849 1734.0
22.339703414 1685.0
22.365963979 1692.0
22.392224545 1826.0
22.418485110 1721.0
22.444745675 1705.0
22.471006241 1695.0
22.497266806 1747.0
22.523527372 1698.0
22.549787937 1655.0
22.576048502 1665.0
22.602309068 1720.0
22.628569633 1705.0
22.654830198 1695.0
22.681090764 1616.0
22.707351329 1617.0
22.733611894 1639.0
22.759872460 1700.0
22.786133025 1698.0
22.812393590 1728.0
22.838654156 1708.0
22.864914721 1690.0
22.891175287 1660.0
22.917435852 1728.0
22.943696417 1734.0
22.969956983 1646.0
22.996217548 1663.0
23.022478113 1701.0
23.048738679 1754.0
23.074999244 1807.0
23.101259809 1705.0
23.127520375 1801.0
23.153780940 1869.0
23.180041505 1780.0
23.206302071 1839.0
23.232562636 1893.0
23.258823201 1856.0
23.285083767 2000.0
23.311344332 2047.0
23.337604898 2116.0
23.363865463 2115.0
23.390126028 2133.0
23.416386594 2120.0
23.442647159 2186.0
23.468907724 2102.0
23.495168290 2038.0
23.521428855 2027.0
23.547689420 1902.0
23.573949986 1799.0
23.600210551 1793.0
23.626471116 1779.0
23.652731682 1789.0
23.678992247 1746.0
23.705252813 1683.0
23.731513378 1656.0
23.757773943 1737.0
23.784034509 1634.0
23.810295074 1528.0
23.836555639 1619.0
23.862816205 1558.0
23.889076770 1579.0
23.915337335 1595.0
23.941597901 1513.0
23.967858466 1517.0
23.994119031 1519.0
24.020379597 1493.0
24.046640162 1564.0
24.072900727 1523.0
24.099161293 1476.0
24.125421858 1523.0
24.151682424 1544.0
24.177942989 1548.0
24.204203554 1462.0
24.230464120 1487.0
24.256724685 1416.0
24.282985250 1387.0
24.309245816 1420.0
24.335506381 1440.0
24.361766946 1473.0
24.388027512 1513.0
24.414288077 1456.0
24.440548642 1507.0
24.466809208 1419.0
24.493069773 1382.0
24.519330338 1413.0
24.545590904 1399.0
24.571851469 1418.0
24.598112035 1476.0
24.624372600 1387.0
24.650633165 1424.0
24.676893731 1414.0
24.703154296 1431.0
24.729414861 1443.0
24.755675427 1507.0
24.781935992 1456.0
24.808196557 1564.0
24.834457123 1496.0
24.860717688 1500.0
24.886978253 1469.0
24.913238819 1442.0
24.939499384 1449.0
24.965759950 1465.0
24.992020515 1390.0
25.018281080 1390.0
25.044541646 1408.0
25.070802211 1429.0
25.097062776 1314.0
25.123323342 1347.0
25.149583907 1310.0
25.175844472 1393.0
25.202105038 1331.0
25.228365603 1331.0
25.254626168 1328.0
25.280886734 1367.0
25.307147299 1329.0
25.333407864 1374.0
25.359668430 1273.0
25.385928995 1347.0
25.412189561 1322.0
25.438450126 1261.0
25.464710691 1280.0
25.490971257 1317.0
25.517231822 1299.0
25.543492387 1264.0
25.569752953 1342.0
25.596013518 1216.0
25.622274083 1253.0
25.648534649 1321.0
25.674795214 1283.0
25.701055779 1313.0
25.727316345 1330.0
25.753576910 1312.0
25.779837476 1305.0
25.806098041 1296.0
25.832358606 1253.0
25.858619172 1281.0
25.884879737 1283.0
25.911140302 1394.0
25.937400868 1257.0
25.963661433 1322.0
25.989921998 1299.0
26.016182564 1343.0
26.042443129 1300.0
26.068703694 1352.0
26.094964260 1305.0
26.121224825 1323.0
26.147485390 1311.0
26.173745956 1359.0
26.200006521 1318.0
26.226267087 1390.0
26.252527652 1370.0
26.278788217 1456.0
26.305048783 1455.0
26.331309348 1346.0
26.357569913 1417.0
26.383830479 1401.0
26.410091044 1407.0
26.436351609 1417.0
26.462612175 1519.0
26.488872740 1524.0
26.515133305 1494.0
26.541393871 1461.0
26.567654436 1484.0
26.593915002 1536.0
26.620175567 1515.0
26.646436132 1542.0
26.672696698 1624.0
26.698957263 1524.0
26.725217828 1534.0
26.751478394 1529.0
26.777738959 1557.0
26.803999524 1526.0
26.830260090 1522.0
26.856520655 1473.0
26.882781220 1466.0
26.909041786 1586.0
26.935302351 1540.0
26.961562916 1478.0
26.987823482 1455.0
27.014084047 1572.0
27.040344613 1436.0
27.066605178 1476.0
27.092865743 1489.0
27.119126309 1452.0
27.145386874 1523.0
27.171647439 1549.0
27.197908005 1538.0
27.224168570 1559.0
27.250429135 1497.0
27.276689701 1554.0
27.302950266 1488.0
27.329210831 1566.0
27.355471397 1488.0
27.381731962 1531.0
27.407992528 1574.0
27.434253093 1497.0
27.460513658 1472.0
27.486774224 1483.0
27.513034789 1436.0
27.539295354 1378.0
27.565555920 1316.0
27.591816485 1301.0
27.618077050 1310.0
27.644337616 1275.0
27.670598181 1290.0
27.696858746 1283.0
27.723119312 1218.0
27.749379877 1294.0
27.775640442 1244.0
27.801901008 1202.0
27.828161573 1219.0
27.854422139 1180.0
27.880682704 1195.0
27.906943269 1193.0
27.933203835 1182.0
27.959464400 1185.0
27.985724965 1212.0
28.011985531 1088.0
28.038246096 1132.0
28.064506661 1154.0
28.090767227 1131.0
28.117027792 1059.0
28.143288357 1114.0
28.169548923 1132.0
28.195809488 1160.0
28.222070054 1160.0
28.248330619 1132.0
28.274591184 1120.0
28.300851750 1115.0
28.327112315 1148.0
28.353372880 1145.0
28.379633446 1085.0
28.405894011 1091.0
28.432154576 1066.0
28.458415142 1097.0
28.484675707 1093.0
28.510936272 1046.0
28.537196838 1111.0
28.563457403 1091.0
28.589717968 1119.0
28.615978534 1072.0
28.642239099 1113.0
28.668499665 1070.0
28.694760230 1075.0
28.721020795 1088.0
28.747281361 1066.0
28.773541926 1072.0
28.799802491 1134.0
28.826063057 1048.0
28.852323622 1054.0
28.878584187 1064.0
28.904844753 1036.0
28.931105318 1108.0
28.957365883 1026.0
28.983626449 1113.0
29.009887014 1073.0
29.036147579 1122.0
29.062408145 1063.0
29.088668710 1095.0
29.114929276 1076.0
29.141189841 1093.0
29.167450406 1045.0
29.193710972 1044.0
29.219971537 1088.0
29.246232102 1174.0
29.272492668 1026.0
29.298753233 1166.0
29.325013798 1039.0
29.351274364 1151.0
29.377534929 1118.0
29.403795494 1189.0
29.430056060 1192.0
29.456316625 1142.0
29.482577191 1145.0
29.508837756 1189.0
29.535098321 1171.0
29.561358887 1158.0
29.587619452 1191.0
29.613880017 1233.0
29.640140583 1210.0
29.666401148 1366.0
29.692661713 1285.0
29.718922279 1311.0
29.745182844 1284.0
29.771443409 1391.0
29.797703975 1393.0
29.823964540 1513.0
29.850225105 1359.0
29.876485671 1448.0
29.902746236 1477.0
29.929006802 1430.0
29.955267367 1474.0
29.981527932 1527.0
30.007788498 1562.0
30.034049063 1468.0
30.060309628 1555.0
30.086570194 1577.0
30.112830759 1677.0
30.139091324 1735.0
30.165351890 1770.0
30.191612455 1861.0
30.217873020 1865.0
30.244133586 1911.0
30.270394151 1934.0
30.296654717 2042.0
30.322915282 2025.0
30.349175847 2163.0
30.375436413 2138.0
30.401696978 2053.0
30.427957543 2129.0
30.454218109 2176.0
30.480478674 2133.0
30.506739239 2055.0
30.532999805 1965.0
30.559260370 1922.0
30.585520935 1686.0
30.611781501 1649.0
30.638042066 1554.0
30.664302631 1434.0
30.690563197 1370.0
30.716823762 1329.0
30.743084328 1225.0
30.769344893 1226.0
30.795605458 1198.0
30.821866024 1110.0
30.848126589 1131.0
30.874387154 1162.0
30.900647720 1139.0
30.926908285 1062.0
30.953168850 1150.0
30.979429416 1073.0
31.005689981 1072.0
31.031950546 1086.0
31.058211112 1050.0
31.084471677 1090.0
31.110732243 1063.0
31.136992808 1048.0
31.163253373 1019.0
31.189513939 1073.0
31.215774504 1011.0
31.242035069 1038.0
31.268295635 1055.0
31.294556200 1087.0
31.320816765 1008.0
31.347077331 1063.0
31.373337896 1039.0
31.399598461 1025.0
31.425859027 1052.0
31.452119592 1095.0
31.478380157 1044.0
31.504640723 1006.0
31.530901288 1044.0
31.557161854 1011.0
31.583422419 1032.0
31.609682984 1032.0
31.635943550 962.0
31.662204115 979.0
31.688464680 1006.0
31.714725246 1004.0
31.740985811 1046.0
31.767246376 1003.0
31.793506942 1059.0
31.819767507 960.0
31.846028072 1003.0
31.872288638 1009.0
31.898549203 1038.0
31.924809769 1028.0
31.951070334 1052.0
31.977330899 997.0
32.003591465 1053.0
32.029852030 1033.0
32.056112595 1043.0
32.082373161 1018.0
32.108633726 1002.0
32.134894291 1047.0
32.161154857 1069.0
32.187415422 1028.0
32.213675987 1062.0
32.239936553 983.0
32.266197118 1113.0
32.292457683 1023.0
32.318718249 1037.0
32.344978814 1046.0
32.371239380 1042.0
32.397499945 1015.0
32.423760510 1025.0
32.450021076 1047.0
32.476281641 1049.0
32.502542206 1070.0
32.528802772 1048.0
32.555063337 1073.0
32.581323902 1074.0
32.607584468 1018.0
32.633845033 1083.0
32.660105598 1106.0
32.686366164 1090.0
32.712626729 1075.0
32.738887295 1153.0
32.765147860 1090.0
32.791408425 1106.0
32.817668991 1067.0
32.843929556 1039.0
32.870190121 1128.0
32.896450687 1101.0
32.922711252 1079.0
32.948971817 1113.0
32.975232383 1141.0
33.001492948 1169.0
33.027753513 1062.0
33.054014079 1109.0
33.080274644 1105.0
33.106535209 1103.0
33.132795775 1117.0
33.159056340 1092.0
33.185316906 1102.0
33.211577471 1044.0
33.237838036 998.0
33.264098602 1053.0
33.290359167 1120.0
33.316619732 1012.0
33.342880298 1077.0
33.369140863 1105.0
33.395401428 1044.0
33.421661994 1062.0
33.447922559 1058.0
33.474183124 977.0
33.500443690 1102.0
33.526704255 1133.0
33.552964820 1028.0
33.579225386 1084.0
33.605485951 1099.0
33.631746517 1108.0
33.658007082 1125.0
33.684267647 1101.0
33.710528213 1141.0
33.736788778 1103.0
33.763049343 1123.0
33.789309909 1153.0
33.815570474 1127.0
33.841831039 1194.0
33.868091605 1191.0
33.894352170 1245.0
33.920612735 1220.0
33.946873301 1215.0
33.973133866 1240.0
33.999394432 1272.0
34.025654997 1281.0
34.051915562 1361.0
34.078176128 1366.0
34.104436693 1365.0
34.130697258 1332.0
34.156957824 1419.0
34.183218389 1386.0
34.209478954 1520.0
34.235739520 1431.0
34.262000085 1498.0
34.288260650 1494.0
34.314521216 1481.0
34.340781781 1451.0
34.367042346 1546.0
34.393302912 1551.0
34.419563477 1592.0
34.445824043 1583.0
34.472084608 1611.0
34.498345173 1605.0
34.524605739 1597.0
34.550866304 1488.0
34.577126869 1568.0
34.603387435 1638.0
34.629648000 1594.0
34.655908565 1613.0
34.682169131 1645.0
34.708429696 1645.0
34.734690261 1673.0
34.760950827 1614.0
34.787211392 1651.0
34.813471958 1654.0
34.839732523 1640.0
34.865993088 1666.0
34.892253654 1725.0
34.918514219 1694.0
34.944774784 1729.0
34.971035350 1754.0
34.997295915 1717.0
35.023556480 1784.0
35.049817046 1759.0
35.076077611 1727.0
35.102338176 1750.0
35.128598742 1682.0
35.154859307 1674.0
35.181119872 1717.0
35.207380438 1673.0
35.233641003 1625.0
35.259901569 1686.0
35.286162134 1717.0
35.312422699 1772.0
35.338683265 1718.0
35.364943830 1684.0
35.391204395 1729.0
35.417464961 1804.0
35.443725526 1756.0
35.469986091 1716.0
35.496246657 1793.0
35.522507222 1718.0
35.548767787 1746.0
35.575028353 1712.0
35.601288918 1672.0
35.627549484 1667.0
35.653810049 1630.0
35.680070614 1543.0
35.706331180 1551.0
35.732591745 1538.0
35.758852310 1530.0
35.785112876 1501.0
35.811373441 1452.0
35.837634006 1392.0
35.863894572 1392.0
35.890155137 1479.0
35.916415702 1422.0
35.942676268 1422.0
35.968936833 1422.0
35.995197398 1341.0
36.021457964 1324.0
36.047718529 1391.0
36.073979095 1331.0
36.100239660 1369.0
36.126500225 1360.0
36.152760791 1379.0
36.179021356 1317.0
36.205281921 1439.0
36.231542487 1340.0
36.257803052 1358.0
36.284063617 1408.0
36.310324183 1366.0
36.336584748 1466.0
36.362845313 1497.0
36.389105879 1386.0
36.415366444 1434.0
36.441627010 1525.0
36.467887575 1531.0
36.494148140 1542.0
36.520408706 1460.0
36.546669271 1548.0
36.572929836 1490.0
36.599190402 1498.0
36.625450967 1415.0
36.651711532 1535.0
36.677972098 1446.0
36.704232663 1462.0
36.730493228 1436.0
36.756753794 1401.0
36.783014359 1380.0
36.809274924 1392.0
36.835535490 1368.0
36.861796055 1440.0
36.888056621 1385.0
36.914317186 1405.0
36.940577751 1328.0
36.966838317 1370.0
36.993098882 1305.0
37.019359447 1334.0
37.045620013 1343.0
37.071880578 1283.0
37.098141143 1321.0
37.124401709 1295.0
37.150662274 1272.0
37.176922839 1337.0
37.203183405 1304.0
37.229443970 1306.0
37.255704535 1260.0
37.281965101 1299.0
37.308225666 1293.0
37.334486232 1377.0
37.360746797 1279.0
37.387007362 1305.0
37.413267928 1207.0
37.439528493 1258.0
37.465789058 1260.0
37.492049624 1255.0
37.518310189 1278.0
37.544570754 1259.0
37.570831320 1306.0
37.597091885 1273.0
37.623352450 1323.0
37.649613016 1237.0
37.675873581 1234.0
37.702134147 1238.0
37.728394712 1296.0
37.754655277 1286.0
37.780915843 1295.0
37.807176408 1332.0
37.833436973 1244.0
37.859697539 1232.0
37.885958104 1255.0
37.912218669 1276.0
37.938479235 1221.0
37.964739800 1210.0
37.991000365 1177.0
38.017260931 1193.0
38.043521496 1265.0
38.069782061 1185.0
38.096042627 1152.0
38.122303192 1194.0
38.148563758 1234.0
38.174824323 1274.0
38.201084888 1239.0
38.227345454 1158.0
38.253606019 1222.0
38.279866584 1199.0
38.306127150 1162.0
38.332387715 1232.0
38.358648280 1233.0
38.384908846 1145.0
38.411169411 1225.0
38.437429976 1231.0
38.463690542 1189.0
38.489951107 1191.0
38.516211673 1205.0
38.542472238 1165.0
38.568732803 1168.0
38.594993369 1223.0
38.621253934 1250.0
38.647514499 1174.0
38.673775065 1176.0
38.700035630 1134.0
38.726296195 1154.0
38.752556761 1169.0
38.778817326 1209.0
38.805077891 1145.0
38.831338457 1192.0
38.857599022 1139.0
38.883859587 1106.0
38.910120153 1197.0
38.936380718 1096.0
38.962641284 1194.0
38.988901849 1170.0
39.015162414 1124.0
39.041422980 1169.0
39.067683545 1163.0
39.093944110 1167.0
39.120204676 1190.0
39.146465241 1124.0
39.172725806 1117.0
39.198986372 1124.0
39.225246937 1118.0
39.251507502 1139.0
39.277768068 1118.0
39.304028633 1129.0
39.330289199 1129.0
39.356549764 1125.0
39.382810329 1136.0
39.409070895 1097.0
39.435331460 1133.0
39.461592025 1149.0
39.487852591 1094.0
39.514113156 1110.0
39.540373721 1160.0
39.566634287 1203.0
39.592894852 1149.0
39.619155417 1129.0
39.645415983 1111.0
39.671676548 1158.0
39.697937113 1033.0
39.724197679 1083.0
39.750458244 1072.0
39.776718810 1014.0
39.802979375 1014.0
39.829239940 1046.0
39.855500506 1013.0
39.881761071 987.0
39.908021636 959.0
39.934282202 1035.0
39.960542767 944.0
39.986803332 911.0
40.013063898 921.0
40.039324463 950.0
40.065585028 906.0
40.091845594 953.0
40.118106159 968.0
40.144366725 916.0
40.170627290 936.0
40.196887855 946.0
40.223148421 940.0
40.249408986 931.0
40.275669551 933.0
40.301930117 941.0
40.328190682 952.0
40.354451247 896.0
40.380711813 924.0
40.406972378 918.0
40.433232943 894.0
40.459493509 898.0
40.485754074 893.0
40.512014639 854.0
40.538275205 869.0
40.564535770 905.0
40.590796336 922.0
40.617056901 878.0
40.643317466 853.0
40.669578032 892.0
40.695838597 852.0
40.722099162 898.0
40.748359728 860.0
40.774620293 861.0
40.800880858 845.0
40.827141424 845.0
40.853401989 878.0
40.879662554 821.0
40.905923120 808.0
40.932183685 861.0
40.958444251 931.0
40.984704816 881.0
41.010965381 825.0
41.037225947 846.0
41.063486512 895.0
41.089747077 845.0
41.116007643 862.0
41.142268208 892.0
41.168528773 872.0
41.194789339 936.0
41.221049904 947.0
41.247310469 969.0
41.273571035 989.0
41.299831600 990.0
41.326092165 1001.0
41.352352731 1103.0
41.378613296 1072.0
41.404873862 1003.0
41.431134427 1100.0
41.457394992 1093.0
41.483655558 1054.0
41.509916123 1103.0
41.536176688 1069.0
41.562437254 1025.0
41.588697819 1056.0
41.614958384 994.0
41.641218950 950.0
41.667479515 905.0
41.693740080 884.0
41.720000646 915.0
41.746261211 915.0
41.772521776 945.0
41.798782342 809.0
41.825042907 836.0
41.851303473 871.0
41.877564038 888.0
41.903824603 832.0
41.930085169 877.0
41.956345734 782.0
41.982606299 838.0
42.008866865 816.0
42.035127430 762.0
42.061387995 840.0
42.087648561 766.0
42.113909126 805.0
42.140169691 822.0
42.166430257 842.0
42.192690822 814.0
42.218951388 874.0
42.245211953 847.0
42.271472518 812.0
42.297733084 813.0
42.323993649 812.0
42.350254214 840.0
42.376514780 851.0
42.402775345 810.0
42.429035910 853.0
42.455296476 850.0
42.481557041 837.0
42.507817606 820.0
42.534078172 881.0
42.560338737 805.0
42.586599302 854.0
42.612859868 810.0
42.639120433 821.0
42.665380999 810.0
42.691641564 851.0
42.717902129 852.0
42.744162695 816.0
42.770423260 846.0
42.796683825 810.0
42.822944391 769.0
42.849204956 809.0
42.875465521 777.0
42.901726087 788.0
42.927986652 789.0
42.954247217 848.0
42.980507783 817.0
43.006768348 842.0
43.033028914 817.0
43.059289479 813.0
43.085550044 815.0
43.111810610 821.0
43.138071175 853.0
43.164331740 789.0
43.190592306 929.0
43.216852871 873.0
43.243113436 911.0
43.269374002 937.0
43.295634567 935.0
43.321895132 995.0
43.348155698 976.0
43.374416263 989.0
43.400676828 966.0
43.426937394 1014.0
43.453197959 1000.0
43.479458525 984.0
43.505719090 961.0
43.531979655 960.0
43.558240221 980.0
43.584500786 978.0
43.610761351 949.0
43.637021917 890.0
43.663282482 826.0
43.689543047 912.0
43.715803613 935.0
43.742064178 861.0
43.768324743 841.0
43.794585309 907.0
43.820845874 875.0
43.847106440 828.0
43.873367005 792.0
43.899627570 841.0
43.925888136 815.0
43.952148701 852.0
43.978409266 816.0
44.004669832 841.0
44.030930397 896.0
44.057190962 812.0
44.083451528 815.0
44.109712093 847.0
44.135972658 870.0
44.162233224 837.0
44.188493789 868.0
44.214754354 899.0
44.241014920 840.0
44.267275485 870.0
44.293536051 866.0
44.319796616 902.0
44.346057181 908.0
44.372317747 860.0
44.398578312 823.0
44.424838877 847.0
44.451099443 802.0
44.477360008 808.0
44.503620573 896.0
44.529881139 898.0
44.556141704 861.0
44.582402269 873.0
44.608662835 880.0
44.634923400 881.0
44.661183966 902.0
44.687444531 846.0
44.713705096 857.0
44.739965662 851.0
44.766226227 892.0
44.792486792 882.0
44.818747358 837.0
44.845007923 811.0
44.871268488 882.0
44.897529054 808.0
44.923789619 846.0
44.950050184 864.0
44.976310750 832.0
45.002571315 876.0
45.028831880 874.0
45.055092446 845.0
45.081353011 793.0
45.107613577 882.0
45.133874142 878.0
45.160134707 802.0
45.186395273 817.0
45.212655838 866.0
45.238916403 860.0
45.265176969 820.0
45.291437534 886.0
45.317698099 855.0
45.343958665 864.0
45.370219230 923.0
45.396479795 873.0
45.422740361 801.0
45.449000926 816.0
45.475261492 861.0
45.501522057 863.0
45.527782622 869.0
45.554043188 807.0
45.580303753 856.0
45.606564318 799.0
45.632824884 867.0
45.659085449 827.0
45.685346014 850.0
45.711606580 833.0
45.737867145 873.0
45.764127710 854.0
45.790388276 865.0
45.816648841 842.0
45.842909406 824.0
45.869169972 833.0
45.895430537 806.0
45.921691103 763.0
45.947951668 833.0
45.974212233 760.0
46.000472799 814.0
46.026733364 806.0
46.052993929 782.0
46.079254495 812.0
46.105515060 696.0
46.131775625 799.0
46.158036191 765.0
46.184296756 771.0
46.210557321 815.0
46.236817887 782.0
46.263078452 743.0
46.289339017 818.0
46.315599583 743.0
46.341860148 800.0
46.368120714 765.0
46.394381279 785.0
46.420641844 825.0
46.446902410 727.0
46.473162975 808.0
46.499423540 819.0
46.525684106 788.0
46.551944671 753.0
46.578205236 800.0
46.604465802 764.0
46.630726367 852.0
46.656986932 743.0
46.683247498 750.0
46.709508063 747.0
46.735768629 815.0
46.762029194 852.0
46.788289759 781.0
46.814550325 770.0
46.840810890 813.0
46.867071455 807.0
46.893332021 747.0
46.919592586 847.0
46.945853151 791.0
46.972113717 810.0
46.998374282 807.0
47.024634847 848.0
47.050895413 743.0
47.077155978 756.0
47.103416543 772.0
47.129677109 750.0
47.155937674 778.0
47.182198240 806.0
47.208458805 773.0
47.234719370 820.0
47.260979936 798.0
47.287240501 753.0
47.313501066 727.0
47.339761632 740.0
47.366022197 714.0
47.392282762 723.0
47.418543328 679.0
47.444803893 676.0
47.471064458 680.0
47.497325024 695.0
47.523585589 734.0
47.549846155 729.0
47.576106720 652.0
47.602367285 679.0
47.628627851 671.0
47.654888416 690.0
47.681148981 674.0
47.707409547 683.0
47.733670112 710.0
47.759930677 664.0
47.786191243 694.0
47.812451808 674.0
47.838712373 633.0
47.864972939 602.0
47.891233504 631.0
47.917494069 692.0
47.943754635 646.0
47.970015200 650.0
47.996275766 679.0
48.022536331 599.0
48.048796896 650.0
48.075057462 681.0
48.101318027 633.0
48.127578592 643.0
48.153839158 634.0
48.180099723 639.0
48.206360288 659.0
48.232620854 655.0
48.258881419 639.0
48.285141984 613.0
48.311402550 669.0
48.337663115 630.0
48.363923681 640.0
48.390184246 637.0
48.416444811 608.0
48.442705377 586.0
48.468965942 603.0
48.495226507 612.0
48.521487073 640.0
48.547747638 647.0
48.574008203 618.0
48.600268769 595.0
48.626529334 588.0
48.652789899 619.0
48.679050465 624.0
48.705311030 624.0
48.731571595 631.0
48.757832161 639.0
48.784092726 621.0
48.810353292 569.0
48.836613857 568.0
48.862874422 637.0
48.889134988 612.0
48.915395553 580.0
48.941656118 584.0
48.967916684 559.0
48.994177249 607.0
49.020437814 621.0
49.046698380 567.0
49.072958945 537.0
49.099219510 622.0
49.125480076 595.0
49.151740641 568.0
49.178001207 564.0
49.204261772 601.0
49.230522337 582.0
49.256782903 609.0
49.283043468 562.0
49.309304033 577.0
49.335564599 563.0
49.361825164 613.0
49.388085729 582.0
49.414346295 569.0
49.440606860 571.0
49.466867425 611.0
49.493127991 595.0
49.519388556 616.0
49.545649121 634.0
49.571909687 618.0
49.598170252 618.0
49.624430818 609.0
49.650691383 585.0
49.676951948 591.0
49.703212514 588.0
49.729473079 654.0
49.755733644 597.0
49.781994210 621.0
49.808254775 585.0
49.834515340 562.0
49.860775906 608.0
49.887036471 628.0
49.913297036 599.0
49.939557602 578.0
49.965818167 603.0
49.992078732 595.0
50.018339298 584.0
50.044599863 604.0
50.070860429 533.0
50.097120994 590.0
50.123381559 555.0
50.149642125 616.0
50.175902690 595.0
50.202163255 592.0
50.228423821 524.0
50.254684386 613.0
50.280944951 574.0
50.307205517 564.0
50.333466082 600.0
50.359726647 595.0
50.385987213 605.0
50.412247778 561.0
50.438508344 576.0
50.464768909 531.0
50.491029474 535.0
50.517290040 536.0
50.543550605 542.0
50.569811170 582.0
50.596071736 532.0
50.622332301 560.0
50.648592866 597.0
50.674853432 594.0
50.701113997 554.0
50.727374562 588.0
50.753635128 550.0
50.779895693 564.0
50.806156258 543.0
50.832416824 565.0
50.858677389 577.0
50.884937955 521.0
50.911198520 558.0
50.937459085 559.0
50.963719651 571.0
50.989980216 547.0
51.016240781 529.0
51.042501347 581.0
51.068761912 533.0
51.095022477 575.0
51.121283043 549.0
51.147543608 526.0
51.173804173 515.0
51.200064739 504.0
51.226325304 554.0
51.252585870 532.0
51.278846435 521.0
51.305107000 521.0
51.331367566 498.0
51.357628131 543.0
51.383888696 566.0
51.410149262 505.0
51.436409827 518.0
51.462670392 519.0
51.488930958 495.0
51.515191523 558.0
51.541452088 527.0
51.567712654 521.0
51.593973219 518.0
51.620233784 542.0
51.646494350 525.0
51.672754915 537.0
51.699015481 513.0
51.725276046 513.0
51.751536611 540.0
51.777797177 455.0
51.804057742 569.0
51.830318307 528.0
51.856578873 457.0
51.882839438 546.0
51.909100003 514.0
51.935360569 554.0
51.961621134 562.0
51.987881699 514.0
52.014142265 548.0
52.040402830 550.0
52.066663396 527.0
52.092923961 544.0
52.119184526 499.0
52.145445092 557.0
52.171705657 529.0
52.197966222 529.0
52.224226788 518.0
52.250487353 577.0
52.276747918 567.0
52.303008484 533.0
52.329269049 526.0
52.355529614 511.0
52.381790180 529.0
52.408050745 535.0
52.434311310 538.0
52.460571876 530.0
52.486832441 550.0
52.513093007 548.0
52.539353572 511.0
52.565614137 533.0
52.591874703 529.0
52.618135268 555.0
52.644395833 508.0
52.670656399 574.0
52.696916964 563.0
52.723177529 516.0
52.749438095 529.0
52.775698660 603.0
52.801959225 594.0
52.828219791 568.0
52.854480356 548.0
52.880740922 611.0
52.907001487 543.0
52.933262052 593.0
52.959522618 564.0
52.985783183 558.0
53.012043748 603.0
53.038304314 611.0
53.064564879 595.0
53.090825444 591.0
53.117086010 590.0
53.143346575 619.0
53.169607140 592.0
53.195867706 606.0
53.222128271 598.0
53.248388836 600.0
53.274649402 614.0
53.300909967 572.0
53.327170533 611.0
53.353431098 665.0
53.379691663 573.0
53.405952229 533.0
53.432212794 532.0
53.458473359 619.0
53.484733925 512.0
53.510994490 564.0
53.537255055 507.0
53.563515621 578.0
53.589776186 555.0
53.616036751 591.0
53.642297317 544.0
53.668557882 569.0
53.694818448 515.0
53.721079013 521.0
53.747339578 577.0
53.773600144 578.0
53.799860709 564.0
53.826121274 599.0
53.852381840 568.0
53.878642405 586.0
53.904902970 555.0
53.931163536 531.0
53.957424101 537.0
53.983684666 582.0
54.009945232 549.0
54.036205797 567.0
54.062466362 521.0
54.088726928 533.0
54.114987493 544.0
54.141248059 561.0
54.167508624 544.0
54.193769189 571.0
54.220029755 502.0
54.246290320 551.0
54.272550885 560.0
54.298811451 564.0
54.325072016 557.0
54.351332581 512.0
54.377593147 502.0
54.403853712 483.0
54.430114277 555.0
54.456374843 512.0
54.482635408 486.0
54.508895973 496.0
54.535156539 527.0
54.561417104 500.0
54.587677670 508.0
54.613938235 542.0
54.640198800 553.0
54.666459366 486.0
54.692719931 551.0
54.718980496 501.0
54.745241062 534.0
54.771501627 538.0
54.797762192 499.0
54.824022758 510.0
54.850283323 486.0
54.876543888 537.0
54.902804454 527.0
54.929065019 502.0
54.955325585 558.0
54.981586150 496.0
55.007846715 528.0
55.034107281 537.0
55.060367846 547.0
55.086628411 558.0
55.112888977 503.0
55.139149542 516.0
55.165410107 439.0
55.191670673 558.0
55.217931238 539.0
55.244191803 540.0
55.270452369 564.0
55.296712934 542.0
55.322973499 460.0
55.349234065 472.0
55.375494630 503.0
55.401755196 501.0
55.428015761 502.0
55.454276326 567.0
55.480536892 507.0
55.506797457 557.0
55.533058022 583.0
55.559318588 456.0
55.585579153 519.0
55.611839718 528.0
55.638100284 518.0
55.664360849 510.0
55.690621414 548.0
55.716881980 529.0
55.743142545 527.0
55.769403111 541.0
55.795663676 514.0
55.821924241 489.0
55.848184807 538.0
55.874445372 503.0
55.900705937 548.0
55.926966503 589.0
55.953227068 515.0
55.979487633 550.0
56.005748199 534.0
56.032008764 507.0
56.058269329 553.0
56.084529895 538.0
56.110790460 586.0
56.137051025 558.0
56.163311591 531.0
56.189572156 573.0
56.215832722 599.0
56.242093287 550.0
56.268353852 588.0
56.294614418 511.0
56.320874983 549.0
56.347135548 570.0
56.373396114 508.0
56.399656679 569.0
56.425917244 592.0
56.452177810 555.0
56.478438375 565.0
56.504698940 539.0
56.530959506 591.0
56.557220071 555.0
56.583480637 568.0
56.609741202 570.0
56.636001767 604.0
56.662262333 578.0
56.688522898 593.0
56.714783463 585.0
56.741044029 622.0
56.767304594 522.0
56.793565159 532.0
56.819825725 561.0
56.846086290 594.0
56.872346855 590.0
56.898607421 529.0
56.924867986 550.0
56.951128551 537.0
56.977389117 588.0
57.003649682 583.0
57.029910248 620.0
57.056170813 508.0
57.082431378 564.0
57.108691944 560.0
57.134952509 569.0
57.161213074 537.0
57.187473640 518.0
57.213734205 593.0
57.239994770 550.0
57.266255336 533.0
57.292515901 517.0
57.318776466 556.0
57.345037032 512.0
57.371297597 499.0
57.397558163 528.0
57.423818728 516.0
57.450079293 525.0
57.476339859 489.0
57.502600424 546.0
57.528860989 554.0
57.555121555 482.0
57.581382120 537.0
57.607642685 540.0
57.633903251 530.0
57.660163816 489.0
57.686424381 561.0
57.712684947 478.0
57.738945512 510.0
57.765206077 468.0
57.791466643 510.0
57.817727208 506.0
57.843987774 531.0
57.870248339 569.0
57.896508904 531.0
57.922769470 513.0
57.949030035 513.0
57.975290600 465.0
58.001551166 509.0
58.027811731 497.0
58.054072296 522.0
58.080332862 490.0
58.106593427 509.0
58.132853992 468.0
58.159114558 491.0
58.185375123 494.0
58.211635689 463.0
58.237896254 478.0
58.264156819 461.0
58.290417385 510.0
58.316677950 494.0
58.342938515 503.0
58.369199081 563.0
58.395459646 480.0
58.421720211 417.0
58.447980777 493.0
58.474241342 501.0
58.500501907 473.0
58.526762473 508.0
58.553023038 449.0
58.579283603 475.0
58.605544169 491.0
58.631804734 499.0
58.658065300 471.0
58.684325865 470.0
58.710586430 479.0
58.736846996 466.0
58.763107561 473.0
58.789368126 531.0
58.815628692 519.0
58.841889257 501.0
58.868149822 532.0
58.894410388 465.0
58.920670953 486.0
58.946931518 450.0
58.973192084 532.0
58.999452649 491.0
59.025713214 443.0
59.051973780 477.0
59.078234345 469.0
59.104494911 461.0
59.130755476 501.0
59.157016041 511.0
59.183276607 448.0
59.209537172 524.0
59.235797737 500.0
59.262058303 500.0
59.288318868 488.0
59.314579433 480.0
59.340839999 462.0
59.367100564 507.0
59.393361129 489.0
59.419621695 489.0
59.445882260 512.0
59.472142826 454.0
59.498403391 504.0
59.524663956 505.0
59.550924522 493.0
59.577185087 513.0
59.603445652 527.0
59.629706218 478.0
59.655966783 552.0
59.682227348 524.0
59.708487914 536.0
59.734748479 505.0
59.761009044 512.0
59.787269610 476.0
59.813530175 518.0
59.839790740 550.0
59.866051306 564.0
59.892311871 523.0
59.918572437 542.0
59.944833002 504.0
59.971093567 540.0
59.997354133 561.0
60.023614698 529.0
60.049875263 601.0
60.076135829 564.0
60.102396394 586.0
60.128656959 579.0
60.154917525 567.0
60.181178090 572.0
60.207438655 616.0
60.233699221 627.0
60.259959786 614.0
60.286220352 581.0
60.312480917 604.0
60.338741482 651.0
60.365002048 652.0
60.391262613 672.0
60.417523178 654.0
60.443783744 749.0
60.470044309 694.0
60.496304874 701.0
60.522565440 767.0
60.548826005 794.0
60.575086570 764.0
60.601347136 823.0
60.627607701 783.0
60.653868266 796.0
60.680128832 874.0
60.706389397 916.0
60.732649963 909.0
60.758910528 972.0
60.785171093 930.0
60.811431659 989.0
60.837692224 934.0
60.863952789 1057.0
60.890213355 1018.0
60.916473920 976.0
60.942734485 1034.0
60.968995051 1086.0
60.995255616 1051.0
61.021516181 1042.0
61.047776747 1056.0
61.074037312 1134.0
61.100297878 1031.0
61.126558443 1080.0
61.152819008 1138.0
61.179079574 1084.0
61.205340139 1096.0
61.231600704 1104.0
61.257861270 1069.0
61.284121835 1026.0
61.310382400 1030.0
61.336642966 1011.0
61.362903531 1008.0
61.389164096 1026.0
61.415424662 969.0
61.441685227 991.0
61.467945792 1012.0
61.494206358 962.0
61.520466923 1005.0
61.546727489 947.0
61.572988054 1001.0
61.599248619 930.0
61.625509185 916.0
61.651769750 985.0
61.678030315 993.0
61.704290881 1006.0
61.730551446 979.0
61.756812011 984.0
61.783072577 991.0
61.809333142 956.0
61.835593707 901.0
61.861854273 963.0
61.888114838 980.0
61.914375404 964.0
61.940635969 924.0
61.966896534 937.0
61.993157100 925.0
62.019417665 942.0
62.045678230 941.0
62.071938796 952.0
62.098199361 928.0
62.124459926 889.0
62.150720492 882.0
62.176981057 901.0
62.203241622 884.0
62.229502188 863.0
62.255762753 824.0
62.282023318 841.0
62.308283884 819.0
62.334544449 847.0
62.360805015 780.0
62.387065580 805.0
62.413326145 761.0
62.439586711 761.0
62.465847276 742.0
62.492107841 753.0
62.518368407 721.0
62.544628972 715.0
62.570889537 699.0
62.597150103 706.0
62.623410668 689.0
62.649671233 681.0
62.675931799 684.0
62.702192364 616.0
62.728452930 655.0
62.754713495 629.0
62.780974060 695.0
62.807234626 665.0
62.833495191 624.0
62.859755756 618.0
62.886016322 633.0
62.912276887 592.0
62.938537452 588.0
62.964798018 606.0
62.991058583 556.0
63.017319148 614.0
63.043579714 612.0
63.069840279 575.0
63.096100844 619.0
63.122361410 571.0
63.148621975 511.0
63.174882541 489.0
63.201143106 528.0
63.227403671 566.0
63.253664237 544.0
63.279924802 570.0
63.306185367 550.0
63.332445933 545.0
63.358706498 567.0
63.384967063 508.0
63.411227629 461.0
63.437488194 539.0
63.463748759 568.0
63.490009325 522.0
63.516269890 531.0
63.542530455 507.0
63.568791021 507.0
63.595051586 471.0
63.621312152 514.0
63.647572717 494.0
63.673833282 497.0
63.700093848 472.0
63.726354413 534.0
63.752614978 508.0
63.778875544 521.0
63.805136109 468.0
63.831396674 464.0
63.857657240 499.0
63.883917805 474.0
63.910178370 481.0
63.936438936 499.0
63.962699501 531.0
63.988960067 447.0
64.015220632 442.0
64.041481197 468.0
64.067741763 451.0
64.094002328 490.0
64.120262893 453.0
64.146523459 464.0
64.172784024 468.0
64.199044589 430.0
64.225305155 465.0
64.251565720 474.0
64.277826285 405.0
64.304086851 484.0
64.330347416 454.0
64.356607981 500.0
64.382868547 463.0
64.409129112 424.0
64.435389678 462.0
64.461650243 433.0
64.487910808 406.0
64.514171374 422.0
64.540431939 414.0
64.566692504 459.0
64.592953070 414.0
64.619213635 450.0
64.645474200 419.0
64.671734766 397.0
64.697995331 414.0
64.724255896 439.0
64.750516462 429.0
64.776777027 448.0
64.803037593 429.0
64.829298158 471.0
64.855558723 386.0
64.881819289 459.0
64.908079854 393.0
64.934340419 432.0
64.960600985 439.0
64.986861550 441.0
