5.007730280 4089.0
5.033990845 4146.0
5.060251411 4190.0
5.086511976 4161.0
5.112772541 4077.0
5.139033107 4082.0
5.165293672 4035.0
5.191554237 4018.0
5.217814803 3967.0
5.244075368 4075.0
5.270335934 3954.0
5.296596499 4023.0
5.322857064 4046.0
5.349117630 3902.0
5.375378195 3870.0
5.401638760 3953.0
5.427899326 3843.0
5.454159891 3777.0
5.480420456 3916.0
5.506681022 3831.0
5.532941587 3842.0
5.559202152 3748.0
5.585462718 3755.0
5.611723283 3702.0
5.637983849 3676.0
5.664244414 3589.0
5.690504979 3710.0
5.716765545 3735.0
5.743026110 3652.0
5.769286675 3681.0
5.795547241 3666.0
5.821807806 3756.0
5.848068371 3588.0
5.874328937 3606.0
5.900589502 3675.0
5.926850067 3696.0
5.953110633 3557.0
5.979371198 3662.0
6.005631763 3645.0
6.031892329 3586.0
6.058152894 3715.0
6.084413460 3714.0
6.110674025 3539.0
6.136934590 3557.0
6.163195156 3663.0
6.189455721 3659.0
6.215716286 3561.0
6.241976852 3591.0
6.268237417 3509.0
6.294497982 3573.0
6.320758548 3532.0
6.347019113 3702.0
6.373279678 3502.0
6.399540244 3618.0
6.425800809 3586.0
6.452061375 3532.0
6.478321940 3679.0
6.504582505 3509.0
6.530843071 3593.0
6.557103636 3619.0
6.583364201 3518.0
6.609624767 3548.0
6.635885332 3646.0
6.662145897 3537.0
6.688406463 3492.0
6.714667028 3539.0
6.740927593 3571.0
6.767188159 3555.0
6.793448724 3623.0
6.819709289 3452.0
6.845969855 3677.0
6.872230420 3481.0
6.898490986 3654.0
6.924751551 3579.0
6.951012116 3539.0
6.977272682 3682.0
7.003533247 3551.0
7.029793812 3613.0
7.056054378 3433.0
7.082314943 3589.0
7.108575508 3562.0
7.134836074 3568.0
7.161096639 3560.0
7.187357204 3539.0
7.213617770 3626.0
7.239878335 3610.0
7.266138900 3723.0
7.292399466 3703.0
7.318660031 3615.0
7.344920597 3687.0
7.371181162 3730.0
7.397441727 3621.0
7.423702293 3677.0
7.449962858 3859.0
7.476223423 3758.0
7.502483989 3826.0
7.528744554 3803.0
7.555005119 3820.0
7.581265685 3943.0
7.607526250 3954.0
7.633786815 3997.0
7.660047381 4046.0
7.686307946 4129.0
7.712568512 4091.0
7.738829077 4288.0
7.765089642 4250.0
7.791350208 4461.0
7.817610773 4412.0
7.843871338 4486.0
7.870131904 4614.0
7.896392469 4724.0
7.922653034 5000.0
7.948913600 5022.0
7.975174165 5259.0
8.001434730 5384.0
8.027695296 5592.0
8.053955861 5761.0
8.080216426 5964.0
8.106476992 6293.0
8.132737557 6278.0
8.158998123 6708.0
8.185258688 6827.0
8.211519253 7125.0
8.237779819 7421.0
8.264040384 7511.0
8.290300949 7747.0
8.316561515 7739.0
8.342822080 7985.0
8.369082645 8033.0
8.395343211 8030.0
8.421603776 7764.0
8.447864341 7871.0
8.474124907 7634.0
8.500385472 7555.0
8.526646038 7262.0
8.552906603 7319.0
8.579167168 6950.0
8.605427734 6771.0
8.631688299 6589.0
8.657948864 6536.0
8.684209430 6860.0
8.710469995 6696.0
8.736730560 6545.0
8.762991126 6391.0
8.789251691 6004.0
8.815512256 5814.0
8.841772822 5488.0
8.868033387 5186.0
8.894293952 5186.0
8.920554518 4869.0
8.946815083 4788.0
8.973075649 4562.0
8.999336214 4570.0
9.025596779 4535.0
9.051857345 4285.0
9.078117910 4330.0
9.104378475 4160.0
9.130639041 4347.0
9.156899606 4310.0
9.183160171 4176.0
9.209420737 4152.0
9.235681302 4128.0
9.261941867 4061.0
9.288202433 3855.0
9.314462998 3956.0
9.340723564 3805.0
9.366984129 3770.0
9.393244694 3889.0
9.419505260 3840.0
9.445765825 3715.0
9.472026390 3663.0
9.498286956 3701.0
9.524547521 3647.0
9.550808086 3668.0
9.577068652 3720.0
9.603329217 3550.0
9.629589782 3581.0
9.655850348 3480.0
9.682110913 3610.0
9.708371478 3422.0
9.734632044 3427.0
9.760892609 3380.0
9.787153175 3397.0
9.813413740 3393.0
9.839674305 3284.0
9.865934871 3362.0
9.892195436 3365.0
9.918456001 3395.0
9.944716567 3259.0
9.970977132 3220.0
9.997237697 3292.0
10.023498263 3260.0
10.049758828 3318.0
10.076019393 3124.0
10.102279959 3203.0
10.128540524 3111.0
10.154801090 3141.0
10.181061655 3111.0
10.207322220 3068.0
10.233582786 3048.0
10.259843351 3076.0
10.286103916 2931.0
10.312364482 2963.0
10.338625047 2990.0
10.364885612 2976.0
10.391146178 3015.0
10.417406743 3013.0
10.443667308 2909.0
10.469927874 2863.0
10.496188439 2946.0
10.522449004 2875.0
10.548709570 2946.0
10.574970135 2879.0
10.601230701 2973.0
10.627491266 2884.0
10.653751831 2835.0
10.680012397 2756.0
10.706272962 2783.0
10.732533527 2846.0
10.758794093 2754.0
10.785054658 2825.0
10.811315223 2764.0
10.837575789 2819.0
10.863836354 2735.0
10.890096919 2738.0
10.916357485 2909.0
10.942618050 2708.0
10.968878616 2888.0
10.995139181 2873.0
11.021399746 2912.0
11.047660312 2925.0
11.073920877 3021.0
11.100181442 3156.0
11.126442008 3170.0
11.152702573 3579.0
11.178963138 3645.0
11.205223704 3997.0
11.231484269 3490.0
11.257744834 2896.0
11.284005400 2677.0
11.310265965 2701.0
11.336526530 2612.0
11.362787096 2700.0
11.389047661 2632.0
11.415308227 2754.0
11.441568792 2638.0
11.467829357 2650.0
11.494089923 2685.0
11.520350488 2648.0
11.546611053 2603.0
11.572871619 2536.0
11.599132184 2596.0
11.625392749 2653.0
11.651653315 2630.0
11.677913880 2487.0
11.704174445 2587.0
11.730435011 2557.0
11.756695576 2494.0
11.782956141 2540.0
11.809216707 2526.0
11.835477272 2645.0
11.861737838 2500.0
11.887998403 2517.0
11.914258968 2570.0
11.940519534 2503.0
11.966780099 2517.0
11.993040664 2574.0
12.019301230 2514.0
12.045561795 2408.0
12.071822360 2536.0
12.098082926 2451.0
12.124343491 2541.0
12.150604056 2465.0
12.176864622 2456.0
12.203125187 2392.0
12.229385753 2510.0
12.255646318 2425.0
12.281906883 2446.0
12.308167449 2481.0
12.334428014 2384.0
12.360688579 2355.0
12.386949145 2359.0
12.413209710 2370.0
12.439470275 2407.0
12.465730841 2293.0
12.491991406 2441.0
12.518251971 2374.0
12.544512537 2350.0
12.570773102 2434.0
12.597033667 2534.0
12.623294233 2493.0
12.649554798 2591.0
12.675815364 2604.0
12.702075929 2721.0
12.728336494 2862.0
12.754597060 3104.0
12.780857625 3528.0
12.807118190 3578.0
12.833378756 3228.0
12.859639321 2655.0
12.885899886 2406.0
12.912160452 2293.0
12.938421017 2313.0
12.964681582 2280.0
12.990942148 2328.0
13.017202713 2264.0
13.043463279 2292.0
13.069723844 2210.0
13.095984409 2269.0
13.122244975 2241.0
13.148505540 2203.0
13.174766105 2228.0
13.201026671 2266.0
13.227287236 2353.0
13.253547801 2250.0
13.279808367 2302.0
13.306068932 2355.0
13.332329497 2425.0
13.358590063 2500.0
13.384850628 2975.0
13.411111193 3015.0
13.437371759 3462.0
13.463632324 4106.0
13.489892890 4472.0
13.516153455 4904.0
13.542414020 4894.0
13.568674586 3726.0
13.594935151 2766.0
13.621195716 2345.0
13.647456282 2290.0
13.673716847 2283.0
13.699977412 2348.0
13.726237978 2384.0
13.752498543 2369.0
13.778759108 2442.0
13.805019674 2694.0
13.831280239 2782.0
13.857540805 3126.0
13.883801370 3197.0
13.910061935 2781.0
13.936322501 2446.0
13.962583066 2244.0
13.988843631 2238.0
14.015104197 2187.0
14.041364762 2141.0
14.067625327 2206.0
14.093885893 2069.0
14.120146458 2045.0
14.146407023 2167.0
14.172667589 2206.0
14.198928154 2230.0
14.225188719 2186.0
14.251449285 2317.0
14.277709850 2428.0
14.303970416 2500.0
14.330230981 2776.0
14.356491546 3082.0
14.382752112 3378.0
14.409012677 3022.0
14.435273242 2597.0
14.461533808 2225.0
14.487794373 2150.0
14.514054938 2109.0
14.540315504 2026.0
14.566576069 2090.0
14.592836634 2036.0
14.619097200 2069.0
14.645357765 2106.0
14.671618331 1981.0
14.697878896 1967.0
14.724139461 1922.0
14.750400027 2000.0
14.776660592 2071.0
14.802921157 1965.0
14.829181723 1908.0
14.855442288 1934.0
14.881702853 2037.0
14.907963419 2046.0
14.934223984 2024.0
14.960484549 2028.0
14.986745115 2056.0
15.013005680 2036.0
15.039266245 2061.0
15.065526811 2063.0
15.091787376 2116.0
15.118047942 2075.0
15.144308507 2121.0
15.170569072 2093.0
15.196829638 2083.0
15.223090203 2096.0
15.249350768 2016.0
15.275611334 2070.0
15.301871899 1991.0
15.328132464 1981.0
15.354393030 1955.0
15.380653595 1989.0
15.406914160 2042.0
15.433174726 2010.0
15.459435291 1984.0
15.485695857 1924.0
15.511956422 1992.0
15.538216987 2021.0
15.564477553 1949.0
15.590738118 2051.0
15.616998683 1949.0
15.643259249 2034.0
15.669519814 1987.0
15.695780379 1843.0
15.722040945 1922.0
15.748301510 1961.0
15.774562075 1949.0
15.800822641 1914.0
15.827083206 1965.0
15.853343771 2089.0
15.879604337 1901.0
15.905864902 1955.0
15.932125468 2038.0
15.958386033 2146.0
15.984646598 2240.0
16.010907164 2296.0
16.037167729 2566.0
16.063428294 2758.0
16.089688860 3234.0
16.115949425 3636.0
16.142209990 4272.0
16.168470556 3845.0
16.194731121 3325.0
16.220991686 2531.0
16.247252252 2191.0
16.273512817 2163.0
16.299773382 2040.0
16.326033948 2028.0
16.352294513 2038.0
16.378555079 1991.0
16.404815644 2057.0
16.431076209 1996.0
16.457336775 1977.0
16.483597340 1948.0
16.509857905 2049.0
16.536118471 2071.0
16.562379036 1940.0
16.588639601 2026.0
16.614900167 2097.0
16.641160732 2087.0
16.667421297 2031.0
16.693681863 2104.0
16.719942428 2052.0
16.746202994 2042.0
16.772463559 2141.0
16.798724124 2138.0
16.824984690 2177.0
16.851245255 2035.0
16.877505820 2168.0
16.903766386 2147.0
16.930026951 2075.0
16.956287516 2209.0
16.982548082 2236.0
17.008808647 2136.0
17.035069212 2185.0
17.061329778 2187.0
17.087590343 2170.0
17.113850908 2166.0
17.140111474 2212.0
17.166372039 2210.0
17.192632605 2195.0
17.218893170 2249.0
17.245153735 2270.0
17.271414301 2309.0
17.297674866 2283.0
17.323935431 2217.0
17.350195997 2310.0
17.376456562 2373.0
17.402717127 2415.0
17.428977693 2415.0
17.455238258 2462.0
17.481498823 2470.0
17.507759389 2614.0
17.534019954 2594.0
17.560280520 2473.0
17.586541085 2488.0
17.612801650 2358.0
17.639062216 2446.0
17.665322781 2374.0
17.691583346 2365.0
17.717843912 2467.0
17.744104477 2292.0
17.770365042 2339.0
17.796625608 2254.0
17.822886173 2263.0
17.849146738 2224.0
17.875407304 2280.0
17.901667869 2092.0
17.927928434 2153.0
17.954189000 2158.0
17.980449565 2155.0
18.006710131 2201.0
18.032970696 2178.0
18.059231261 2151.0
18.085491827 2104.0
18.111752392 2088.0
18.138012957 2143.0
18.164273523 2146.0
18.190534088 2066.0
18.216794653 1954.0
18.243055219 2036.0
18.269315784 2074.0
18.295576349 2136.0
18.321836915 2146.0
18.348097480 2102.0
18.374358046 2122.0
18.400618611 2190.0
18.426879176 2136.0
18.453139742 2109.0
18.479400307 2099.0
18.505660872 2082.0
18.531921438 2064.0
18.558182003 2031.0
18.584442568 1966.0
18.610703134 2061.0
18.636963699 2099.0
18.663224264 2062.0
18.689484830 2070.0
18.715745395 2042.0
18.742005960 2091.0
18.768266526 2122.0
18.794527091 2073.0
18.820787657 2057.0
18.847048222 2072.0
18.873308787 2223.0
18.899569353 2175.0
18.925829918 2171.0
18.952090483 2091.0
18.978351049 2112.0
19.004611614 2114.0
19.030872179 2043.0
19.057132745 2073.0
19.083393310 2052.0
19.109653875 2037.0
19.135914441 2000.0
19.162175006 2067.0
19.188435572 2061.0
19.214696137 1982.0
19.240956702 2040.0
19.267217268 2085.0
19.293477833 1981.0
19.319738398 2022.0
19.345998964 2068.0
19.372259529 2020.0
19.398520094 2076.0
19.424780660 2028.0
19.451041225 2063.0
19.477301790 2105.0
19.503562356 2068.0
19.529822921 2045.0
19.556083486 2027.0
19.582344052 2062.0
19.608604617 2065.0
19.634865183 2121.0
19.661125748 2181.0
19.687386313 2048.0
19.713646879 2025.0
19.739907444 2134.0
19.766168009 2067.0
19.792428575 2113.0
19.818689140 2179.0
19.844949705 2221.0
19.871210271 2274.0
19.897470836 2444.0
19.923731401 2596.0
19.949991967 2981.0
19.976252532 3371.0
20.002513098 3758.0
20.028773663 4071.0
20.055034228 4351.0
20.081294794 4586.0
20.107555359 5158.0
20.133815924 5836.0
20.160076490 6705.0
20.186337055 6846.0
20.212597620 5633.0
20.238858186 4591.0
20.265118751 3412.0
20.291379316 2704.0
20.317639882 2498.0
20.343900447 2449.0
20.370161012 2263.0
20.396421578 2127.0
20.422682143 2084.0
20.448942709 2067.0
20.475203274 1972.0
20.501463839 2024.0
20.527724405 2039.0
20.553984970 2007.0
20.580245535 2033.0
20.606506101 2013.0
20.632766666 2028.0
20.659027231 1958.0
20.685287797 1905.0
20.711548362 1978.0
20.737808927 1958.0
20.764069493 1943.0
20.790330058 1986.0
20.816590623 2049.0
20.842851189 1939.0
20.869111754 1929.0
20.895372320 1964.0
20.921632885 1967.0
20.947893450 1892.0
20.974154016 1984.0
21.000414581 2008.0
21.026675146 1958.0
21.052935712 1956.0
21.079196277 1987.0
21.105456842 2055.0
21.131717408 1995.0
21.157977973 2032.0
21.184238538 2076.0
21.210499104 2092.0
21.236759669 2112.0
21.263020235 2239.0
21.289280800 2112.0
21.315541365 2119.0
21.341801931 2145.0
21.368062496 2160.0
21.394323061 2166.0
21.420583627 2135.0
21.446844192 2045.0
21.473104757 2010.0
21.499365323 1971.0
21.525625888 1989.0
21.551886453 1960.0
21.578147019 1963.0
21.604407584 2008.0
21.630668149 2041.0
21.656928715 1907.0
21.683189280 1997.0
21.709449846 2050.0
21.735710411 1964.0
21.761970976 1976.0
21.788231542 2046.0
21.814492107 1966.0
21.840752672 2048.0
21.867013238 2055.0
21.893273803 2021.0
21.919534368 2054.0
21.945794934 2107.0
21.972055499 1994.0
21.998316064 2019.0
22.024576630 2015.0
22.050837195 2091.0
22.077097761 2094.0
22.103358326 1912.0
22.129618891 2021.0
22.155879457 2001.0
22.182140022 2031.0
22.208400587 1949.0
22.234661153 1987.0
22.260921718 1983.0
22.287182283 2087.0
22.313442849 2073.0
22.339703414 1995.0
22.365963979 2055.0
22.392224545 2076.0
22.418485110 2033.0
22.444745675 2083.0
22.471006241 2082.0
22.497266806 2036.0
22.523527372 2088.0
22.549787937 2123.0
22.576048502 2045.0
22.602309068 2013.0
22.628569633 2056.0
22.654830198 2035.0
22.681090764 2050.0
22.707351329 2011.0
22.733611894 2005.0
22.759872460 2005.0
22.786133025 2024.0
22.812393590 1896.0
22.838654156 2014.0
22.864914721 1935.0
22.891175287 2023.0
22.917435852 2002.0
22.943696417 1961.0
22.969956983 2052.0
22.996217548 1980.0
23.022478113 2059.0
23.048738679 2062.0
23.074999244 2099.0
23.101259809 2032.0
23.127520375 1937.0
23.153780940 2109.0
23.180041505 1959.0
23.206302071 2062.0
23.232562636 1924.0
23.258823201 2007.0
23.285083767 1971.0
23.311344332 2058.0
23.337604898 1998.0
23.363865463 1939.0
23.390126028 1932.0
23.416386594 1896.0
23.442647159 2052.0
23.468907724 1923.0
23.495168290 1953.0
23.521428855 2020.0
23.547689420 1948.0
23.573949986 2000.0
23.600210551 1920.0
23.626471116 1981.0
23.652731682 1925.0
23.678992247 2013.0
23.705252813 1992.0
23.731513378 1998.0
23.757773943 2082.0
23.784034509 2149.0
23.810295074 2238.0
23.836555639 2381.0
23.862816205 2694.0
23.889076770 2748.0
23.915337335 3084.0
23.941597901 2923.0
23.967858466 3020.0
23.994119031 3444.0
24.020379597 3766.0
24.046640162 4400.0
24.072900727 4517.0
24.099161293 3660.0
24.125421858 3256.0
24.151682424 2742.0
24.177942989 2312.0
24.204203554 2058.0
24.230464120 2018.0
24.256724685 1958.0
24.282985250 1914.0
24.309245816 2015.0
24.335506381 1943.0
24.361766946 1932.0
24.388027512 1864.0
24.414288077 1944.0
24.440548642 1953.0
24.466809208 2020.0
24.493069773 1914.0
24.519330338 1991.0
24.545590904 1969.0
24.571851469 1924.0
24.598112035 1914.0
24.624372600 1874.0
24.650633165 1879.0
24.676893731 1982.0
24.703154296 1844.0
24.729414861 1865.0
24.755675427 1904.0
24.781935992 1814.0
24.808196557 1956.0
24.834457123 1907.0
24.860717688 1868.0
24.886978253 1845.0
24.913238819 1786.0
24.939499384 1777.0
24.965759950 1776.0
24.992020515 1809.0
25.018281080 1789.0
25.044541646 1863.0
25.070802211 1750.0
25.097062776 1902.0
25.123323342 1752.0
25.149583907 1764.0
25.175844472 1731.0
25.202105038 1764.0
25.228365603 1791.0
25.254626168 1721.0
25.280886734 1787.0
25.307147299 1776.0
25.333407864 1788.0
25.359668430 1860.0
25.385928995 1894.0
25.412189561 1966.0
25.438450126 2089.0
25.464710691 2173.0
25.490971257 2274.0
25.517231822 2341.0
25.543492387 2342.0
25.569752953 2202.0
25.596013518 1942.0
25.622274083 1862.0
25.648534649 1851.0
25.674795214 1862.0
25.701055779 1904.0
25.727316345 2181.0
25.753576910 2231.0
25.779837476 2680.0
25.806098041 2519.0
25.832358606 2272.0
25.858619172 2272.0
25.884879737 2139.0
25.911140302 1815.0
25.937400868 1821.0
25.963661433 1731.0
25.989921998 1680.0
26.016182564 1776.0
26.042443129 1693.0
26.068703694 1724.0
26.094964260 1711.0
26.121224825 1739.0
26.147485390 1790.0
26.173745956 1810.0
26.200006521 1850.0
26.226267087 1838.0
26.252527652 1906.0
26.278788217 2135.0
26.305048783 2230.0
26.331309348 2332.0
26.357569913 2432.0
26.383830479 2419.0
26.410091044 2426.0
26.436351609 2359.0
26.462612175 2127.0
26.488872740 2167.0
26.515133305 2121.0
26.541393871 2068.0
26.567654436 1852.0
26.593915002 1964.0
26.620175567 1953.0
26.646436132 1987.0
26.672696698 1948.0
26.698957263 1923.0
26.725217828 1845.0
26.751478394 1934.0
26.777738959 1920.0
26.803999524 1953.0
26.830260090 1952.0
26.856520655 1905.0
26.882781220 1946.0
26.909041786 2011.0
26.935302351 1823.0
26.961562916 1882.0
26.987823482 1962.0
27.014084047 1910.0
27.040344613 1790.0
27.066605178 1985.0
27.092865743 1855.0
27.119126309 1903.0
27.145386874 1939.0
27.171647439 1864.0
27.197908005 1968.0
27.224168570 2034.0
27.250429135 2019.0
27.276689701 2118.0
27.302950266 2044.0
27.329210831 1931.0
27.355471397 1890.0
27.381731962 1893.0
27.407992528 1742.0
27.434253093 1818.0
27.460513658 1759.0
27.486774224 1743.0
27.513034789 1753.0
27.539295354 1780.0
27.565555920 1688.0
27.591816485 1663.0
27.618077050 1699.0
27.644337616 1652.0
27.670598181 1670.0
27.696858746 1685.0
27.723119312 1693.0
27.749379877 1722.0
27.775640442 1675.0
27.801901008 1765.0
27.828161573 1717.0
27.854422139 1672.0
27.880682704 1631.0
27.906943269 1632.0
27.933203835 1776.0
27.959464400 1786.0
27.985724965 1748.0
28.011985531 1694.0
28.038246096 1770.0
28.064506661 1689.0
28.090767227 1683.0
28.117027792 1681.0
28.143288357 1666.0
28.169548923 1655.0
28.195809488 1681.0
28.222070054 1654.0
28.248330619 1702.0
28.274591184 1789.0
28.300851750 1681.0
28.327112315 1693.0
28.353372880 1580.0
28.379633446 1705.0
28.405894011 1719.0
28.432154576 1613.0
28.458415142 1679.0
28.484675707 1672.0
28.510936272 1676.0
28.537196838 1744.0
28.563457403 1702.0
28.589717968 1776.0
28.615978534 1863.0
28.642239099 1882.0
28.668499665 1980.0
28.694760230 1981.0
28.721020795 2012.0
28.747281361 1929.0
28.773541926 1817.0
28.799802491 1833.0
28.826063057 1699.0
28.852323622 1887.0
28.878584187 1789.0
28.904844753 1902.0
28.931105318 2095.0
28.957365883 2276.0
28.983626449 2447.0
29.009887014 2700.0
29.036147579 2840.0
29.062408145 2617.0
29.088668710 2415.0
29.114929276 2239.0
29.141189841 1962.0
29.167450406 1807.0
29.193710972 1811.0
29.219971537 1698.0
29.246232102 1685.0
29.272492668 1710.0
29.298753233 1657.0
29.325013798 1716.0
29.351274364 1701.0
29.377534929 1847.0
29.403795494 1906.0
29.430056060 1894.0
29.456316625 2127.0
29.482577191 2218.0
29.508837756 2141.0
29.535098321 2186.0
29.561358887 2130.0
29.587619452 2025.0
29.613880017 2085.0
29.640140583 2184.0
29.666401148 2290.0
29.692661713 2264.0
29.718922279 2202.0
29.745182844 2082.0
29.771443409 2052.0
29.797703975 1941.0
29.823964540 1864.0
29.850225105 1901.0
29.876485671 1974.0
29.902746236 2121.0
29.929006802 2259.0
29.955267367 2269.0
29.981527932 2221.0
30.007788498 2175.0
30.034049063 2145.0
30.060309628 1984.0
30.086570194 1923.0
30.112830759 1915.0
30.139091324 1828.0
30.165351890 1708.0
30.191612455 1839.0
30.217873020 1822.0
30.244133586 1764.0
30.270394151 1781.0
30.296654717 1814.0
30.322915282 1793.0
30.349175847 1792.0
30.375436413 1788.0
30.401696978 1915.0
30.427957543 1854.0
30.454218109 1908.0
30.480478674 1953.0
30.506739239 1996.0
30.532999805 2183.0
30.559260370 2155.0
30.585520935 2086.0
30.611781501 2027.0
30.638042066 1952.0
30.664302631 1840.0
30.690563197 1862.0
30.716823762 1892.0
30.743084328 1782.0
30.769344893 1730.0
30.795605458 1753.0
30.821866024 1858.0
30.848126589 1840.0
30.874387154 1707.0
30.900647720 1710.0
30.926908285 1756.0
30.953168850 1721.0
30.979429416 1753.0
31.005689981 1738.0
31.031950546 1836.0
31.058211112 1872.0
31.084471677 1800.0
31.110732243 1724.0
31.136992808 1869.0
31.163253373 1814.0
31.189513939 1846.0
31.215774504 1711.0
31.242035069 1747.0
31.268295635 1726.0
31.294556200 1653.0
31.320816765 1745.0
31.347077331 1709.0
31.373337896 1732.0
31.399598461 1767.0
31.425859027 1773.0
31.452119592 1866.0
31.478380157 2019.0
31.504640723 2121.0
31.530901288 2255.0
31.557161854 2537.0
31.583422419 2940.0
31.609682984 3312.0
31.635943550 3494.0
31.662204115 3121.0
31.688464680 2791.0
31.714725246 2755.0
31.740985811 2483.0
31.767246376 2297.0
31.793506942 2169.0
31.819767507 2252.0
31.846028072 2334.0
31.872288638 2555.0
31.898549203 2726.0
31.924809769 2909.0
31.951070334 2722.0
31.977330899 2500.0
32.003591465 2378.0
32.029852030 2316.0
32.056112595 2206.0
32.082373161 2100.0
32.108633726 2162.0
32.134894291 2395.0
32.161154857 2569.0
32.187415422 2757.0
32.213675987 2988.0
32.239936553 2880.0
32.266197118 2525.0
32.292457683 2466.0
32.318718249 2465.0
32.344978814 2094.0
32.371239380 1940.0
32.397499945 1831.0
32.423760510 1803.0
32.450021076 1878.0
32.476281641 1876.0
32.502542206 1954.0
32.528802772 2052.0
32.555063337 2106.0
32.581323902 2407.0
32.607584468 2546.0
32.633845033 2906.0
32.660105598 3016.0
32.686366164 2910.0
32.712626729 2859.0
32.738887295 2753.0
32.765147860 2548.0
32.791408425 2367.0
32.817668991 2402.0
32.843929556 2422.0
32.870190121 2332.0
32.896450687 2325.0
32.922711252 2246.0
32.948971817 2385.0
32.975232383 2250.0
33.001492948 2480.0
33.027753513 2764.0
33.054014079 3159.0
33.080274644 3593.0
33.106535209 3871.0
33.132795775 3784.0
33.159056340 3573.0
33.185316906 3350.0
33.211577471 3024.0
33.237838036 2747.0
33.264098602 2419.0
33.290359167 2389.0
33.316619732 2340.0
33.342880298 2231.0
33.369140863 2004.0
33.395401428 1945.0
33.421661994 1919.0
33.447922559 1917.0
33.474183124 1871.0
33.500443690 1969.0
33.526704255 1997.0
33.552964820 1982.0
33.579225386 1945.0
33.605485951 1920.0
33.631746517 1974.0
33.658007082 1926.0
33.684267647 1878.0
33.710528213 1848.0
33.736788778 1878.0
33.763049343 1949.0
33.789309909 2007.0
33.815570474 2042.0
33.841831039 1941.0
33.868091605 2130.0
33.894352170 2057.0
33.920612735 2258.0
33.946873301 2391.0
33.973133866 2438.0
33.999394432 2517.0
34.025654997 2890.0
34.051915562 3242.0
34.078176128 3446.0
34.104436693 4154.0
34.130697258 3413.0
34.156957824 2761.0
34.183218389 2880.0
34.209478954 2703.0
34.235739520 2164.0
34.262000085 2106.0
34.288260650 2015.0
34.314521216 2167.0
34.340781781 2082.0
34.367042346 2013.0
34.393302912 1914.0
34.419563477 1876.0
34.445824043 1809.0
34.472084608 1831.0
34.498345173 1859.0
34.524605739 1860.0
34.550866304 1761.0
34.577126869 1766.0
34.603387435 1766.0
34.629648000 1760.0
34.655908565 1730.0
34.682169131 1796.0
34.708429696 1672.0
34.734690261 1836.0
34.760950827 1699.0
34.787211392 1677.0
34.813471958 1711.0
34.839732523 1694.0
34.865993088 1691.0
34.892253654 1711.0
34.918514219 1694.0
34.944774784 1630.0
34.971035350 1779.0
34.997295915 1707.0
35.023556480 1708.0
35.049817046 1695.0
35.076077611 1612.0
35.102338176 1691.0
35.128598742 1717.0
35.154859307 1676.0
35.181119872 1840.0
35.207380438 1914.0
35.233641003 2153.0
35.259901569 2539.0
35.286162134 2762.0
35.312422699 2775.0
35.338683265 2849.0
35.364943830 2774.0
35.391204395 2534.0
35.417464961 2369.0
35.443725526 2155.0
35.469986091 1924.0
35.496246657 1835.0
35.522507222 1713.0
35.548767787 1601.0
35.575028353 1613.0
35.601288918 1586.0
35.627549484 1499.0
35.653810049 1649.0
35.680070614 1536.0
35.706331180 1684.0
35.732591745 1658.0
35.758852310 1605.0
35.785112876 1585.0
35.811373441 1534.0
35.837634006 1551.0
35.863894572 1588.0
35.890155137 1562.0
35.916415702 1597.0
35.942676268 1494.0
35.968936833 1513.0
35.995197398 1464.0
36.021457964 1525.0
36.047718529 1500.0
36.073979095 1457.0
36.100239660 1454.0
36.126500225 1419.0
36.152760791 1514.0
36.179021356 1370.0
36.205281921 1442.0
36.231542487 1381.0
36.257803052 1498.0
36.284063617 1443.0
36.310324183 1469.0
36.336584748 1513.0
36.362845313 1562.0
36.389105879 1463.0
36.415366444 1537.0
36.441627010 1512.0
36.467887575 1530.0
36.494148140 1575.0
36.520408706 1592.0
36.546669271 1584.0
36.572929836 1780.0
36.599190402 1986.0
36.625450967 2055.0
36.651711532 1908.0
36.677972098 1962.0
36.704232663 1925.0
36.730493228 1765.0
36.756753794 1620.0
36.783014359 1617.0
36.809274924 1487.0
36.835535490 1456.0
36.861796055 1355.0
36.888056621 1302.0
36.914317186 1338.0
36.940577751 1309.0
36.966838317 1284.0
36.993098882 1253.0
37.019359447 1367.0
37.045620013 1266.0
37.071880578 1317.0
37.098141143 1291.0
37.124401709 1352.0
37.150662274 1291.0
37.176922839 1334.0
37.203183405 1347.0
37.229443970 1250.0
37.255704535 1361.0
37.281965101 1264.0
37.308225666 1335.0
37.334486232 1228.0
37.360746797 1309.0
37.387007362 1322.0
37.413267928 1280.0
37.439528493 1310.0
37.465789058 1221.0
37.492049624 1230.0
37.518310189 1280.0
37.544570754 1183.0
37.570831320 1238.0
37.597091885 1251.0
37.623352450 1218.0
37.649613016 1183.0
37.675873581 1264.0
37.702134147 1322.0
37.728394712 1389.0
37.754655277 1360.0
37.780915843 1293.0
37.807176408 1244.0
37.833436973 1231.0
37.859697539 1198.0
37.885958104 1204.0
37.912218669 1201.0
37.938479235 1140.0
37.964739800 1118.0
37.991000365 1124.0
38.017260931 1105.0
38.043521496 1093.0
38.069782061 1106.0
38.096042627 1087.0
38.122303192 1084.0
38.148563758 1120.0
38.174824323 1155.0
38.201084888 1162.0
38.227345454 1176.0
38.253606019 1193.0
38.279866584 1267.0
38.306127150 1281.0
38.332387715 1289.0
38.358648280 1357.0
38.384908846 1397.0
38.411169411 1509.0
38.437429976 1499.0
38.463690542 1496.0
38.489951107 1536.0
38.516211673 1489.0
38.542472238 1510.0
38.568732803 1579.0
38.594993369 1652.0
38.621253934 1748.0
38.647514499 1706.0
38.673775065 1585.0
38.700035630 1559.0
38.726296195 1527.0
38.752556761 1444.0
38.778817326 1382.0
38.805077891 1337.0
38.831338457 1375.0
38.857599022 1218.0
38.883859587 1191.0
38.910120153 1243.0
38.936380718 1188.0
38.962641284 1195.0
38.988901849 1275.0
39.015162414 1186.0
39.041422980 1155.0
39.067683545 1174.0
39.093944110 1108.0
39.120204676 1168.0
39.146465241 1207.0
39.172725806 1208.0
39.198986372 1256.0
39.225246937 1240.0
39.251507502 1328.0
39.277768068 1509.0
39.304028633 1459.0
39.330289199 1385.0
39.356549764 1503.0
39.382810329 1334.0
39.409070895 1288.0
39.435331460 1236.0
39.461592025 1233.0
39.487852591 1249.0
39.514113156 1324.0
39.540373721 1460.0
39.566634287 1545.0
39.592894852 1488.0
39.619155417 1447.0
39.645415983 1398.0
39.671676548 1364.0
39.697937113 1320.0
39.724197679 1290.0
39.750458244 1332.0
39.776718810 1296.0
39.802979375 1348.0
39.829239940 1458.0
39.855500506 1421.0
39.881761071 1396.0
39.908021636 1335.0
39.934282202 1264.0
39.960542767 1279.0
39.986803332 1254.0
40.013063898 1160.0
40.039324463 1138.0
40.065585028 1148.0
40.091845594 1126.0
40.118106159 1095.0
40.144366725 1091.0
40.170627290 1141.0
40.196887855 1050.0
40.223148421 1070.0
40.249408986 1072.0
40.275669551 1030.0
40.301930117 1020.0
40.328190682 980.0
40.354451247 1029.0
40.380711813 942.0
40.406972378 995.0
40.433232943 984.0
40.459493509 1003.0
40.485754074 971.0
40.512014639 995.0
40.538275205 942.0
40.564535770 1060.0
40.590796336 917.0
40.617056901 1008.0
40.643317466 990.0
40.669578032 962.0
40.695838597 1048.0
40.722099162 1041.0
40.748359728 999.0
40.774620293 989.0
40.800880858 1027.0
40.827141424 1052.0
40.853401989 1024.0
40.879662554 1071.0
40.905923120 996.0
40.932183685 1074.0
40.958444251 1028.0
40.984704816 984.0
41.010965381 1126.0
41.037225947 1086.0
41.063486512 1055.0
41.089747077 1155.0
41.116007643 1073.0
41.142268208 1021.0
41.168528773 991.0
41.194789339 1021.0
41.221049904 979.0
41.247310469 994.0
41.273571035 1004.0
41.299831600 945.0
41.326092165 960.0
41.352352731 968.0
41.378613296 995.0
41.404873862 937.0
41.431134427 1000.0
41.457394992 962.0
41.483655558 997.0
41.509916123 871.0
41.536176688 1005.0
41.562437254 970.0
41.588697819 1049.0
41.614958384 985.0
41.641218950 1005.0
41.667479515 1027.0
41.693740080 1079.0
41.720000646 1121.0
41.746261211 1082.0
41.772521776 1179.0
41.798782342 1107.0
41.825042907 1028.0
41.851303473 1051.0
41.877564038 1081.0
41.903824603 1001.0
41.930085169 1022.0
41.956345734 953.0
41.982606299 969.0
42.008866865 969.0
42.035127430 1058.0
42.061387995 997.0
42.087648561 1144.0
42.113909126 1150.0
42.140169691 1161.0
42.166430257 1079.0
42.192690822 1075.0
42.218951388 1067.0
42.245211953 1078.0
42.271472518 1056.0
42.297733084 1060.0
42.323993649 960.0
42.350254214 922.0
42.376514780 1006.0
42.402775345 941.0
42.429035910 955.0
42.455296476 947.0
42.481557041 978.0
42.507817606 1094.0
42.534078172 1074.0
42.560338737 1084.0
42.586599302 1086.0
42.612859868 1081.0
42.639120433 1091.0
42.665380999 1152.0
42.691641564 1195.0
42.717902129 1311.0
42.744162695 1286.0
42.770423260 1111.0
42.796683825 1043.0
42.822944391 1098.0
42.849204956 1026.0
42.875465521 1048.0
42.901726087 1023.0
42.927986652 947.0
42.954247217 1034.0
42.980507783 950.0
43.006768348 962.0
43.033028914 967.0
43.059289479 961.0
43.085550044 909.0
43.111810610 1007.0
43.138071175 988.0
43.164331740 1005.0
43.190592306 1013.0
43.216852871 1045.0
43.243113436 1132.0
43.269374002 1131.0
43.295634567 1076.0
43.321895132 1086.0
43.348155698 1076.0
43.374416263 1075.0
43.400676828 1111.0
43.426937394 1064.0
43.453197959 1002.0
43.479458525 1063.0
43.505719090 1040.0
43.531979655 1158.0
43.558240221 1028.0
43.584500786 1115.0
43.610761351 1129.0
43.637021917 1092.0
43.663282482 1158.0
43.689543047 1034.0
43.715803613 1048.0
43.742064178 1103.0
43.768324743 1055.0
43.794585309 1020.0
43.820845874 1078.0
43.847106440 1056.0
43.873367005 1043.0
43.899627570 1039.0
43.925888136 1018.0
43.952148701 1042.0
43.978409266 976.0
44.004669832 957.0
44.030930397 959.0
44.057190962 974.0
44.083451528 944.0
44.109712093 965.0
44.135972658 915.0
44.162233224 1002.0
44.188493789 964.0
44.214754354 977.0
44.241014920 941.0
44.267275485 936.0
44.293536051 997.0
44.319796616 933.0
44.346057181 947.0
44.372317747 929.0
44.398578312 966.0
44.424838877 938.0
44.451099443 946.0
44.477360008 958.0
44.503620573 955.0
44.529881139 966.0
44.556141704 964.0
44.582402269 972.0
44.608662835 941.0
44.634923400 969.0
44.661183966 987.0
44.687444531 917.0
44.713705096 963.0
44.739965662 985.0
44.766226227 1000.0
44.792486792 995.0
44.818747358 1023.0
44.845007923 1008.0
44.871268488 959.0
44.897529054 998.0
44.923789619 1057.0
44.950050184 1158.0
44.976310750 1212.0
45.002571315 1217.0
45.028831880 1340.0
45.055092446 1245.0
45.081353011 1134.0
45.107613577 1173.0
45.133874142 1137.0
45.160134707 1079.0
45.186395273 1007.0
45.212655838 931.0
45.238916403 973.0
45.265176969 884.0
45.291437534 928.0
45.317698099 891.0
45.343958665 884.0
45.370219230 917.0
45.396479795 913.0
45.422740361 870.0
45.449000926 890.0
45.475261492 890.0
45.501522057 919.0
45.527782622 875.0
45.554043188 916.0
45.580303753 875.0
45.606564318 906.0
45.632824884 923.0
45.659085449 892.0
45.685346014 964.0
45.711606580 924.0
45.737867145 968.0
45.764127710 866.0
45.790388276 951.0
45.816648841 989.0
45.842909406 922.0
45.869169972 918.0
45.895430537 911.0
45.921691103 997.0
45.947951668 914.0
45.974212233 957.0
46.000472799 1033.0
46.026733364 984.0
46.052993929 1028.0
46.079254495 956.0
46.105515060 911.0
46.131775625 944.0
46.158036191 1020.0
46.184296756 967.0
46.210557321 952.0
46.236817887 960.0
46.263078452 968.0
46.289339017 915.0
46.315599583 1015.0
46.341860148 967.0
46.368120714 969.0
46.394381279 1048.0
46.420641844 939.0
46.446902410 1112.0
46.473162975 1054.0
46.499423540 1114.0
46.525684106 1076.0
46.551944671 1189.0
46.578205236 1173.0
46.604465802 1206.0
46.630726367 1230.0
46.656986932 1295.0
46.683247498 1236.0
46.709508063 1162.0
46.735768629 1151.0
46.762029194 1161.0
46.788289759 1092.0
46.814550325 1125.0
46.840810890 1072.0
46.867071455 1049.0
46.893332021 966.0
46.919592586 957.0
46.945853151 926.0
46.972113717 979.0
46.998374282 946.0
47.024634847 964.0
47.050895413 1003.0
47.077155978 1069.0
47.103416543 995.0
47.129677109 1063.0
47.155937674 1104.0
47.182198240 1139.0
47.208458805 1191.0
47.234719370 1140.0
47.260979936 1225.0
47.287240501 1157.0
47.313501066 1172.0
47.339761632 1194.0
47.366022197 1141.0
47.392282762 1129.0
47.418543328 1220.0
47.444803893 1187.0
47.471064458 1234.0
47.497325024 1346.0
47.523585589 1283.0
47.549846155 1317.0
47.576106720 1255.0
47.602367285 1266.0
47.628627851 1182.0
47.654888416 1174.0
47.681148981 1088.0
47.707409547 1106.0
47.733670112 984.0
47.759930677 989.0
47.786191243 959.0
47.812451808 984.0
47.838712373 995.0
47.864972939 925.0
47.891233504 888.0
47.917494069 961.0
47.943754635 949.0
47.970015200 930.0
47.996275766 942.0
48.022536331 904.0
48.048796896 942.0
48.075057462 892.0
48.101318027 906.0
48.127578592 859.0
48.153839158 911.0
48.180099723 863.0
48.206360288 864.0
48.232620854 864.0
48.258881419 927.0
48.285141984 862.0
48.311402550 880.0
48.337663115 881.0
48.363923681 912.0
48.390184246 846.0
48.416444811 859.0
48.442705377 924.0
48.468965942 879.0
48.495226507 931.0
48.521487073 801.0
48.547747638 908.0
48.574008203 876.0
48.600268769 870.0
48.626529334 922.0
48.652789899 917.0
48.679050465 951.0
48.705311030 930.0
48.731571595 885.0
48.757832161 924.0
48.784092726 939.0
48.810353292 928.0
48.836613857 942.0
48.862874422 922.0
48.889134988 900.0
48.915395553 958.0
48.941656118 853.0
48.967916684 888.0
48.994177249 819.0
49.020437814 895.0
49.046698380 876.0
49.072958945 871.0
49.099219510 940.0
49.125480076 995.0
49.151740641 920.0
49.178001207 912.0
49.204261772 852.0
49.230522337 877.0
49.256782903 851.0
49.283043468 886.0
49.309304033 859.0
49.335564599 841.0
49.361825164 730.0
49.388085729 798.0
49.414346295 778.0
49.440606860 804.0
49.466867425 799.0
49.493127991 784.0
49.519388556 758.0
49.545649121 762.0
49.571909687 761.0
49.598170252 770.0
49.624430818 858.0
49.650691383 796.0
49.676951948 854.0
49.703212514 880.0
49.729473079 830.0
49.755733644 852.0
49.781994210 844.0
49.808254775 862.0
49.834515340 790.0
49.860775906 831.0
49.887036471 821.0
49.913297036 737.0
49.939557602 799.0
49.965818167 790.0
49.992078733 791.0
50.018339298 780.0
50.044599863 776.0
50.070860429 764.0
50.097120994 773.0
50.123381559 803.0
50.149642125 812.0
50.175902690 784.0
50.202163255 814.0
50.228423821 808.0
50.254684386 801.0
50.280944951 857.0
50.307205517 798.0
50.333466082 854.0
50.359726647 841.0
50.385987213 768.0
50.412247778 852.0
50.438508344 841.0
50.464768909 913.0
50.491029474 845.0
50.517290040 932.0
50.543550605 888.0
50.569811170 944.0
50.596071736 1022.0
50.622332301 1004.0
50.648592866 944.0
50.674853432 948.0
50.701113997 925.0
50.727374562 898.0
50.753635128 850.0
50.779895693 871.0
50.806156258 825.0
50.832416824 856.0
50.858677389 815.0
50.884937955 817.0
50.911198520 807.0
50.937459085 778.0
50.963719651 707.0
50.989980216 749.0
51.016240781 742.0
51.042501347 753.0
51.068761912 690.0
51.095022477 713.0
51.121283043 721.0
51.147543608 756.0
51.173804173 745.0
51.200064739 739.0
51.226325304 726.0
51.252585870 721.0
51.278846435 726.0
51.305107000 699.0
51.331367566 698.0
51.357628131 689.0
51.383888696 712.0
51.410149262 701.0
51.436409827 699.0
51.462670392 701.0
51.488930958 767.0
51.515191523 746.0
51.541452088 718.0
51.567712654 750.0
51.593973219 745.0
51.620233784 786.0
51.646494350 801.0
51.672754915 762.0
51.699015481 816.0
51.725276046 847.0
51.751536611 923.0
51.777797177 817.0
51.804057742 776.0
51.830318307 825.0
51.856578873 863.0
51.882839438 811.0
51.909100003 806.0
51.935360569 915.0
51.961621134 1009.0
51.987881699 1141.0
52.014142265 1110.0
52.040402830 1014.0
52.066663396 923.0
52.092923961 939.0
52.119184526 983.0
52.145445092 878.0
52.171705657 833.0
52.197966222 807.0
52.224226788 820.0
52.250487353 732.0
52.276747918 736.0
52.303008484 667.0
52.329269049 767.0
52.355529614 700.0
52.381790180 788.0
52.408050745 716.0
52.434311310 751.0
52.460571876 716.0
52.486832441 757.0
52.513093007 719.0
52.539353572 716.0
52.565614137 757.0
52.591874703 724.0
52.618135268 734.0
52.644395833 806.0
52.670656399 805.0
52.696916964 839.0
52.723177529 856.0
52.749438095 803.0
52.775698660 815.0
52.801959225 845.0
52.828219791 831.0
52.854480356 875.0
52.880740922 849.0
52.907001487 939.0
52.933262052 854.0
52.959522618 890.0
52.985783183 900.0
53.012043748 1037.0
53.038304314 923.0
53.064564879 936.0
53.090825444 917.0
53.117086010 838.0
53.143346575 884.0
53.169607140 849.0
53.195867706 874.0
53.222128271 883.0
53.248388836 796.0
53.274649402 743.0
53.300909967 725.0
53.327170533 731.0
53.353431098 795.0
53.379691663 711.0
53.405952229 735.0
53.432212794 741.0
53.458473359 795.0
53.484733925 800.0
53.510994490 739.0
53.537255055 741.0
53.563515621 750.0
53.589776186 720.0
53.616036751 729.0
53.642297317 758.0
53.668557882 750.0
53.694818448 765.0
53.721079013 716.0
53.747339578 689.0
53.773600144 739.0
53.799860709 707.0
53.826121274 733.0
53.852381840 740.0
53.878642405 759.0
53.904902970 763.0
53.931163536 802.0
53.957424101 796.0
53.983684666 757.0
54.009945232 787.0
54.036205797 790.0
54.062466362 759.0
54.088726928 788.0
54.114987493 777.0
54.141248059 793.0
54.167508624 807.0
54.193769189 754.0
54.220029755 793.0
54.246290320 780.0
54.272550885 809.0
54.298811451 819.0
54.325072016 819.0
54.351332581 825.0
54.377593147 750.0
54.403853712 860.0
54.430114277 874.0
54.456374843 859.0
54.482635408 892.0
54.508895973 915.0
54.535156539 848.0
54.561417104 865.0
54.587677670 866.0
54.613938235 820.0
54.640198800 837.0
54.666459366 832.0
54.692719931 813.0
54.718980496 842.0
54.745241062 815.0
54.771501627 789.0
54.797762192 782.0
54.824022758 819.0
54.850283323 862.0
54.876543888 967.0
54.902804454 947.0
54.929065019 866.0
54.955325585 837.0
54.981586150 854.0
55.007846715 856.0
55.034107281 822.0
55.060367846 877.0
55.086628411 780.0
55.112888977 777.0
55.139149542 779.0
55.165410107 762.0
55.191670673 775.0
55.217931238 752.0
55.244191803 748.0
55.270452369 734.0
55.296712934 729.0
55.322973499 765.0
55.349234065 815.0
55.375494630 744.0
55.401755196 720.0
55.428015761 736.0
55.454276326 673.0
55.480536892 722.0
55.506797457 711.0
55.533058022 727.0
55.559318588 675.0
55.585579153 695.0
55.611839718 682.0
55.638100284 673.0
55.664360849 649.0
55.690621414 637.0
55.716881980 702.0
55.743142545 647.0
55.769403111 638.0
55.795663676 724.0
55.821924241 658.0
55.848184807 690.0
55.874445372 716.0
55.900705937 726.0
55.926966503 697.0
55.953227068 667.0
55.979487633 698.0
56.005748199 699.0
56.032008764 695.0
56.058269329 690.0
56.084529895 729.0
56.110790460 749.0
56.137051025 700.0
56.163311591 757.0
56.189572156 784.0
56.215832722 719.0
56.242093287 683.0
56.268353852 669.0
56.294614418 706.0
56.320874983 681.0
56.347135548 701.0
56.373396114 643.0
56.399656679 648.0
56.425917244 671.0
56.452177810 613.0
56.478438375 710.0
56.504698940 623.0
56.530959506 697.0
56.557220071 676.0
56.583480637 711.0
56.609741202 646.0
56.636001767 686.0
56.662262333 726.0
56.688522898 711.0
56.714783463 706.0
56.741044029 722.0
56.767304594 739.0
56.793565159 709.0
56.819825725 688.0
56.846086290 665.0
56.872346855 687.0
56.898607421 674.0
56.924867986 621.0
56.951128551 688.0
56.977389117 668.0
57.003649682 676.0
57.029910248 644.0
57.056170813 635.0
57.082431378 646.0
57.108691944 635.0
57.134952509 738.0
57.161213074 677.0
57.187473640 662.0
57.213734205 715.0
57.239994770 706.0
57.266255336 678.0
57.292515901 703.0
57.318776466 680.0
57.345037032 704.0
57.371297597 677.0
57.397558163 674.0
57.423818728 694.0
57.450079293 704.0
57.476339859 651.0
57.502600424 662.0
57.528860989 683.0
57.555121555 661.0
57.581382120 717.0
57.607642685 709.0
57.633903251 653.0
57.660163816 702.0
57.686424381 727.0
57.712684947 753.0
57.738945512 760.0
57.765206077 827.0
57.791466643 905.0
57.817727208 948.0
57.843987774 900.0
57.870248339 910.0
57.896508904 844.0
57.922769470 851.0
57.949030035 812.0
57.975290600 815.0
58.001551166 743.0
58.027811731 759.0
58.054072296 708.0
58.080332862 685.0
58.106593427 661.0
58.132853992 668.0
58.159114558 644.0
58.185375123 629.0
58.211635689 636.0
58.237896254 682.0
58.264156819 657.0
58.290417385 658.0
58.316677950 646.0
58.342938515 608.0
58.369199081 639.0
58.395459646 565.0
58.421720211 582.0
58.447980777 630.0
58.474241342 594.0
58.500501907 613.0
58.526762473 645.0
58.553023038 649.0
58.579283603 599.0
58.605544169 640.0
58.631804734 641.0
58.658065300 611.0
58.684325865 658.0
58.710586430 612.0
58.736846996 671.0
58.763107561 671.0
58.789368126 655.0
58.815628692 647.0
58.841889257 716.0
58.868149822 737.0
58.894410388 756.0
58.920670953 703.0
58.946931518 773.0
58.973192084 681.0
58.999452649 695.0
59.025713214 683.0
59.051973780 700.0
59.078234345 786.0
59.104494911 736.0
59.130755476 693.0
59.157016041 730.0
59.183276607 706.0
59.209537172 716.0
59.235797737 700.0
59.262058303 683.0
59.288318868 716.0
59.314579433 650.0
59.340839999 691.0
59.367100564 744.0
59.393361129 697.0
59.419621695 736.0
59.445882260 670.0
59.472142826 675.0
59.498403391 672.0
59.524663956 691.0
59.550924522 686.0
59.577185087 659.0
59.603445652 677.0
59.629706218 720.0
59.655966783 680.0
59.682227348 733.0
59.708487914 721.0
59.734748479 748.0
59.761009044 732.0
59.787269610 703.0
59.813530175 701.0
59.839790740 687.0
59.866051306 686.0
59.892311871 669.0
59.918572437 656.0
59.944833002 691.0
59.971093567 700.0
59.997354133 693.0
60.023614698 615.0
60.049875263 654.0
60.076135829 656.0
60.102396394 683.0
60.128656959 649.0
60.154917525 678.0
60.181178090 685.0
60.207438655 669.0
60.233699221 611.0
60.259959786 669.0
60.286220352 634.0
60.312480917 606.0
60.338741482 692.0
60.365002048 680.0
60.391262613 706.0
60.417523178 676.0
60.443783744 669.0
60.470044309 689.0
60.496304874 671.0
60.522565440 636.0
60.548826005 660.0
60.575086570 630.0
60.601347136 668.0
60.627607701 722.0
60.653868266 715.0
60.680128832 667.0
60.706389397 626.0
60.732649963 690.0
60.758910528 748.0
60.785171093 685.0
60.811431659 710.0
60.837692224 690.0
60.863952789 707.0
60.890213355 705.0
60.916473920 654.0
60.942734485 660.0
60.968995051 660.0
60.995255616 712.0
61.021516181 679.0
61.047776747 717.0
61.074037312 726.0
61.100297878 731.0
61.126558443 701.0
61.152819008 783.0
61.179079574 810.0
61.205340139 743.0
61.231600704 766.0
61.257861270 745.0
61.284121835 734.0
61.310382400 742.0
61.336642966 753.0
61.362903531 734.0
61.389164096 723.0
61.415424662 753.0
61.441685227 701.0
61.467945792 752.0
61.494206358 687.0
61.520466923 803.0
61.546727489 713.0
61.572988054 679.0
61.599248619 700.0
61.625509185 690.0
61.651769750 794.0
61.678030315 789.0
61.704290881 726.0
61.730551446 750.0
61.756812011 718.0
61.783072577 718.0
61.809333142 734.0
61.835593707 768.0
61.861854273 715.0
61.888114838 721.0
61.914375404 709.0
61.940635969 667.0
61.966896534 685.0
61.993157100 697.0
62.019417665 718.0
62.045678230 686.0
62.071938796 665.0
62.098199361 665.0
62.124459926 665.0
62.150720492 649.0
62.176981057 681.0
62.203241622 709.0
62.229502188 704.0
62.255762753 663.0
62.282023318 661.0
62.308283884 701.0
62.334544449 716.0
62.360805015 678.0
62.387065580 661.0
62.413326145 673.0
62.439586711 659.0
62.465847276 660.0
62.492107841 686.0
62.518368407 618.0
62.544628972 621.0
62.570889537 646.0
62.597150103 643.0
62.623410668 696.0
62.649671233 664.0
62.675931799 633.0
62.702192364 657.0
62.728452930 681.0
62.754713495 733.0
62.780974060 734.0
62.807234626 707.0
62.833495191 680.0
62.859755756 711.0
62.886016322 721.0
62.912276887 758.0
62.938537452 694.0
62.964798018 715.0
62.991058583 707.0
63.017319148 641.0
63.043579714 697.0
63.069840279 694.0
63.096100844 660.0
63.122361410 668.0
63.148621975 653.0
63.174882541 620.0
63.201143106 616.0
63.227403671 569.0
63.253664237 605.0
63.279924802 579.0
63.306185367 620.0
63.332445933 614.0
63.358706498 536.0
63.384967063 629.0
63.411227629 624.0
63.437488194 588.0
63.463748759 623.0
63.490009325 566.0
63.516269890 574.0
63.542530455 583.0
63.568791021 604.0
63.595051586 606.0
63.621312152 627.0
63.647572717 615.0
63.673833282 664.0
63.700093848 623.0
63.726354413 639.0
63.752614978 603.0
63.778875544 671.0
63.805136109 606.0
63.831396674 627.0
63.857657240 628.0
63.883917805 602.0
63.910178370 644.0
63.936438936 622.0
63.962699501 637.0
63.988960067 591.0
64.015220632 649.0
64.041481197 596.0
64.067741763 601.0
64.094002328 630.0
64.120262893 628.0
64.146523459 621.0
64.172784024 601.0
64.199044589 647.0
64.225305155 581.0
64.251565720 605.0
64.277826285 600.0
64.304086851 591.0
64.330347416 600.0
64.356607981 563.0
64.382868547 561.0
64.409129112 562.0
64.435389678 607.0
64.461650243 580.0
64.487910808 609.0
64.514171374 599.0
64.540431939 593.0
64.566692504 589.0
64.592953070 599.0
64.619213635 623.0
64.645474200 630.0
64.671734766 613.0
64.697995331 593.0
64.724255896 605.0
64.750516462 589.0
64.776777027 617.0
64.803037593 568.0
64.829298158 589.0
64.855558723 570.0
64.881819289 593.0
64.908079854 570.0
64.934340419 566.0
64.960600985 583.0
64.986861550 611.0
