5.00773 156.3
5.033991 156.3
5.060252 276.9
5.086513 221.1
5.112774 184.6
5.139035 63.9
5.165296 204.7
5.191557 68.5
5.217818 127.8
5.244079 20.0
5.27034 78.7
5.296601 50.8
5.322862 128.1
5.349123 56.2
5.375384 114.0
5.401645 80.7
5.427906 64.6
5.454167 59.1
5.480428 163.3
5.506689 7.2
5.53295 0.0
5.559211 50.6
5.585472 34.8
5.611733 0.0
5.637994 57.6
5.664255 123.7
5.690516 0.0
5.716777 0.0
5.743038 0.0
5.769299 106.2
5.79556 0.0
5.821821 0.0
5.848082 48.7
5.874343 0.0
5.900604 30.2
5.926865 0.0
5.953126 18.4
5.979387 0.0
6.005648 0.0
6.031909 0.0
6.05817 74.3
6.084431 0.0
6.110692 94.1
6.136953 0.0
6.163214 58.1
6.189475 33.6
6.215736 0.0
6.241997 0.0
6.268258 96.1
6.294519 47.3
6.32078 0.0
6.347041 0.0
6.373302 32.6
6.399563 77.9
6.425824 0.0
6.452085 14.0
6.478346 92.5
6.504607 0.0
6.530868 0.0
6.557129 24.3
6.58339 0.0
6.609651 90.3
6.635912 37.1
6.662173 75.6
6.688434 0.0
6.714695 0.0
6.740956 23.9
6.767217 0.0
6.793478 0.0
6.819739 69.9
6.846 0.0
6.872261 78.9
6.898522 0.0
6.924783 5.9
6.951044 68.3
6.977305 0.0
7.003566 50.1
7.029827 0.0
7.056088 0.0
7.082349 31.8
7.10861 63.7
7.134871 15.7
7.161132 65.9
7.187393 47.5
7.213654 0.0
7.239915 96.2
7.266176 42.1
7.292437 0.0
7.318698 138.5
7.344959 77.8
7.37122 22.6
7.397481 161.8
7.423742 85.7
7.450003 158.6
7.476264 0.0
7.502525 97.4
7.528786 85.9
7.555047 16.9
7.581308 105.8
7.607569 77.9
7.63383 141.1
7.660091 134.3
7.686352 66.4
7.712613 31.1
7.738874 222.1
7.765135 37.0
7.791396 46.5
7.817657 45.1
7.843918 110.4
7.870179 158.9
7.89644 208.4
7.922701 3.7
7.948962 129.1
7.975223 164.5
8.001484 68.7
8.027745 163.3
8.054006 153.9
8.080267 55.2
8.106528 132.9
8.132789 112.0
8.15905 176.9
8.185311 66.6
8.211572 174.4
8.237833 243.7
8.264094 182.8
8.290355 176.4
8.316616 167.3
8.342877 157.4
8.369138 206.1
8.395399 86.1
8.42166 305.6
8.447921 177.4
8.474182 314.4
8.500443 228.6
8.526704 172.7
8.552965 236.0
8.579226 239.2
8.605487 268.7
8.631748 316.6
8.658009 172.2
8.68427 277.0
8.710531 252.8
8.736792 292.0
8.763053 281.1
8.789314 285.5
8.815575 324.0
8.841836 338.1
8.868097 314.6
8.894358 380.6
8.920619 348.0
8.94688 315.5
8.973141 257.9
8.999402 287.9
9.025663 400.2
9.051924 441.2
9.078185 216.9
9.104446 440.1
9.130707 285.7
9.156968 250.6
9.183229 360.2
9.20949 327.3
9.235751 382.8
9.262012 367.7
9.288273 267.9
9.314534 395.6
9.340795 435.2
9.367056 366.5
9.393317 525.5
9.419578 304.0
9.445839 409.6
9.4721 482.7
9.498361 420.2
9.524622 458.8
9.550883 375.5
9.577144 446.6
9.603405 368.3
9.629666 505.3
9.655927 299.8
9.682188 567.6
9.708449 383.9
9.73471 427.2
9.760971 398.5
9.787232 511.0
9.813493 499.3
9.839754 396.5
9.866015 469.6
9.892276 516.8
9.918537 473.3
9.944798 358.7
9.971059 520.8
9.99732 354.4
10.02358 659.8
10.04984 398.2
10.0761 559.3
10.10236 420.6
10.12862 600.0
10.15489 535.4
10.18115 560.8
10.20741 416.8
10.23367 572.5
10.25993 419.0
10.28619 514.7
10.31245 645.2
10.33871 463.6
10.36497 537.1
10.39124 480.3
10.4175 516.5
10.44376 523.7
10.47002 565.3
10.49628 574.9
10.52254 505.5
10.5488 633.2
10.57506 610.6
10.60132 756.6
10.62758 520.4
10.65384 684.5
10.68011 500.0
10.70637 748.7
10.73263 552.3
10.75889 574.1
10.78515 676.7
10.81141 626.6
10.83767 681.7
10.86393 575.9
10.89019 614.2
10.91646 752.7
10.94272 582.6
10.96898 737.6
10.99524 569.3
11.0215 692.3
11.04776 689.9
11.07402 485.2
11.10028 687.3
11.12654 675.7
11.1528 662.7
11.17906 619.4
11.20533 683.3
11.23159 692.1
11.25785 616.1
11.28411 762.3
11.31037 517.6
11.33663 741.4
11.36289 663.0
11.38915 616.4
11.41541 739.2
11.44168 574.4
11.46794 660.4
11.4942 673.0
11.52046 586.6
11.54672 673.3
11.57298 670.7
11.59924 662.8
11.6255 700.7
11.65176 629.5
11.67802 751.5
11.70428 566.5
11.73055 781.8
11.75681 543.6
11.78307 620.2
11.80933 659.0
11.83559 570.6
11.86185 703.0
11.88811 594.3
11.91437 672.1
11.94063 390.9
11.9669 650.2
11.99316 537.1
12.01942 597.8
12.04568 526.1
12.07194 634.5
12.0982 550.9
12.12446 617.4
12.15072 498.8
12.17698 497.8
12.20324 485.8
12.2295 668.1
12.25577 466.0
12.28203 503.3
12.30829 478.9
12.33455 552.9
12.36081 447.6
12.38707 524.6
12.41333 527.4
12.43959 342.4
12.46585 494.6
12.49212 507.9
12.51838 474.3
12.54464 329.7
12.5709 550.1
12.59716 362.7
12.62342 441.9
12.64968 446.1
12.67594 383.4
12.7022 548.7
12.72846 244.8
12.75473 505.0
12.78099 354.1
12.80725 454.0
12.83351 326.3
12.85977 366.8
12.88603 412.2
12.91229 380.9
12.93855 392.5
12.96481 330.4
12.99107 432.6
13.01733 343.7
13.0436 373.0
13.06986 322.3
13.09612 316.5
13.12238 388.6
13.14864 387.9
13.1749 278.8
13.20116 313.1
13.22742 404.9
13.25368 342.1
13.27995 327.8
13.30621 221.9
13.33247 365.1
13.35873 244.5
13.38499 294.5
13.41125 280.3
13.43751 330.0
13.46377 186.5
13.49003 295.4
13.51629 295.2
13.54255 312.1
13.56882 185.5
13.59508 227.1
13.62134 326.3
13.6476 273.7
13.67386 346.6
13.70012 273.4
13.72638 207.0
13.75264 260.4
13.7789 271.5
13.80517 193.6
13.83143 262.7
13.85769 250.6
13.88395 287.9
13.91021 264.4
13.93647 162.4
13.96273 254.6
13.98899 283.6
14.01525 209.8
14.04151 219.5
14.06777 257.8
14.09404 197.6
14.1203 212.8
14.14656 211.2
14.17282 325.1
14.19908 163.4
14.22534 199.6
14.2516 260.5
14.27786 227.5
14.30412 132.0
14.33039 163.2
14.35665 157.6
14.38291 190.5
14.40917 194.1
14.43543 231.7
14.46169 216.1
14.48795 251.7
14.51421 259.4
14.54047 155.1
14.56673 118.4
14.59299 207.5
14.61926 180.3
14.64552 172.8
14.67178 201.1
14.69804 183.8
14.7243 268.0
14.75056 163.1
14.77682 246.8
14.80308 232.1
14.82934 152.9
14.85561 273.7
14.88187 202.5
14.90813 67.6
14.93439 308.1
14.96065 240.9
14.98691 185.7
15.01317 120.3
15.03943 253.2
15.06569 226.3
15.09195 188.5
15.11821 236.4
15.14448 267.8
15.17074 234.0
15.197 259.8
15.22326 219.7
15.24952 210.3
15.27578 197.3
15.30204 198.3
15.3283 196.4
15.35456 222.0
15.38083 149.0
15.40709 245.8
15.43335 237.5
15.45961 224.3
15.48587 304.0
15.51213 250.6
15.53839 168.7
15.56465 286.0
15.59091 197.8
15.61717 266.2
15.64343 187.5
15.6697 225.9
15.69596 204.8
15.72222 285.8
15.74848 276.0
15.77474 235.3
15.801 164.0
15.82726 310.9
15.85352 194.2
15.87978 266.2
15.90604 273.8
15.93231 166.5
15.95857 277.4
15.98483 244.9
16.01109 207.7
16.03735 238.0
16.06361 320.8
16.08987 197.5
16.11613 285.0
16.14239 209.9
16.16866 161.5
16.19492 307.9
16.22118 337.7
16.24744 260.0
16.2737 269.2
16.29996 287.5
16.32622 245.8
16.35248 255.9
16.37874 260.2
16.405 267.3
16.43126 339.5
16.45753 220.8
16.48379 330.6
16.51005 222.9
16.53631 337.1
16.56257 232.9
16.58883 256.5
16.61509 281.7
16.64135 303.4
16.66761 323.3
16.69387 268.6
16.72014 238.6
16.7464 389.7
16.77266 278.1
16.79892 266.8
16.82518 315.3
16.85144 354.9
16.8777 335.2
16.90396 346.6
16.93022 347.2
16.95649 275.2
16.98275 329.4
17.00901 403.1
17.03527 277.1
17.06153 343.2
17.08779 358.1
17.11405 327.2
17.14031 363.8
17.16657 434.6
17.19283 398.8
17.2191 267.1
17.24536 333.6
17.27162 401.9
17.29788 365.0
17.32414 370.8
17.3504 267.4
17.37666 388.7
17.40292 437.6
17.42918 415.9
17.45544 367.8
17.4817 392.5
17.50797 400.0
17.53423 422.0
17.56049 416.4
17.58675 426.4
17.61301 394.1
17.63927 442.3
17.66553 463.2
17.69179 410.9
17.71805 418.2
17.74431 451.6
17.77058 411.4
17.79684 509.3
17.8231 420.1
17.84936 510.4
17.87562 480.9
17.90188 419.7
17.92814 533.4
17.9544 468.2
17.98066 498.3
18.00693 383.7
18.03319 547.3
18.05945 519.3
18.08571 586.3
18.11197 451.7
18.13823 433.7
18.16449 533.6
18.19075 545.4
18.21701 486.3
18.24327 587.9
18.26954 504.1
18.2958 564.2
18.32206 614.2
18.34832 467.8
18.37458 548.2
18.40084 525.9
18.4271 530.4
18.45336 528.6
18.47962 487.3
18.50588 610.0
18.53214 478.0
18.55841 576.0
18.58467 656.1
18.61093 488.4
18.63719 582.9
18.66345 605.2
18.68971 581.0
18.71597 644.0
18.74223 626.1
18.76849 514.2
18.79476 590.9
18.82102 691.8
18.84728 606.3
18.87354 586.4
18.8998 618.8
18.92606 743.8
18.95232 612.0
18.97858 622.7
19.00484 693.4
19.0311 683.7
19.05737 694.7
19.08363 716.8
19.10989 752.4
19.13615 754.3
19.16241 683.4
19.18867 667.6
19.21493 790.4
19.24119 717.2
19.26745 670.5
19.29371 783.0
19.31997 744.0
19.34624 745.4
19.3725 895.8
19.39876 795.2
19.42502 780.2
19.45128 756.3
19.47754 841.4
19.5038 683.8
19.53006 803.5
19.55632 845.9
19.58258 871.1
19.60885 794.0
19.63511 842.6
19.66137 824.4
19.68763 979.0
19.71389 861.0
19.74015 744.2
19.76641 772.8
19.79267 1027.2
19.81893 753.9
19.8452 927.9
19.87146 891.8
19.89772 865.1
19.92398 891.5
19.95024 902.2
19.9765 859.6
20.00276 872.4
20.02902 900.1
20.05528 908.9
20.08154 956.7
20.10781 893.6
20.13407 946.7
20.16033 1017.8
20.18659 892.4
20.21285 923.3
20.23911 1000.6
20.26537 1088.5
20.29163 982.4
20.31789 879.7
20.34415 919.3
20.37041 1011.6
20.39668 1111.3
20.42294 948.9
20.4492 976.5
20.47546 976.4
20.50172 1107.8
20.52798 1016.2
20.55424 924.1
20.5805 1036.4
20.60676 1095.2
20.63302 1151.5
20.65929 1101.9
20.68555 971.5
20.71181 994.6
20.73807 1164.1
20.76433 1092.3
20.79059 1034.6
20.81685 1108.0
20.84311 1091.1
20.86937 1150.2
20.89564 1103.3
20.9219 1147.4
20.94816 1222.2
20.97442 1111.1
21.00068 1036.4
21.02694 1165.5
21.0532 1226.5
21.07946 1165.3
21.10572 1132.8
21.13198 1149.6
21.15825 1339.7
21.18451 1251.5
21.21077 1108.7
21.23703 1152.8
21.26329 1311.6
21.28955 1155.5
21.31581 1135.1
21.34207 1127.9
21.36833 1202.6
21.39459 1166.9
21.42085 1197.2
21.44712 1224.6
21.47338 1247.7
21.49964 1263.4
21.5259 1212.2
21.55216 1277.6
21.57842 1389.4
21.60468 1208.2
21.63094 1180.4
21.6572 1303.6
21.68346 1416.6
21.70973 1325.4
21.73599 1307.1
21.76225 1327.5
21.78851 1296.2
21.81477 1282.1
21.84103 1293.7
21.86729 1356.9
21.89355 1308.7
21.91981 1388.1
21.94608 1444.9
21.97234 1366.2
21.9986 1291.0
22.02486 1441.2
22.05112 1466.3
22.07738 1354.5
22.10364 1253.0
22.1299 1322.0
22.15616 1415.5
22.18242 1426.0
22.20868 1413.2
22.23495 1417.9
22.26121 1322.0
22.28747 1395.1
22.31373 1378.3
22.33999 1463.9
22.36625 1376.1
22.39251 1367.1
22.41877 1380.3
22.44503 1467.0
22.47129 1310.3
22.49756 1449.0
22.52382 1479.2
22.55008 1538.9
22.57634 1436.2
22.6026 1427.1
22.62886 1428.8
22.65512 1438.5
22.68138 1449.5
22.70764 1438.9
22.73391 1457.6
22.76017 1438.4
22.78643 1410.5
22.81269 1413.7
22.83895 1441.4
22.86521 1428.7
22.89147 1427.2
22.91773 1427.0
22.94399 1443.3
22.97025 1405.5
22.99652 1459.9
23.02278 1479.1
23.04904 1423.7
23.0753 1460.5
23.10156 1456.2
23.12782 1450.0
23.15408 1380.7
23.18034 1407.6
23.2066 1459.2
23.23286 1457.7
23.25912 1374.9
23.28539 1373.5
23.31165 1437.3
23.33791 1489.7
23.36417 1455.8
23.39043 1277.3
23.41669 1264.6
23.44295 1334.7
23.46921 1520.8
23.49547 1449.3
23.52173 1168.4
23.548 1362.7
23.57426 1303.4
23.60052 1471.2
23.62678 1356.9
23.65304 1410.8
23.6793 1268.4
23.70556 1345.6
23.73182 1363.3
23.75808 1335.5
23.78435 1331.2
23.81061 1250.5
23.83687 1364.0
23.86313 1226.0
23.88939 1321.7
23.91565 1339.4
23.94191 1222.3
23.96817 1208.7
23.99443 1203.6
24.02069 1397.0
24.04696 1270.8
24.07322 1277.0
24.09948 1152.8
24.12574 1178.5
24.152 1247.5
24.17826 1334.6
24.20452 1220.0
24.23078 1251.4
24.25704 1253.2
24.2833 1237.6
24.30956 1255.6
24.33583 1180.2
24.36209 1218.8
24.38835 1222.2
24.41461 1132.4
24.44087 1218.4
24.46713 1155.7
24.49339 1218.5
24.51965 1124.2
24.54591 1173.1
24.57217 1129.6
24.59844 1103.9
24.6247 1187.5
24.65096 1104.4
24.67722 1099.6
24.70348 1185.8
24.72974 1092.6
24.756 1098.5
24.78226 1125.6
24.80852 1088.4
24.83479 1128.7
24.86105 1070.4
24.88731 1079.2
24.91357 1064.6
24.93983 1094.1
24.96609 1043.5
24.99235 1099.3
25.01861 1091.0
25.04487 1041.5
25.07113 983.2
25.09739 978.0
25.12366 1048.0
25.14992 1020.3
25.17618 983.8
25.20244 1048.6
25.2287 978.6
25.25496 984.6
25.28122 998.1
25.30748 1079.2
25.33374 1052.7
25.36 903.7
25.38627 1006.8
25.41253 1014.6
25.43879 992.0
25.46505 983.3
25.49131 979.3
25.51757 1007.4
25.54383 953.0
25.57009 939.9
25.59635 1016.6
25.62262 936.3
25.64888 969.5
25.67514 998.3
25.7014 1020.1
25.72766 925.2
25.75392 831.2
25.78018 899.1
25.80644 985.7
25.8327 895.6
25.85896 985.5
25.88523 953.6
25.91149 950.7
25.93775 1000.9
25.96401 986.1
25.99027 875.9
26.01653 881.4
26.04279 1019.7
26.06905 927.9
26.09531 913.3
26.12157 970.4
26.14783 980.1
26.1741 953.7
26.20036 932.9
26.22662 926.1
26.25288 903.4
26.27914 931.9
26.3054 912.5
26.33166 948.4
26.35792 831.6
26.38418 884.1
26.41044 978.3
26.43671 980.7
26.46297 915.6
26.48923 859.5
26.51549 863.7
26.54175 914.6
26.56801 943.7
26.59427 977.9
26.62053 900.6
26.64679 957.4
26.67306 769.6
26.69932 1001.0
26.72558 843.8
26.75184 928.6
26.7781 906.8
26.80436 902.3
26.83062 1006.3
26.85688 838.0
26.88314 836.5
26.9094 848.1
26.93567 939.8
26.96193 933.3
26.98819 921.9
27.01445 830.9
27.04071 889.4
27.06697 904.9
27.09323 890.7
27.11949 1001.1
27.14575 879.3
27.17201 838.1
27.19827 807.0
27.22454 846.0
27.2508 884.9
27.27706 953.9
27.30332 869.7
27.32958 822.1
27.35584 874.6
27.3821 958.3
27.40836 862.5
27.43462 936.1
27.46088 966.0
27.48715 892.6
27.51341 837.7
27.53967 781.7
27.56593 900.4
27.59219 937.2
27.61845 890.2
27.64471 894.8
27.67097 908.4
27.69723 928.7
27.7235 907.1
27.74976 877.5
27.77602 917.2
27.80228 837.5
27.82854 800.6
27.8548 870.5
27.88106 846.9
27.90732 807.2
27.93358 844.7
27.95984 916.0
27.9861 867.5
28.01237 838.1
28.03863 833.1
28.06489 806.7
28.09115 854.1
28.11741 954.7
28.14367 886.7
28.16993 892.8
28.19619 813.0
28.22245 949.0
28.24871 824.7
28.27498 870.7
28.30124 828.6
28.3275 837.3
28.35376 893.9
28.38002 843.6
28.40628 938.2
28.43254 770.6
28.4588 791.8
28.48506 786.0
28.51133 917.7
28.53759 925.5
28.56385 903.1
28.59011 811.1
28.61637 784.8
28.64263 805.1
28.66889 885.6
28.69515 948.5
28.72141 897.8
28.74767 749.7
28.77394 768.7
28.8002 865.5
28.82646 814.8
28.85272 830.2
28.87898 811.2
28.90524 842.9
28.9315 875.7
28.95776 854.2
28.98402 939.3
29.01028 773.3
29.03654 807.9
29.06281 798.1
29.08907 811.3
29.11533 917.1
29.14159 801.0
29.16785 804.2
29.19411 791.9
29.22037 862.5
29.24663 818.3
29.27289 891.5
29.29915 821.7
29.32542 807.3
29.35168 806.2
29.37794 843.6
29.4042 812.8
29.43046 897.5
29.45672 740.8
29.48298 840.8
29.50924 950.8
29.5355 851.9
29.56177 845.4
29.58803 691.6
29.61429 817.8
29.64055 780.6
29.66681 842.4
29.69307 800.6
29.71933 737.1
29.74559 844.4
29.77185 816.5
29.79811 836.4
29.82438 829.4
29.85064 811.7
29.8769 768.1
29.90316 745.1
29.92942 808.2
29.95568 806.9
29.98194 813.2
30.0082 780.6
30.03446 767.9
30.06072 837.4
30.08698 849.7
30.11325 797.6
30.13951 707.2
30.16577 775.4
30.19203 780.7
30.21829 815.1
30.24455 821.1
30.27081 749.5
30.29707 834.1
30.32333 781.4
30.34959 744.5
30.37586 700.0
30.40212 778.8
30.42838 878.2
30.45464 832.4
30.4809 774.6
30.50716 726.9
30.53342 666.9
30.55968 820.4
30.58594 764.3
30.61221 800.8
30.63847 760.1
30.66473 771.8
30.69099 759.3
30.71725 723.0
30.74351 734.2
30.76977 730.5
30.79603 792.2
30.82229 792.5
30.84855 781.0
30.87481 739.2
30.90108 788.0
30.92734 748.5
30.9536 756.2
30.97986 771.9
31.00612 754.2
31.03238 803.4
31.05864 748.5
31.0849 752.9
31.11116 727.8
31.13742 778.0
31.16369 727.3
31.18995 712.3
31.21621 667.1
31.24247 798.7
31.26873 704.6
31.29499 855.4
31.32125 775.0
31.34751 687.1
31.37377 662.1
31.40004 714.7
31.4263 802.1
31.45256 791.0
31.47882 742.8
31.50508 733.0
31.53134 691.4
31.5576 733.1
31.58386 694.0
31.61012 757.5
31.63638 721.5
31.66265 724.8
31.68891 786.8
31.71517 712.7
31.74143 762.4
31.76769 649.8
31.79395 732.6
31.82021 775.2
31.84647 824.6
31.87273 679.4
31.89899 713.0
31.92525 657.5
31.95152 712.7
31.97778 795.1
32.00404 688.8
32.0303 797.2
32.05656 642.4
32.08282 703.2
32.10908 701.7
32.13534 760.7
32.16161 735.5
32.18787 746.1
32.21413 666.4
32.24039 717.1
32.26665 676.0
32.29291 767.3
32.31917 789.0
32.34543 742.6
32.37169 693.5
32.39795 704.3
32.42421 669.0
32.45047 689.1
32.47673 707.1
32.503 717.8
32.52926 702.1
32.55552 680.7
32.58178 729.5
32.60804 714.8
32.6343 678.8
32.66056 723.3
32.68682 702.7
32.71309 741.5
32.73935 724.4
32.76561 658.4
32.79187 726.4
32.81813 659.3
32.84439 711.2
32.87065 693.2
32.89691 680.9
32.92317 722.8
32.94943 716.3
32.9757 732.8
33.00196 700.3
33.02822 641.1
33.05448 682.1
33.08074 676.7
33.107 734.0
33.13326 751.5
33.15952 788.6
33.18578 740.0
33.21204 665.4
33.2383 614.9
33.26456 660.6
33.29083 717.4
33.31709 772.3
33.34335 784.0
33.36961 656.7
33.39587 701.9
33.42213 641.2
33.44839 731.5
33.47466 843.1
33.50092 750.2
33.52718 690.8
33.55344 684.7
33.5797 733.1
33.60596 789.0
33.63222 720.1
33.65848 716.2
33.68474 670.1
33.711 782.4
33.73726 804.4
33.76352 817.9
33.78979 770.7
33.81605 807.2
33.84231 746.8
33.86857 810.9
33.89483 784.1
33.92109 836.1
33.94735 863.0
33.97361 781.9
33.99987 842.0
34.02613 813.3
34.05239 856.1
34.07866 932.6
34.10492 956.1
34.13118 1006.1
34.15744 881.2
34.1837 953.3
34.20996 938.5
34.23622 1075.8
34.26249 1072.1
34.28875 1024.2
34.31501 958.8
34.34127 1035.6
34.36753 1138.4
34.39379 1114.5
34.42005 1212.3
34.44631 1058.4
34.47257 1131.9
34.49883 1135.0
34.52509 1137.1
34.55135 1179.2
34.57762 1202.2
34.60388 1226.6
34.63014 1202.8
34.6564 1215.3
34.68266 1224.0
34.70892 1177.2
34.73518 1225.7
34.76144 1250.2
34.7877 1222.2
34.81396 1222.6
34.84023 1262.2
34.86649 1256.2
34.89275 1303.3
34.91901 1237.5
34.94527 1225.4
34.97153 1220.7
34.99779 1211.4
35.02405 1215.9
35.05032 1228.5
35.07658 1235.8
35.10284 1202.8
35.1291 1188.7
35.15536 1164.4
35.18162 1128.7
35.20788 1122.0
35.23414 1120.2
35.2604 1125.7
35.28666 1114.6
35.31292 1109.3
35.33918 1070.4
35.36544 1072.2
35.39171 1084.1
35.41797 1112.2
35.44423 1045.4
35.47049 1053.3
35.49675 1101.7
35.52301 1089.2
35.54927 1112.5
35.57553 984.6
35.6018 1063.8
35.62806 986.4
35.65432 1073.0
35.68058 1015.7
35.70684 978.4
35.7331 972.3
35.75936 995.7
35.78562 925.8
35.81188 963.2
35.83814 1034.6
35.86441 937.3
35.89067 1062.5
35.91693 897.2
35.94319 947.8
35.96945 1047.6
35.99571 851.8
36.02197 974.7
36.04823 869.5
36.07449 811.3
36.10075 987.4
36.12701 817.4
36.15327 909.6
36.17954 873.6
36.2058 862.9
36.23206 908.0
36.25832 876.3
36.28458 853.1
36.31084 909.6
36.3371 799.5
36.36337 785.0
36.38963 868.8
36.41589 894.1
36.44215 847.0
36.46841 763.8
36.49467 843.9
36.52093 820.0
36.54719 779.6
36.57345 760.6
36.59971 766.6
36.62597 851.4
36.65223 934.7
36.6785 825.6
36.70476 772.3
36.73102 737.8
36.75728 712.8
36.78354 781.8
36.8098 812.2
36.83606 805.0
36.86232 738.9
36.88858 740.3
36.91484 761.8
36.9411 693.9
36.96737 847.7
36.99363 757.8
37.01989 791.0
37.04615 797.8
37.07241 765.8
37.09867 729.9
37.12493 801.5
37.1512 778.5
37.17746 773.6
37.20372 750.2
37.22998 768.3
37.25624 735.1
37.2825 784.2
37.30876 757.3
37.33502 804.3
37.36128 706.6
37.38754 753.1
37.4138 716.9
37.44006 705.3
37.46633 787.3
37.49259 693.7
37.51885 846.3
37.54511 807.9
37.57137 687.7
37.59763 802.9
37.62389 710.3
37.65015 713.3
37.67641 731.4
37.70267 718.2
37.72894 786.7
37.7552 846.5
37.78146 796.4
37.80772 800.7
37.83398 804.2
37.86024 766.2
37.8865 709.0
37.91276 745.4
37.93902 692.7
37.96529 683.6
37.99155 810.1
38.01781 854.0
38.04407 836.0
38.07033 818.5
38.09659 719.4
38.12285 758.6
38.14911 789.9
38.17537 790.1
38.20163 774.1
38.22789 838.8
38.25415 720.3
38.28042 750.5
38.30668 823.5
38.33294 725.6
38.3592 799.2
38.38546 782.7
38.41172 774.6
38.43798 754.1
38.46424 794.4
38.49051 754.1
38.51677 840.8
38.54303 842.1
38.56929 717.6
38.59555 825.3
38.62181 702.9
38.64807 706.9
38.67433 813.9
38.70059 714.5
38.72685 812.0
38.75312 830.8
38.77938 778.6
38.80564 792.9
38.8319 845.5
38.85816 686.7
38.88442 786.4
38.91068 753.4
38.93694 698.9
38.9632 757.5
38.98946 759.7
39.01572 745.1
39.04198 789.9
39.06825 794.3
39.09451 750.8
39.12077 710.0
39.14703 784.9
39.17329 716.4
39.19955 760.2
39.22581 810.1
39.25208 781.5
39.27834 878.7
39.3046 743.8
39.33086 708.1
39.35712 714.1
39.38338 702.6
39.40964 707.4
39.4359 707.2
39.46216 757.5
39.48842 741.7
39.51468 774.8
39.54094 725.7
39.56721 701.1
39.59347 724.0
39.61973 682.6
39.64599 698.3
39.67225 750.7
39.69851 683.3
39.72477 705.9
39.75103 739.0
39.77729 700.6
39.80355 658.2
39.82981 725.9
39.85608 665.1
39.88234 689.6
39.9086 732.6
39.93486 698.0
39.96112 782.2
39.98738 752.7
40.01364 697.5
40.03991 710.2
40.06617 593.1
40.09243 684.5
40.11869 602.0
40.14495 694.3
40.17121 679.5
40.19747 616.8
40.22373 710.8
40.24999 704.4
40.27625 641.5
40.30251 701.6
40.32877 652.8
40.35504 679.6
40.3813 736.5
40.40756 634.3
40.43382 632.7
40.46008 670.5
40.48634 597.4
40.5126 663.6
40.53886 619.8
40.56512 636.3
40.59138 652.5
40.61765 701.6
40.64391 671.8
40.67017 599.4
40.69643 676.5
40.72269 548.7
40.74895 607.7
40.77521 616.5
40.80147 600.6
40.82773 695.0
40.854 660.3
40.88026 661.2
40.90652 639.8
40.93278 545.5
40.95904 624.8
40.9853 671.6
41.01156 613.8
41.03782 623.0
41.06408 584.9
41.09034 554.8
41.1166 618.3
41.14286 613.3
41.16913 683.8
41.19539 605.3
41.22165 616.5
41.24791 599.5
41.27417 532.6
41.30043 583.6
41.32669 551.2
41.35295 625.6
41.37922 599.8
41.40548 565.3
41.43174 628.5
41.458 612.1
41.48426 603.9
41.51052 577.8
41.53678 566.0
41.56304 540.8
41.5893 605.6
41.61556 606.7
41.64183 581.7
41.66809 579.6
41.69435 587.3
41.72061 579.7
41.74687 573.7
41.77313 586.5
41.79939 576.5
41.82565 574.4
41.85191 561.7
41.87817 619.9
41.90443 594.4
41.93069 567.2
41.95696 583.9
41.98322 523.7
42.00948 553.8
42.03574 503.4
42.062 565.0
42.08826 579.6
42.11452 515.6
42.14079 563.8
42.16705 587.3
42.19331 599.0
42.21957 552.8
42.24583 557.5
42.27209 497.6
42.29835 553.8
42.32461 510.3
42.35087 576.2
42.37713 629.7
42.40339 538.8
42.42965 546.3
42.45592 569.1
42.48218 504.3
42.50844 544.1
42.5347 526.4
42.56096 553.9
42.58722 553.5
42.61348 557.7
42.63974 596.1
42.666 575.8
42.69226 575.9
42.71852 558.5
42.74479 493.7
42.77105 557.8
42.79731 521.4
42.82357 561.1
42.84983 556.5
42.87609 531.3
42.90235 584.5
42.92862 564.9
42.95488 545.5
42.98114 504.4
43.0074 541.7
43.03366 548.6
43.05992 526.5
43.08618 534.1
43.11244 595.7
43.1387 539.1
43.16496 509.1
43.19122 614.8
43.21748 565.2
43.24375 518.0
43.27001 581.1
43.29627 520.1
43.32253 578.3
43.34879 554.3
43.37505 516.2
43.40131 593.2
43.42757 530.3
43.45383 536.2
43.48009 651.1
43.50636 496.6
43.53262 587.1
43.55888 579.7
43.58514 532.8
43.6114 524.5
43.63766 593.2
43.66392 489.3
43.69018 585.0
43.71644 565.0
43.74271 498.4
43.76897 551.8
43.79523 546.9
43.82149 523.1
43.84775 603.0
43.87401 623.5
43.90027 612.3
43.92653 599.8
43.95279 550.5
43.97905 551.2
44.00531 550.9
44.03157 517.0
44.05784 560.7
44.0841 529.2
44.11036 520.3
44.13662 642.7
44.16288 587.5
44.18914 639.3
44.2154 545.4
44.24166 565.2
44.26793 513.5
44.29419 513.9
44.32045 586.5
44.34671 615.6
44.37297 602.4
44.39923 633.4
44.42549 648.7
44.45175 563.0
44.47801 592.6
44.50427 604.9
44.53054 525.9
44.5568 512.5
44.58306 614.5
44.60932 583.6
44.63558 573.6
44.66184 691.3
44.6881 513.9
44.71436 615.9
44.74062 624.8
44.76688 594.0
44.79314 565.6
44.8194 638.6
44.84567 590.2
44.87193 605.2
44.89819 663.1
44.92445 590.3
44.95071 587.1
44.97697 646.2
45.00323 580.0
45.0295 604.2
45.05576 625.2
45.08202 665.4
45.10828 605.1
45.13454 682.0
45.1608 580.8
45.18706 620.8
45.21332 560.2
45.23958 593.4
45.26584 624.7
45.2921 623.8
45.31836 604.7
45.34463 691.1
45.37089 659.1
45.39715 669.0
45.42341 619.8
45.44967 611.4
45.47593 578.3
45.50219 619.9
45.52845 668.3
45.55471 662.9
45.58097 696.7
45.60723 631.9
45.6335 676.8
45.65976 633.5
45.68602 649.9
45.71228 594.2
45.73854 596.3
45.7648 633.7
45.79106 638.9
45.81733 553.9
45.84359 668.8
45.86985 684.6
45.89611 620.7
45.92237 625.4
45.94863 686.9
45.97489 610.4
46.00115 634.4
46.02741 616.0
46.05367 590.7
46.07993 596.8
46.10619 609.8
46.13246 682.0
46.15872 618.7
46.18498 631.5
46.21124 639.3
46.2375 652.0
46.26376 589.0
46.29002 652.8
46.31628 592.5
46.34254 649.8
46.3688 661.0
46.39507 657.3
46.42133 638.2
46.44759 623.1
46.47385 630.8
46.50011 627.6
46.52637 629.7
46.55263 618.6
46.57889 615.8
46.60515 631.0
46.63142 631.0
46.65768 624.3
46.68394 630.8
46.7102 635.5
46.73646 628.6
46.76272 624.5
46.78898 629.0
46.81524 614.6
46.8415 614.7
46.86776 613.4
46.89402 628.5
46.92028 627.3
46.94655 677.7
46.97281 629.8
46.99907 632.8
47.02533 610.9
47.05159 580.6
47.07785 612.1
47.10411 534.2
47.13037 658.1
47.15664 615.3
47.1829 656.4
47.20916 600.1
47.23542 666.1
47.26168 544.6
47.28794 577.6
47.3142 586.3
47.34046 628.5
47.36672 543.4
47.39298 663.7
47.41925 645.2
47.44551 619.1
47.47177 536.8
47.49803 633.1
47.52429 568.8
47.55055 553.9
47.57681 575.2
47.60307 596.2
47.62933 525.3
47.65559 538.3
47.68185 611.1
47.70811 539.7
47.73438 593.6
47.76064 608.7
47.7869 581.6
47.81316 629.2
47.83942 585.2
47.86568 501.0
47.89194 537.4
47.91821 621.4
47.94447 521.9
47.97073 577.4
47.99699 663.2
48.02325 624.2
48.04951 612.6
48.07577 559.8
48.10203 563.8
48.12829 445.9
48.15455 536.4
48.18081 559.4
48.20707 538.7
48.23334 577.5
48.2596 571.8
48.28586 529.5
48.31212 638.1
48.33838 613.6
48.36464 625.2
48.3909 564.5
48.41716 529.5
48.44342 517.4
48.46968 594.7
48.49594 548.1
48.52221 486.1
48.54847 558.4
48.57473 611.9
48.60099 521.8
48.62725 497.9
48.65351 566.5
48.67977 521.5
48.70604 549.4
48.7323 541.5
48.75856 519.7
48.78482 528.2
48.81108 584.0
48.83734 525.5
48.8636 563.1
48.88986 474.0
48.91612 507.3
48.94238 495.3
48.96864 522.7
48.9949 525.7
49.02117 549.9
49.04743 460.6
49.07369 511.8
49.09995 480.8
49.12621 501.0
49.15247 561.2
49.17873 502.4
49.20499 532.3
49.23125 476.1
49.25751 517.6
49.28378 479.1
49.31004 550.7
49.3363 492.7
49.36256 510.1
49.38882 523.0
49.41508 457.8
49.44134 439.6
49.4676 479.6
49.49386 527.0
49.52013 566.7
49.54639 486.2
49.57265 539.5
49.59891 533.0
49.62517 453.5
49.65143 460.8
49.67769 535.0
49.70395 436.9
49.73021 511.6
49.75647 436.3
49.78273 522.1
49.80899 518.4
49.83526 490.3
49.86152 493.6
49.88778 479.1
49.91404 415.1
49.9403 441.9
49.96656 467.4
49.99282 511.7
50.01908 474.6
50.04535 517.1
50.07161 466.8
50.09787 474.1
50.12413 466.8
50.15039 436.5
50.17665 434.4
50.20291 486.0
50.22917 442.8
50.25543 541.9
50.28169 468.2
50.30796 498.6
50.33422 424.5
50.36048 454.6
50.38674 438.4
50.413 471.4
50.43926 459.9
50.46552 455.2
50.49178 445.2
50.51804 481.7
50.5443 482.3
50.57056 437.5
50.59682 491.3
50.62309 467.1
50.64935 481.1
50.67561 443.5
50.70187 460.9
50.72813 483.0
50.75439 437.7
50.78065 448.6
50.80692 468.6
50.83318 449.3
50.85944 409.7
50.8857 494.1
50.91196 454.3
50.93822 458.2
50.96448 384.7
50.99074 439.8
51.017 445.6
51.04326 441.6
51.06952 448.7
51.09578 503.4
51.12205 519.0
51.14831 401.6
51.17457 472.7
51.20083 438.4
51.22709 395.9
51.25335 376.4
51.27961 402.5
51.30587 358.6
51.33213 429.8
51.35839 398.2
51.38465 480.5
51.41092 488.6
51.43718 466.9
51.46344 402.4
51.4897 424.6
51.51596 462.8
51.54222 441.2
51.56848 375.6
51.59475 429.7
51.62101 521.4
51.64727 440.4
51.67353 403.8
51.69979 445.1
51.72605 401.5
51.75231 395.8
51.77857 418.7
51.80483 438.9
51.83109 460.9
51.85735 425.2
51.88361 404.4
51.90988 405.0
51.93614 366.7
51.9624 417.1
51.98866 455.7
52.01492 441.4
52.04118 405.3
52.06744 408.8
52.0937 366.0
52.11996 407.1
52.14622 399.2
52.17249 434.0
52.19875 394.5
52.22501 438.7
52.25127 412.6
52.27753 440.8
52.30379 363.4
52.33005 450.1
52.35631 447.0
52.38257 401.4
52.40884 412.5
52.4351 407.3
52.46136 419.2
52.48762 355.4
52.51388 475.8
52.54014 366.3
52.5664 416.1
52.59266 406.3
52.61892 447.6
52.64518 416.1
52.67144 431.6
52.6977 417.3
52.72397 411.2
52.75023 405.3
52.77649 377.3
52.80275 406.6
52.82901 428.1
52.85527 423.8
52.88153 411.8
52.90779 395.5
52.93406 382.4
52.96032 400.2
52.98658 393.2
53.01284 457.6
53.0391 430.9
53.06536 416.2
53.09162 347.8
53.11788 387.2
53.14414 415.2
53.1704 351.1
53.19667 390.1
53.22293 439.6
53.24919 433.5
53.27545 435.1
53.30171 383.8
53.32797 366.3
53.35423 408.0
53.38049 373.5
53.40675 392.5
53.43301 404.0
53.45927 420.6
53.48553 492.5
53.5118 396.0
53.53806 380.1
53.56432 374.6
53.59058 407.5
53.61684 318.0
53.6431 363.5
53.66936 411.0
53.69563 425.3
53.72189 400.3
53.74815 373.7
53.77441 414.6
53.80067 369.4
53.82693 360.9
53.85319 339.4
53.87945 440.3
53.90571 442.2
53.93197 381.5
53.95823 362.2
53.98449 389.5
54.01076 361.4
54.03702 324.2
54.06328 363.8
54.08954 404.5
54.1158 360.4
54.14206 367.4
54.16832 417.4
54.19458 402.6
54.22084 390.6
54.2471 340.1
54.27337 364.8
54.29963 349.8
54.32589 353.9
54.35215 355.6
54.37841 371.8
54.40467 413.9
54.43093 444.9
54.45719 371.3
54.48346 418.7
54.50972 423.8
54.53598 350.3
54.56224 367.5
54.5885 355.0
54.61476 353.5
54.64102 342.1
54.66728 341.9
54.69354 358.8
54.7198 378.8
54.74606 358.9
54.77232 355.4
54.79859 375.8
54.82485 371.6
54.85111 367.5
54.87737 352.7
54.90363 373.6
54.92989 378.8
54.95615 367.9
54.98241 358.9
55.00867 381.6
55.03493 355.7
55.0612 387.8
55.08746 353.8
55.11372 333.8
55.13998 355.8
55.16624 341.4
55.1925 356.6
55.21876 333.2
55.24502 366.7
55.27128 365.8
55.29755 373.4
55.32381 389.7
55.35007 375.9
55.37633 350.7
55.40259 383.0
55.42885 359.0
55.45511 347.7
55.48137 343.7
55.50763 359.1
55.53389 371.1
55.56015 321.8
55.58641 373.8
55.61268 361.1
55.63894 360.2
55.6652 402.8
55.69146 354.8
55.71772 364.6
55.74398 306.0
55.77024 394.5
55.7965 334.1
55.82277 299.1
55.84903 371.5
55.87529 371.8
55.90155 392.8
55.92781 344.3
55.95407 366.1
55.98033 411.6
56.00659 354.6
56.03285 365.8
56.05911 336.8
56.08538 412.9
56.11164 323.1
56.1379 317.1
56.16416 364.0
56.19042 342.3
56.21668 340.5
56.24294 350.1
56.2692 350.1
56.29546 389.6
56.32172 342.5
56.34798 383.0
56.37424 394.5
56.40051 335.2
56.42677 339.3
56.45303 355.9
56.47929 349.3
56.50555 308.2
56.53181 296.0
56.55807 358.9
56.58434 358.5
56.6106 297.6
56.63686 324.1
56.66312 321.0
56.68938 375.1
56.71564 327.9
56.7419 370.9
56.76816 304.8
56.79442 331.1
56.82068 312.4
56.84694 314.5
56.8732 354.9
56.89947 337.7
56.92573 350.7
56.95199 339.6
56.97825 382.3
57.00451 382.6
57.03077 334.1
57.05703 320.6
57.08329 386.8
57.10955 331.2
57.13581 323.4
57.16208 260.9
57.18834 306.0
57.2146 360.8
57.24086 247.2
57.26712 342.5
57.29338 310.9
57.31964 378.6
57.3459 336.2
57.37217 337.8
57.39843 390.4
57.42469 285.0
57.45095 331.5
57.47721 309.9
57.50347 330.4
57.52973 322.9
57.55599 299.3
57.58225 378.3
57.60851 297.8
57.63477 338.2
57.66103 312.8
57.6873 311.1
57.71356 337.1
57.73982 266.6
57.76608 284.1
57.79234 270.7
57.8186 358.7
57.84486 302.8
57.87112 333.3
57.89738 368.8
57.92365 353.4
57.94991 337.3
57.97617 274.2
58.00243 323.7
58.02869 284.4
58.05495 278.1
58.08121 312.5
58.10747 332.9
58.13373 330.0
58.15999 331.4
58.18626 315.8
58.21252 332.9
58.23878 333.8
58.26504 327.7
58.2913 287.9
58.31756 333.6
58.34382 380.3
58.37008 327.0
58.39634 275.3
58.4226 311.5
58.44886 297.5
58.47512 283.0
58.50139 296.1
58.52765 321.2
58.55391 352.3
58.58017 341.2
58.60643 294.3
58.63269 333.8
58.65895 316.9
58.68521 330.2
58.71148 312.3
58.73774 288.0
58.764 257.8
58.79026 315.1
58.81652 305.7
58.84278 332.1
58.86904 314.5
58.8953 355.5
58.92156 369.5
58.94782 306.9
58.97409 313.5
59.00035 326.1
59.02661 298.2
59.05287 297.2
59.07913 290.6
59.10539 294.5
59.13165 262.7
59.15791 312.2
59.18417 338.3
59.21043 351.3
59.23669 298.5
59.26295 373.7
59.28922 359.9
59.31548 331.6
59.34174 282.9
59.368 313.6
59.39426 267.2
59.42052 312.0
59.44678 323.8
59.47305 316.9
59.49931 321.5
59.52557 278.6
59.55183 327.2
59.57809 337.7
59.60435 371.7
59.63061 337.6
59.65687 311.9
59.68313 366.5
59.70939 341.9
59.73565 301.7
59.76191 313.9
59.78818 353.4
59.81444 343.6
59.8407 322.4
59.86696 326.5
59.89322 355.0
59.91948 360.9
59.94574 349.2
59.972 404.2
59.99826 385.7
60.02452 391.5
60.05079 379.0
60.07705 391.4
60.10331 395.4
60.12957 318.7
60.15583 394.1
60.18209 400.2
60.20835 428.3
60.23461 418.2
60.26088 397.5
60.28714 454.3
60.3134 474.0
60.33966 437.1
60.36592 438.0
60.39218 469.6
60.41844 525.9
60.4447 522.4
60.47096 535.2
60.49722 500.1
60.52348 546.4
60.54974 542.3
60.576 516.9
60.60227 470.3
60.62853 575.3
60.65479 641.2
60.68105 620.8
60.70731 545.7
60.73357 585.3
60.75983 625.4
60.78609 560.0
60.81236 594.7
60.83862 553.8
60.86488 619.8
60.89114 606.2
60.9174 680.0
60.94366 623.3
60.96992 618.9
60.99618 702.5
61.02244 614.2
61.0487 619.1
61.07497 602.4
61.10123 625.3
61.12749 631.9
61.15375 675.9
61.18001 626.1
61.20627 623.0
61.23253 606.4
61.25879 602.8
61.28505 606.2
61.31131 596.6
61.33757 590.1
61.36383 599.3
61.3901 592.4
61.41636 586.1
61.44262 598.0
61.46888 599.0
61.49514 588.3
61.5214 589.3
61.54766 587.1
61.57393 577.0
61.60019 574.4
61.62645 566.1
61.65271 576.2
61.67897 543.6
61.70523 560.7
61.73149 536.4
61.75775 536.6
61.78401 549.2
61.81027 595.2
61.83653 548.4
61.8628 543.3
61.88906 614.1
61.91532 584.3
61.94158 573.2
61.96784 513.9
61.9941 607.4
62.02036 572.9
62.04662 615.4
62.07288 523.0
62.09914 521.6
62.1254 547.5
62.15166 536.9
62.17793 478.8
62.20419 517.6
62.23045 520.0
62.25671 492.8
62.28297 511.6
62.30923 513.0
62.33549 463.9
62.36176 530.9
62.38802 504.6
62.41428 456.0
62.44054 454.9
62.4668 482.5
62.49306 442.6
62.51932 467.2
62.54558 454.2
62.57184 375.1
62.5981 434.0
62.62436 480.0
62.65062 368.0
62.67689 418.4
62.70315 413.7
62.72941 385.3
62.75567 396.5
62.78193 485.9
62.80819 395.1
62.83445 412.8
62.86071 403.2
62.88697 400.2
62.91323 394.5
62.9395 366.1
62.96576 353.1
62.99202 388.5
63.01828 371.8
63.04454 356.7
63.0708 353.1
63.09706 393.1
63.12332 370.0
63.14959 343.8
63.17585 326.1
63.20211 333.6
63.22837 339.6
63.25463 341.8
63.28089 298.2
63.30715 364.6
63.33341 320.7
63.35967 325.1
63.38593 309.0
63.41219 287.0
63.43845 259.0
63.46471 379.1
63.49098 357.4
63.51724 319.8
63.5435 265.9
63.56976 327.2
63.59602 337.4
63.62228 300.7
63.64854 290.3
63.6748 302.6
63.70107 252.9
63.72733 324.4
63.75359 319.8
63.77985 281.1
63.80611 256.6
63.83237 266.5
63.85863 234.2
63.88489 312.1
63.91115 299.8
63.93741 238.5
63.96368 274.7
63.98994 254.5
64.0162 320.7
64.04246 256.4
64.06872 256.6
64.09498 245.4
64.12124 307.4
64.1475 237.5
64.17376 274.5
64.20003 310.7
64.22629 267.1
64.25255 321.6
64.27881 342.9
64.30507 277.5
64.33133 293.3
64.35759 261.4
64.38385 258.7
64.41011 266.8
64.43637 240.8
64.46263 263.7
64.48889 298.4
64.51516 241.7
64.54142 292.9
64.56768 290.0
64.59394 227.0
64.6202 292.0
64.64646 268.3
64.67272 271.6
64.69898 269.4
64.72524 275.8
64.7515 278.5
64.77776 305.8
64.80402 287.0
64.83028 263.9
64.85655 285.0
64.88281 346.2
64.90907 260.7
64.93533 325.7
64.96159 277.8
64.98785 410.4
