5.00773 831.9
5.033991 831.9
5.060253 1071.6
5.086514 929.1
5.112774 1037.8
5.139036 910.6
5.165297 1043.7
5.191557 932.2
5.217818 969.5
5.24408 874.4
5.27034 813.4
5.296601 969.1
5.322863 948.1
5.349123 891.0
5.375384 841.4
5.401646 928.9
5.427907 846.8
5.454167 880.8
5.480429 815.1
5.50669 763.7
5.53295 771.0
5.559211 920.2
5.585473 738.7
5.611733 812.7
5.637994 786.1
5.664256 787.8
5.690516 776.5
5.716777 805.7
5.743039 786.9
5.7693 686.0
5.79556 742.9
5.821822 754.3
5.848083 773.6
5.874343 725.4
5.900604 729.4
5.926866 696.9
5.953126 712.1
5.979387 679.5
6.005649 774.1
6.031909 728.2
6.05817 654.6
6.084432 706.3
6.110693 632.8
6.136953 748.0
6.163215 632.7
6.189476 718.6
6.215736 756.0
6.241998 646.1
6.268259 637.0
6.294519 661.9
6.32078 699.0
6.347042 649.2
6.373302 631.9
6.399563 578.3
6.425825 710.1
6.452085 686.6
6.478346 562.1
6.504608 632.4
6.530869 642.8
6.557129 586.6
6.583391 567.3
6.609652 663.3
6.635912 632.1
6.662173 547.0
6.688435 673.2
6.714695 615.7
6.740956 682.9
6.767218 639.0
6.793478 617.5
6.819739 597.8
6.846001 611.3
6.872262 588.4
6.898522 698.9
6.924784 578.0
6.951045 622.4
6.977305 585.8
7.003566 545.2
7.029828 596.6
7.056088 617.5
7.082349 544.1
7.108611 677.2
7.134871 578.4
7.161132 661.0
7.187394 708.2
7.213655 549.6
7.239915 692.0
7.266177 683.3
7.292438 657.2
7.318698 685.4
7.344959 627.8
7.371221 609.3
7.397481 645.2
7.423742 581.1
7.450004 624.6
7.476264 555.9
7.502525 599.5
7.528787 557.8
7.555048 618.6
7.581308 557.8
7.60757 632.6
7.633831 671.5
7.660091 632.0
7.686352 655.5
7.712614 710.6
7.738874 638.0
7.765135 636.5
7.791397 666.2
7.817657 596.5
7.843918 634.1
7.87018 657.2
7.896441 660.4
7.922701 689.5
7.948963 629.0
7.975224 673.3
8.001485 559.4
8.027745 723.7
8.054007 721.6
8.080268 691.1
8.106528 711.2
8.13279 702.1
8.159051 777.9
8.185311 653.2
8.211573 763.5
8.237833 750.3
8.264094 719.4
8.290356 758.8
8.316616 793.0
8.342877 827.4
8.369139 834.9
8.395399 829.8
8.42166 871.9
8.447922 906.1
8.474182 1000.2
8.500443 933.2
8.526705 1067.5
8.552965 916.0
8.579226 1130.5
8.605488 1160.0
8.631748 1242.3
8.65801 1184.8
8.684271 1275.7
8.710531 1122.1
8.736793 1168.1
8.763054 1198.3
8.789314 1223.1
8.815576 1069.3
8.841837 1069.1
8.868097 1047.7
8.894359 1042.5
8.920619 974.2
8.94688 987.1
8.973142 1016.4
8.999402 991.5
9.025663 906.2
9.051925 1061.3
9.078185 887.3
9.104446 1099.7
9.130708 901.2
9.156968 879.4
9.183229 960.4
9.209491 946.2
9.235751 978.2
9.262012 1094.3
9.288274 934.7
9.314534 1047.0
9.340796 987.5
9.367057 917.1
9.393317 1183.4
9.419579 1048.1
9.44584 1094.9
9.4721 1136.2
9.498362 944.2
9.524623 1167.4
9.550883 998.4
9.577145 1107.0
9.603406 1034.2
9.629666 1129.2
9.655928 1139.0
9.682188 1162.8
9.708449 1131.3
9.734711 1212.7
9.760971 1190.1
9.787232 1104.7
9.813494 1179.7
9.839754 1165.6
9.866015 1209.5
9.892277 1109.9
9.918537 1190.2
9.944798 1128.6
9.97106 1201.0
9.99732 1234.4
10.02358 1069.8
10.04984 1175.0
10.0761 1191.8
10.10236 1311.6
10.12863 1146.8
10.15489 1233.4
10.18115 1169.5
10.20741 1122.1
10.23367 1210.6
10.25993 1157.2
10.28619 1327.9
10.31245 1087.7
10.33871 1289.0
10.36497 1126.1
10.39124 1201.8
10.4175 1236.5
10.44376 1128.1
10.47002 1140.4
10.49628 1048.8
10.52254 1293.7
10.5488 1043.5
10.57506 1168.6
10.60132 1100.6
10.62758 1196.5
10.65385 1089.1
10.68011 1211.1
10.70637 1057.5
10.73263 1228.5
10.75889 952.9
10.78515 1233.1
10.81141 1055.7
10.83767 993.7
10.86393 1178.9
10.89019 968.0
10.91646 1057.0
10.94272 972.7
10.96898 1103.0
10.99524 985.0
11.0215 1013.0
11.04776 968.0
11.07402 1039.2
11.10028 1111.2
11.12654 1040.9
11.1528 1121.5
11.17907 1021.3
11.20533 1162.2
11.23159 1241.2
11.25785 1443.3
11.28411 1340.3
11.31037 1573.2
11.33663 1479.0
11.36289 1579.0
11.38915 1320.3
11.41541 1364.2
11.44168 1307.5
11.46794 1249.9
11.4942 1101.1
11.52046 1181.6
11.54672 991.7
11.57298 1013.8
11.59924 1021.8
11.6255 1013.6
11.65176 1047.3
11.67802 960.2
11.70429 949.4
11.73055 1050.5
11.75681 983.9
11.78307 1003.8
11.80933 903.4
11.83559 1026.6
11.86185 1030.5
11.88811 949.4
11.91437 961.7
11.94063 1078.1
11.9669 1041.4
11.99316 1081.6
12.01942 977.3
12.04568 1036.5
12.07194 1038.2
12.0982 1112.5
12.12446 1110.2
12.15072 1061.8
12.17698 1212.7
12.20324 1092.5
12.22951 1169.1
12.25577 1176.2
12.28203 1037.3
12.30829 1144.7
12.33455 1093.3
12.36081 1035.6
12.38707 1180.1
12.41333 1082.2
12.43959 1100.6
12.46585 1103.3
12.49212 1061.8
12.51838 1102.6
12.54464 1059.3
12.5709 1069.1
12.59716 990.6
12.62342 1024.3
12.64968 1030.9
12.67594 891.1
12.7022 1037.1
12.72846 943.2
12.75473 987.0
12.78099 989.0
12.80725 987.7
12.83351 949.2
12.85977 873.5
12.88603 956.3
12.91229 957.0
12.93855 871.5
12.96481 856.4
12.99107 921.3
13.01734 817.5
13.0436 904.4
13.06986 838.1
13.09612 749.7
13.12238 768.2
13.14864 799.3
13.1749 741.5
13.20116 667.2
13.22742 626.3
13.25368 665.1
13.27995 679.2
13.30621 690.0
13.33247 706.2
13.35873 790.9
13.38499 570.0
13.41125 656.6
13.43751 595.8
13.46377 663.7
13.49003 584.9
13.51629 617.5
13.54256 631.1
13.56882 725.6
13.59508 653.3
13.62134 665.9
13.6476 645.2
13.67386 607.5
13.70012 727.7
13.72638 589.7
13.75264 592.1
13.7789 654.5
13.80517 689.6
13.83143 562.8
13.85769 539.4
13.88395 731.5
13.91021 585.2
13.93647 505.4
13.96273 686.0
13.98899 550.6
14.01525 612.7
14.04151 536.6
14.06778 564.2
14.09404 496.9
14.1203 546.2
14.14656 510.5
14.17282 513.5
14.19908 529.6
14.22534 524.7
14.2516 621.3
14.27786 572.0
14.30412 563.3
14.33039 496.8
14.35665 645.3
14.38291 551.4
14.40917 524.4
14.43543 633.1
14.46169 538.1
14.48795 558.9
14.51421 595.3
14.54047 585.9
14.56673 522.6
14.593 607.5
14.61926 561.8
14.64552 543.8
14.67178 563.0
14.69804 540.5
14.7243 609.1
14.75056 611.9
14.77682 605.0
14.80308 564.2
14.82934 603.3
14.85561 649.0
14.88187 548.3
14.90813 571.7
14.93439 646.8
14.96065 656.9
14.98691 621.8
15.01317 639.3
15.03943 604.5
15.06569 658.3
15.09195 688.3
15.11822 690.8
15.14448 611.2
15.17074 616.4
15.197 600.3
15.22326 744.2
15.24952 679.0
15.27578 678.9
15.30204 761.4
15.3283 636.7
15.35456 548.9
15.38083 738.8
15.40709 730.2
15.43335 648.7
15.45961 695.8
15.48587 560.3
15.51213 709.1
15.53839 670.3
15.56465 656.2
15.59091 720.7
15.61717 557.1
15.64344 642.6
15.6697 717.6
15.69596 547.1
15.72222 578.9
15.74848 631.9
15.77474 630.3
15.801 559.9
15.82726 670.1
15.85352 597.5
15.87978 601.5
15.90605 672.7
15.93231 581.0
15.95857 652.0
15.98483 626.4
16.01109 642.3
16.03735 653.8
16.06361 615.3
16.08987 671.7
16.11613 645.3
16.1424 702.7
16.16866 606.1
16.19492 678.0
16.22118 630.4
16.24744 619.9
16.2737 629.7
16.29996 604.8
16.32622 633.0
16.35248 609.1
16.37874 705.9
16.405 705.8
16.43126 572.0
16.45753 662.2
16.48379 717.3
16.51005 662.1
16.53631 683.3
16.56257 631.1
16.58883 710.2
16.61509 711.3
16.64135 615.3
16.66761 631.0
16.69388 787.4
16.72014 674.3
16.7464 621.0
16.77266 804.7
16.79892 833.4
16.82518 738.7
16.85144 804.0
16.8777 861.2
16.90396 880.5
16.93023 745.6
16.95649 881.7
16.98275 1009.7
17.00901 891.6
17.03527 929.2
17.06153 1043.3
17.08779 1108.6
17.11405 1111.9
17.14031 1150.9
17.16657 1235.0
17.19283 1246.7
17.2191 1211.9
17.24536 1268.5
17.27162 1214.0
17.29788 1175.4
17.32414 1291.0
17.3504 1254.8
17.37666 1191.3
17.40292 1188.2
17.42918 1152.8
17.45544 1209.9
17.4817 1140.4
17.50797 1090.9
17.53423 1063.5
17.56049 1130.7
17.58675 1146.3
17.61301 1118.1
17.63927 922.4
17.66553 1005.9
17.69179 1155.1
17.71805 1059.4
17.74432 928.7
17.77058 987.8
17.79684 1022.5
17.8231 1102.7
17.84936 1008.8
17.87562 887.4
17.90188 1052.4
17.92814 1063.6
17.9544 999.4
17.98067 911.6
18.00693 1023.0
18.03319 988.1
18.05945 946.7
18.08571 925.1
18.11197 1003.0
18.13823 1016.5
18.16449 1008.2
18.19075 967.4
18.21701 967.8
18.24327 1052.8
18.26954 1015.8
18.2958 1008.8
18.32206 976.5
18.34832 975.1
18.37458 1002.4
18.40084 852.6
18.4271 993.3
18.45336 1109.4
18.47962 905.1
18.50588 983.4
18.53214 1045.8
18.55841 987.5
18.58467 1027.9
18.61093 992.9
18.63719 904.0
18.66345 915.2
18.68971 1030.7
18.71597 967.0
18.74223 894.1
18.76849 983.7
18.79476 995.4
18.82102 878.4
18.84728 951.4
18.87354 947.9
18.8998 977.8
18.92606 890.2
18.95232 909.3
18.97858 961.9
19.00484 982.2
19.03111 964.7
19.05737 992.9
19.08363 927.4
19.10989 929.3
19.13615 933.1
19.16241 1004.8
19.18867 961.1
19.21493 1001.6
19.24119 1012.4
19.26745 930.4
19.29371 930.1
19.31997 989.5
19.34624 1062.0
19.3725 987.2
19.39876 931.6
19.42502 995.3
19.45128 1072.4
19.47754 928.5
19.5038 969.8
19.53006 1023.0
19.55632 1030.4
19.58259 941.6
19.60885 1069.7
19.63511 1025.4
19.66137 886.6
19.68763 1089.0
19.71389 1085.3
19.74015 993.7
19.76641 980.1
19.79267 1035.4
19.81894 1009.2
19.8452 972.6
19.87146 1018.8
19.89772 978.8
19.92398 1038.5
19.95024 1060.6
19.9765 1009.2
20.00276 989.1
20.02902 1006.1
20.05528 1025.3
20.08154 1036.4
20.10781 1030.8
20.13407 1081.5
20.16033 1020.0
20.18659 942.2
20.21285 1009.1
20.23911 1047.9
20.26537 948.1
20.29163 1073.4
20.31789 1135.5
20.34415 927.4
20.37041 1053.9
20.39668 1107.2
20.42294 1050.4
20.4492 1062.8
20.47546 1024.4
20.50172 1023.8
20.52798 1038.9
20.55424 1107.5
20.5805 1027.8
20.60676 1091.2
20.63303 1041.7
20.65929 978.0
20.68555 1102.4
20.71181 1181.1
20.73807 1041.0
20.76433 1053.6
20.79059 1092.3
20.81685 1102.4
20.84311 1010.8
20.86938 987.4
20.89564 1072.6
20.9219 1072.9
20.94816 1015.0
20.97442 1126.2
21.00068 1062.4
21.02694 1101.3
21.0532 1121.5
21.07946 1086.4
21.10572 1018.7
21.13198 1175.1
21.15825 1098.0
21.18451 1055.4
21.21077 1158.0
21.23703 1166.3
21.26329 1106.1
21.28955 1082.7
21.31581 1043.9
21.34207 1139.8
21.36833 1094.3
21.39459 1138.1
21.42085 1153.7
21.44712 1094.7
21.47338 1101.5
21.49964 1149.3
21.5259 1191.3
21.55216 1167.2
21.57842 1182.5
21.60468 1174.7
21.63094 1172.9
21.6572 1218.4
21.68347 1139.9
21.70973 1144.5
21.73599 1194.1
21.76225 1140.6
21.78851 1199.2
21.81477 1176.8
21.84103 1244.0
21.86729 1139.8
21.89355 1277.0
21.91982 1254.9
21.94608 1249.1
21.97234 1300.2
21.9986 1270.4
22.02486 1302.3
22.05112 1338.1
22.07738 1291.0
22.10364 1311.8
22.1299 1319.7
22.15616 1394.8
22.18242 1265.4
22.20868 1429.5
22.23495 1391.2
22.26121 1504.0
22.28747 1541.9
22.31373 1427.3
22.33999 1514.5
22.36625 1488.1
22.39251 1571.6
22.41877 1624.7
22.44503 1662.6
22.4713 1659.1
22.49756 1733.3
22.52382 1827.1
22.55008 1858.6
22.57634 1896.7
22.6026 1855.1
22.62886 1966.0
22.65512 2052.2
22.68138 1922.3
22.70764 1892.7
22.73391 1839.1
22.76017 1762.0
22.78643 1714.6
22.81269 1704.7
22.83895 1678.0
22.86521 1614.9
22.89147 1587.8
22.91773 1566.0
22.94399 1540.5
22.97025 1480.6
22.99652 1459.8
23.02278 1445.4
23.04904 1439.5
23.0753 1437.7
23.10156 1470.9
23.12782 1346.9
23.15408 1333.3
23.18034 1364.8
23.2066 1379.2
23.23286 1291.8
23.25912 1355.9
23.28539 1301.8
23.31165 1326.9
23.33791 1374.0
23.36417 1367.2
23.39043 1321.5
23.41669 1297.5
23.44295 1377.6
23.46921 1295.5
23.49547 1353.9
23.52174 1316.2
23.548 1331.4
23.57426 1423.8
23.60052 1380.4
23.62678 1245.7
23.65304 1289.3
23.6793 1381.2
23.70556 1325.0
23.73182 1334.0
23.75809 1348.5
23.78435 1358.3
23.81061 1315.0
23.83687 1386.6
23.86313 1339.4
23.88939 1334.4
23.91565 1303.8
23.94191 1271.4
23.96817 1286.7
23.99443 1275.3
24.02069 1259.0
24.04696 1258.8
24.07322 1290.0
24.09948 1267.5
24.12574 1227.4
24.152 1215.4
24.17826 1225.6
24.20452 1198.2
24.23078 1283.4
24.25704 1193.3
24.2833 1291.7
24.30956 1267.2
24.33583 1199.9
24.36209 1126.3
24.38835 1063.6
24.41461 1150.3
24.44087 1249.5
24.46713 1170.4
24.49339 1176.2
24.51965 1147.0
24.54591 1146.4
24.57218 1157.6
24.59844 1108.2
24.6247 1093.8
24.65096 1212.3
24.67722 1161.0
24.70348 1063.7
24.72974 1166.4
24.756 1233.2
24.78226 1128.1
24.80853 994.9
24.83479 1040.1
24.86105 1115.1
24.88731 1124.4
24.91357 1109.9
24.93983 1033.2
24.96609 1043.7
24.99235 1117.5
25.01861 1078.8
25.04487 1041.9
25.07113 1064.1
25.09739 1027.9
25.12366 996.0
25.14992 1061.9
25.17618 956.6
25.20244 935.4
25.2287 1046.5
25.25496 1018.0
25.28122 1053.0
25.30748 1017.0
25.33374 1023.3
25.36001 1099.6
25.38627 1093.8
25.41253 999.1
25.43879 1084.7
25.46505 1077.9
25.49131 1080.8
25.51757 1070.2
25.54383 1017.8
25.57009 1035.0
25.59635 1090.4
25.62262 1106.8
25.64888 1041.1
25.67514 1064.6
25.7014 1024.9
25.72766 1065.3
25.75392 1112.9
25.78018 1118.9
25.80644 1060.8
25.8327 1091.6
25.85896 1130.8
25.88523 1221.1
25.91149 1085.5
25.93775 1145.0
25.96401 1172.3
25.99027 1152.3
26.01653 1111.5
26.04279 1221.4
26.06905 1287.3
26.09531 1219.9
26.12157 1259.6
26.14783 1372.6
26.1741 1284.0
26.20036 1260.9
26.22662 1234.5
26.25288 1221.1
26.27914 1224.6
26.3054 1206.1
26.33166 1200.4
26.35792 1177.6
26.38418 1171.7
26.41045 1153.7
26.43671 1144.7
26.46297 1124.5
26.48923 1098.2
26.51549 1077.7
26.54175 995.6
26.56801 1069.1
26.59427 1092.2
26.62053 1094.4
26.6468 1026.4
26.67306 1007.2
26.69932 944.9
26.72558 1099.2
26.75184 1013.7
26.7781 1009.3
26.80436 1020.9
26.83062 1021.6
26.85688 970.3
26.88314 953.6
26.9094 1009.5
26.93567 1061.0
26.96193 1022.6
26.98819 973.4
27.01445 1002.2
27.04071 978.2
27.06697 1010.4
27.09323 971.0
27.11949 905.9
27.14575 931.3
27.17201 941.6
27.19827 961.8
27.22454 987.7
27.2508 949.5
27.27706 922.1
27.30332 852.6
27.32958 975.5
27.35584 1023.5
27.3821 970.5
27.40836 889.3
27.43462 927.8
27.46089 959.9
27.48715 954.4
27.51341 1011.0
27.53967 894.2
27.56593 905.1
27.59219 972.8
27.61845 939.5
27.64471 873.3
27.67097 890.9
27.69724 958.6
27.7235 1025.8
27.74976 933.7
27.77602 851.7
27.80228 1010.0
27.82854 934.1
27.8548 947.4
27.88106 955.2
27.90732 929.2
27.93358 943.1
27.95984 967.9
27.9861 895.7
28.01237 991.9
28.03863 901.3
28.06489 954.7
28.09115 997.1
28.11741 986.6
28.14367 988.2
28.16993 941.1
28.19619 863.3
28.22245 846.9
28.24872 913.2
28.27498 958.4
28.30124 975.3
28.3275 869.7
28.35376 862.5
28.38002 980.5
28.40628 935.3
28.43254 934.8
28.4588 901.9
28.48506 871.6
28.51133 870.5
28.53759 963.2
28.56385 986.5
28.59011 1034.7
28.61637 902.2
28.64263 925.3
28.66889 915.5
28.69515 916.7
28.72141 951.5
28.74767 981.8
28.77394 927.2
28.8002 978.0
28.82646 925.5
28.85272 868.3
28.87898 1003.3
28.90524 847.6
28.9315 905.4
28.95776 898.6
28.98402 1000.9
29.01028 986.0
29.03654 957.6
29.06281 950.2
29.08907 906.5
29.11533 967.4
29.14159 946.9
29.16785 932.0
29.19411 1038.4
29.22037 947.7
29.24663 1011.5
29.27289 921.5
29.29916 942.6
29.32542 970.9
29.35168 1072.5
29.37794 1015.0
29.4042 1041.9
29.43046 1014.8
29.45672 1071.8
29.48298 971.9
29.50924 974.0
29.53551 993.2
29.56177 1007.6
29.58803 1221.0
29.61429 1057.3
29.64055 1049.8
29.66681 1054.9
29.69307 1099.4
29.71933 1023.9
29.74559 1106.6
29.77185 1046.0
29.79811 1129.2
29.82438 1104.5
29.85064 1166.5
29.8769 1130.3
29.90316 1120.7
29.92942 1006.3
29.95568 1203.6
29.98194 1137.9
30.0082 1160.1
30.03446 1111.1
30.06072 1103.6
30.08698 1115.3
30.11325 1106.9
30.13951 1123.2
30.16577 1100.2
30.19203 1115.1
30.21829 1117.5
30.24455 1120.6
30.27081 1095.3
30.29707 1094.2
30.32333 1071.1
30.3496 1043.5
30.37586 1038.8
30.40212 1039.2
30.42838 1044.6
30.45464 1050.9
30.4809 1116.3
30.50716 1055.2
30.53342 965.0
30.55968 910.8
30.58595 1011.3
30.61221 1010.2
30.63847 1117.6
30.66473 1005.3
30.69099 953.1
30.71725 921.3
30.74351 927.3
30.76977 996.7
30.79603 975.9
30.82229 974.1
30.84855 961.3
30.87481 918.2
30.90108 932.6
30.92734 915.5
30.9536 990.5
30.97986 965.9
31.00612 921.9
31.03238 883.4
31.05864 906.6
31.0849 951.9
31.11116 969.6
31.13743 941.2
31.16369 861.3
31.18995 824.6
31.21621 935.7
31.24247 900.2
31.26873 931.7
31.29499 800.5
31.32125 919.8
31.34751 918.0
31.37377 882.4
31.40004 824.2
31.4263 893.6
31.45256 937.0
31.47882 900.8
31.50508 831.4
31.53134 872.4
31.5576 917.4
31.58386 883.5
31.61012 990.2
31.63638 871.4
31.66265 843.9
31.68891 889.5
31.71517 819.4
31.74143 906.2
31.76769 919.1
31.79395 895.5
31.82021 888.7
31.84647 874.3
31.87273 886.8
31.89899 901.5
31.92525 849.7
31.95152 768.3
31.97778 860.6
32.00404 876.3
32.0303 971.7
32.05656 877.0
32.08282 827.2
32.10908 875.8
32.13534 865.9
32.16161 841.0
32.18787 959.4
32.21413 851.0
32.24039 933.9
32.26665 861.0
32.29291 887.8
32.31917 809.4
32.34543 820.1
32.37169 879.4
32.39795 913.1
32.42421 873.0
32.45047 793.6
32.47674 817.2
32.503 813.8
32.52926 927.6
32.55552 851.7
32.58178 824.6
32.60804 842.3
32.6343 861.1
32.66056 879.4
32.68682 866.0
32.71309 832.1
32.73935 819.4
32.76561 852.5
32.79187 804.9
32.81813 820.7
32.84439 860.1
32.87065 862.3
32.89691 853.1
32.92317 846.3
32.94944 836.8
32.9757 847.6
33.00196 877.7
33.02822 851.5
33.05448 847.8
33.08074 910.3
33.107 806.5
33.13326 900.3
33.15952 824.1
33.18578 840.1
33.21204 892.7
33.2383 872.1
33.26457 817.5
33.29083 902.1
33.31709 810.8
33.34335 868.3
33.36961 800.8
33.39587 852.6
33.42213 859.3
33.44839 888.3
33.47466 962.3
33.50092 858.5
33.52718 879.3
33.55344 852.8
33.5797 889.0
33.60596 841.0
33.63222 816.0
33.65848 841.1
33.68474 867.6
33.711 891.7
33.73726 935.7
33.76353 868.1
33.78979 925.1
33.81605 922.5
33.84231 906.0
33.86857 967.6
33.89483 866.3
33.92109 1071.8
33.94735 934.5
33.97361 973.0
33.99987 876.1
34.02613 954.7
34.05239 998.9
34.07866 1074.8
34.10492 1064.5
34.13118 1107.1
34.15744 1076.9
34.1837 983.1
34.20996 1168.0
34.23623 1117.1
34.26249 1231.4
34.28875 1247.5
34.31501 1268.4
34.34127 1173.6
34.36753 1314.6
34.39379 1327.4
34.42005 1308.4
34.44631 1410.9
34.47257 1427.6
34.49883 1408.6
34.52509 1417.2
34.55136 1413.3
34.57762 1485.5
34.60388 1446.7
34.63014 1491.6
34.6564 1474.5
34.68266 1434.9
34.70892 1451.0
34.73518 1438.8
34.76144 1501.5
34.7877 1476.3
34.81396 1472.9
34.84023 1458.9
34.86649 1456.2
34.89275 1455.9
34.91901 1440.5
34.94527 1422.5
34.97153 1418.3
34.99779 1370.5
35.02405 1344.0
35.05032 1345.6
35.07658 1339.6
35.10284 1320.7
35.1291 1333.0
35.15536 1297.0
35.18162 1295.4
35.20788 1197.6
35.23414 1246.7
35.2604 1280.7
35.28666 1221.6
35.31292 1196.5
35.33918 1171.4
35.36545 1216.0
35.39171 1229.6
35.41797 1127.5
35.44423 1247.7
35.47049 1176.0
35.49675 1184.1
35.52301 1082.9
35.54927 1106.4
35.57553 1080.8
35.6018 1123.3
35.62806 1132.0
35.65432 1221.1
35.68058 1115.9
35.70684 1154.6
35.7331 1126.3
35.75936 1127.1
35.78562 1117.0
35.81188 1102.0
35.83815 1100.4
35.86441 1100.4
35.89067 1089.5
35.91693 1095.7
35.94319 1104.7
35.96945 1083.6
35.99571 1094.0
36.02197 1093.0
36.04823 1088.5
36.07449 1069.4
36.10075 1067.7
36.12701 1032.0
36.15327 1040.8
36.17954 959.5
36.2058 1094.1
36.23206 985.8
36.25832 984.6
36.28458 1146.2
36.31084 997.2
36.3371 1043.9
36.36337 979.2
36.38963 957.3
36.41589 1113.7
36.44215 1010.6
36.46841 1064.0
36.49467 1059.4
36.52093 1043.3
36.54719 973.3
36.57345 993.0
36.59971 1060.9
36.62597 1091.3
36.65224 1026.2
36.6785 1008.9
36.70476 1010.9
36.73102 1019.0
36.75728 1083.3
36.78354 1048.4
36.8098 1042.1
36.83606 1029.0
36.86232 1011.7
36.88858 1007.9
36.91484 1007.6
36.9411 1022.4
36.96737 1024.9
36.99363 1016.5
37.01989 993.9
37.04615 966.3
37.07241 933.9
37.09867 923.8
37.12494 933.9
37.1512 933.4
37.17746 962.4
37.20372 924.1
37.22998 996.1
37.25624 917.2
37.2825 952.6
37.30876 969.3
37.33502 933.9
37.36128 912.5
37.38754 887.2
37.4138 883.6
37.44007 855.3
37.46633 959.8
37.49259 853.2
37.51885 871.2
37.54511 849.8
37.57137 802.6
37.59763 767.9
37.62389 814.2
37.65015 816.0
37.67641 887.9
37.70267 839.4
37.72894 843.1
37.7552 796.3
37.78146 821.0
37.80772 838.0
37.83398 838.5
37.86024 787.1
37.8865 834.1
37.91276 772.1
37.93903 889.1
37.96529 869.8
37.99155 876.1
38.01781 820.7
38.04407 773.3
38.07033 808.9
38.09659 847.8
38.12285 845.7
38.14911 901.2
38.17537 827.3
38.20163 748.1
38.22789 855.5
38.25416 711.4
38.28042 824.1
38.30668 805.1
38.33294 747.7
38.3592 857.6
38.38546 795.4
38.41172 853.3
38.43798 845.0
38.46424 825.9
38.49051 799.4
38.51677 775.7
38.54303 763.2
38.56929 774.7
38.59555 794.8
38.62181 791.8
38.64807 758.9
38.67433 725.5
38.70059 749.9
38.72686 836.4
38.75312 687.1
38.77938 757.7
38.80564 706.2
38.8319 764.0
38.85816 797.6
38.88442 707.1
38.91068 702.8
38.93694 683.1
38.9632 762.7
38.98946 702.2
39.01572 785.7
39.04198 810.1
39.06825 707.2
39.09451 725.9
39.12077 696.8
39.14703 698.9
39.17329 709.9
39.19955 672.1
39.22581 680.7
39.25208 701.3
39.27834 744.1
39.3046 779.3
39.33086 718.4
39.35712 714.0
39.38338 694.3
39.40964 722.5
39.4359 687.9
39.46216 733.1
39.48842 723.6
39.51468 718.0
39.54095 760.4
39.56721 738.8
39.59347 685.5
39.61973 722.3
39.64599 672.2
39.67225 720.6
39.69851 740.5
39.72477 666.9
39.75103 759.2
39.77729 701.4
39.80355 659.0
39.82981 735.1
39.85608 685.3
39.88234 679.9
39.9086 666.5
39.93486 664.5
39.96112 696.2
39.98738 658.4
40.01365 639.9
40.03991 678.3
40.06617 651.2
40.09243 636.9
40.11869 692.2
40.14495 619.4
40.17121 629.9
40.19747 681.1
40.22373 573.5
40.24999 650.0
40.27625 623.5
40.30251 635.6
40.32878 766.0
40.35504 619.7
40.3813 735.9
40.40756 723.6
40.43382 617.5
40.46008 685.3
40.48634 599.5
40.5126 698.8
40.53886 669.7
40.56512 686.7
40.59138 713.9
40.61765 696.7
40.64391 648.4
40.67017 684.5
40.69643 638.2
40.72269 671.5
40.74895 674.3
40.77521 654.7
40.80147 610.6
40.82774 610.6
40.854 619.8
40.88026 630.3
40.90652 631.9
40.93278 625.1
40.95904 749.9
40.9853 649.9
41.01156 598.0
41.03782 642.3
41.06408 552.2
41.09034 629.2
41.1166 642.8
41.14287 560.2
41.16913 609.5
41.19539 607.5
41.22165 591.4
41.24791 635.9
41.27417 685.0
41.30043 655.9
41.32669 646.5
41.35295 546.2
41.37922 551.2
41.40548 593.0
41.43174 591.9
41.458 650.4
41.48426 640.6
41.51052 661.9
41.53678 655.2
41.56304 617.6
41.5893 603.7
41.61557 594.1
41.64183 584.8
41.66809 640.8
41.69435 569.5
41.72061 590.7
41.74687 654.5
41.77313 576.2
41.79939 664.0
41.82565 618.2
41.85191 566.6
41.87817 603.3
41.90443 525.2
41.93069 512.9
41.95696 541.3
41.98322 596.3
42.00948 585.0
42.03574 596.7
42.062 553.2
42.08826 591.2
42.11452 596.2
42.14079 553.5
42.16705 559.5
42.19331 604.1
42.21957 570.7
42.24583 595.6
42.27209 539.5
42.29835 549.1
42.32461 535.2
42.35087 523.8
42.37713 606.7
42.40339 557.8
42.42966 572.4
42.45592 557.6
42.48218 573.4
42.50844 579.7
42.5347 624.5
42.56096 578.8
42.58722 520.5
42.61348 550.4
42.63974 525.7
42.666 499.0
42.69226 575.8
42.71852 587.6
42.74479 558.4
42.77105 551.6
42.79731 580.3
42.82357 578.4
42.84983 509.9
42.87609 559.3
42.90236 506.8
42.92862 507.8
42.95488 547.3
42.98114 582.6
43.0074 596.2
43.03366 612.1
43.05992 583.9
43.08618 550.8
43.11244 533.2
43.1387 546.7
43.16496 581.5
43.19122 567.5
43.21749 554.7
43.24375 571.7
43.27001 557.7
43.29627 594.4
43.32253 546.1
43.34879 571.4
43.37505 571.7
43.40131 496.5
43.42757 596.2
43.45383 500.5
43.48009 539.5
43.50636 580.8
43.53262 590.0
43.55888 571.4
43.58514 580.7
43.6114 541.6
43.63766 571.7
43.66392 592.3
43.69018 551.7
43.71645 568.8
43.74271 555.1
43.76897 568.3
43.79523 580.8
43.82149 594.8
43.84775 590.1
43.87401 624.6
43.90027 595.4
43.92653 568.8
43.95279 605.8
43.97905 569.1
44.00531 515.7
44.03158 521.6
44.05784 559.6
44.0841 561.6
44.11036 563.1
44.13662 609.0
44.16288 645.6
44.18914 574.5
44.2154 597.8
44.24166 582.1
44.26793 506.0
44.29419 610.4
44.32045 587.5
44.34671 586.3
44.37297 598.7
44.39923 610.0
44.42549 620.4
44.45175 604.8
44.47801 629.7
44.50428 629.9
44.53054 545.7
44.5568 622.8
44.58306 547.6
44.60932 609.0
44.63558 571.2
44.66184 620.4
44.6881 619.3
44.71436 578.1
44.74062 635.2
44.76688 644.0
44.79314 653.9
44.8194 618.1
44.84567 601.1
44.87193 588.3
44.89819 682.7
44.92445 695.7
44.95071 635.8
44.97697 662.4
45.00323 645.7
45.0295 631.3
45.05576 637.1
45.08202 620.6
45.10828 646.2
45.13454 652.1
45.1608 644.4
45.18706 578.0
45.21332 583.2
45.23958 610.3
45.26584 633.7
45.2921 641.6
45.31837 656.9
45.34463 634.3
45.37089 694.8
45.39715 634.8
45.42341 666.3
45.44967 651.4
45.47593 664.0
45.50219 636.1
45.52845 672.6
45.55471 594.3
45.58097 657.8
45.60723 645.5
45.6335 666.5
45.65976 629.3
45.68602 700.9
45.71228 668.5
45.73854 742.7
45.7648 663.6
45.79107 668.5
45.81733 715.5
45.84359 704.8
45.86985 635.3
45.89611 738.8
45.92237 709.9
45.94863 696.2
45.97489 708.3
46.00115 666.9
46.02741 712.4
46.05367 695.9
46.07993 721.8
46.10619 744.2
46.13246 731.4
46.15872 770.5
46.18498 762.9
46.21124 802.7
46.2375 781.1
46.26376 747.1
46.29002 734.2
46.31628 830.6
46.34254 777.3
46.3688 780.0
46.39507 764.4
46.42133 767.9
46.44759 768.6
46.47385 769.2
46.50011 773.7
46.52637 780.9
46.55263 767.6
46.57889 780.0
46.60516 760.0
46.63142 740.6
46.65768 726.2
46.68394 728.6
46.7102 713.9
46.73646 721.6
46.76272 707.5
46.78898 765.5
46.81524 756.6
46.8415 755.3
46.86776 735.2
46.89402 687.8
46.92029 677.8
46.94655 667.2
46.97281 731.6
46.99907 776.5
47.02533 714.0
47.05159 755.2
47.07785 768.3
47.10411 656.9
47.13037 696.0
47.15664 699.4
47.1829 692.7
47.20916 655.4
47.23542 712.7
47.26168 675.8
47.28794 697.4
47.3142 706.6
47.34046 743.7
47.36672 726.6
47.39299 788.1
47.41925 656.9
47.44551 655.1
47.47177 674.9
47.49803 635.6
47.52429 629.6
47.55055 655.8
47.57681 634.4
47.60307 602.9
47.62933 639.1
47.65559 647.7
47.68185 645.7
47.70811 618.4
47.73438 632.4
47.76064 620.1
47.7869 653.9
47.81316 620.4
47.83942 592.2
47.86568 607.7
47.89194 677.7
47.91821 607.9
47.94447 631.2
47.97073 694.6
47.99699 591.2
48.02325 647.1
48.04951 664.3
48.07577 554.5
48.10203 600.2
48.12829 603.4
48.15455 598.5
48.18081 575.5
48.20708 615.9
48.23334 607.2
48.2596 554.2
48.28586 571.0
48.31212 569.2
48.33838 607.4
48.36464 588.6
48.3909 615.7
48.41716 633.5
48.44342 573.0
48.46968 552.4
48.49594 556.2
48.52221 578.2
48.54847 533.6
48.57473 568.7
48.60099 516.8
48.62725 613.0
48.65351 609.3
48.67978 515.9
48.70604 496.3
48.7323 577.8
48.75856 553.0
48.78482 517.6
48.81108 561.3
48.83734 573.3
48.8636 509.5
48.88986 522.3
48.91612 565.4
48.94238 517.6
48.96864 505.9
48.9949 537.6
49.02117 529.4
49.04743 524.3
49.07369 500.2
49.09995 538.1
49.12621 492.2
49.15247 500.2
49.17873 521.2
49.20499 493.1
49.23125 539.5
49.25751 577.7
49.28378 522.6
49.31004 502.7
49.3363 511.0
49.36256 479.0
49.38882 458.5
49.41508 474.8
49.44134 489.7
49.4676 560.6
49.49387 456.6
49.52013 514.8
49.54639 453.7
49.57265 527.3
49.59891 460.3
49.62517 495.0
49.65143 489.3
49.67769 544.6
49.70395 476.4
49.73021 509.1
49.75647 460.2
49.78273 463.4
49.809 425.9
49.83526 440.6
49.86152 461.3
49.88778 522.0
49.91404 466.5
49.9403 524.3
49.96656 508.3
49.99282 474.1
50.01908 514.0
50.04535 579.1
50.07161 489.0
50.09787 515.5
50.12413 510.9
50.15039 492.7
50.17665 421.1
50.20291 433.0
50.22917 431.5
50.25543 453.5
50.2817 464.0
50.30796 510.2
50.33422 543.2
50.36048 512.2
50.38674 507.4
50.413 534.6
50.43926 526.5
50.46552 504.3
50.49178 486.1
50.51804 508.0
50.5443 494.3
50.57056 461.2
50.59682 492.3
50.62309 554.6
50.64935 500.3
50.67561 482.7
50.70187 563.9
50.72813 496.8
50.75439 464.0
50.78065 464.5
50.80692 461.0
50.83318 464.0
50.85944 475.9
50.8857 529.0
50.91196 457.3
50.93822 473.7
50.96448 438.7
50.99074 501.5
51.017 498.6
51.04326 435.3
51.06952 421.0
51.09579 495.7
51.12205 500.4
51.14831 494.6
51.17457 506.4
51.20083 460.2
51.22709 514.7
51.25335 451.3
51.27961 463.1
51.30587 484.0
51.33213 462.9
51.35839 465.3
51.38465 454.2
51.41092 492.5
51.43718 488.0
51.46344 479.8
51.4897 478.2
51.51596 493.1
51.54222 480.7
51.56849 474.8
51.59475 476.4
51.62101 470.0
51.64727 469.5
51.67353 453.2
51.69979 422.9
51.72605 487.0
51.75231 471.1
51.77857 458.1
51.80483 499.0
51.83109 472.2
51.85735 524.0
51.88361 464.8
51.90988 489.7
51.93614 485.8
51.9624 516.5
51.98866 467.8
52.01492 425.2
52.04118 489.0
52.06744 444.6
52.0937 427.4
52.11996 503.6
52.14622 439.7
52.17249 414.2
52.19875 486.4
52.22501 512.2
52.25127 454.9
52.27753 532.2
52.30379 514.1
52.33005 504.9
52.35631 443.4
52.38258 430.0
52.40884 419.0
52.4351 498.7
52.46136 458.7
52.48762 532.3
52.51388 497.2
52.54014 550.1
52.5664 523.3
52.59266 542.7
52.61892 573.4
52.64518 479.0
52.67144 503.7
52.69771 463.2
52.72397 512.1
52.75023 444.8
52.77649 482.0
52.80275 477.3
52.82901 483.9
52.85527 514.8
52.88153 526.5
52.90779 553.4
52.93406 481.3
52.96032 481.2
52.98658 435.6
53.01284 530.7
53.0391 460.3
53.06536 526.7
53.09162 533.6
53.11788 525.6
53.14414 537.8
53.1704 498.6
53.19667 455.7
53.22293 506.3
53.24919 486.9
53.27545 482.1
53.30171 496.2
53.32797 539.6
53.35423 528.2
53.38049 551.9
53.40675 524.5
53.43301 521.7
53.45927 540.6
53.48553 513.5
53.5118 465.7
53.53806 516.2
53.56432 518.3
53.59058 458.9
53.61684 480.2
53.6431 511.9
53.66936 539.4
53.69563 532.4
53.72189 520.8
53.74815 496.0
53.77441 502.6
53.80067 518.7
53.82693 482.3
53.85319 535.8
53.87945 528.7
53.90571 523.3
53.93197 580.5
53.95823 505.9
53.9845 539.5
54.01076 454.0
54.03702 479.0
54.06328 459.9
54.08954 506.7
54.1158 476.9
54.14206 512.1
54.16832 498.6
54.19458 522.8
54.22084 461.5
54.2471 477.9
54.27337 442.3
54.29963 503.2
54.32589 410.6
54.35215 440.8
54.37841 489.5
54.40467 487.2
54.43093 486.4
54.4572 426.0
54.48346 490.5
54.50972 474.4
54.53598 408.4
54.56224 409.1
54.5885 478.3
54.61476 450.2
54.64102 392.9
54.66728 444.5
54.69354 501.2
54.7198 456.4
54.74606 400.4
54.77232 460.7
54.79859 441.6
54.82485 436.7
54.85111 438.0
54.87737 442.2
54.90363 416.7
54.92989 435.8
54.95615 436.6
54.98241 495.7
55.00867 411.4
55.03493 422.2
55.0612 429.0
55.08746 433.4
55.11372 422.9
55.13998 474.4
55.16624 443.4
55.1925 448.4
55.21876 444.2
55.24502 484.2
55.27129 479.3
55.29755 405.5
55.32381 463.1
55.35007 473.8
55.37633 445.9
55.40259 437.5
55.42885 438.1
55.45511 465.1
55.48137 400.1
55.50763 419.2
55.53389 425.0
55.56015 480.7
55.58642 417.4
55.61268 404.6
55.63894 456.2
55.6652 402.2
55.69146 418.4
55.71772 433.2
55.74398 461.9
55.77024 461.7
55.7965 469.3
55.82277 428.1
55.84903 491.9
55.87529 489.6
55.90155 387.6
55.92781 431.5
55.95407 431.3
55.98033 458.3
56.00659 330.9
56.03285 415.2
56.05911 451.4
56.08538 412.1
56.11164 377.0
56.1379 435.0
56.16416 496.8
56.19042 423.6
56.21668 424.0
56.24294 465.9
56.2692 478.9
56.29546 459.4
56.32172 404.4
56.34798 421.7
56.37424 405.3
56.40051 369.8
56.42677 459.1
56.45303 404.7
56.47929 375.6
56.50555 405.6
56.53181 408.1
56.55807 410.3
56.58434 403.1
56.6106 364.0
56.63686 402.7
56.66312 395.6
56.68938 439.1
56.71564 435.4
56.7419 388.0
56.76816 397.9
56.79442 416.5
56.82068 393.4
56.84694 370.5
56.87321 418.9
56.89947 451.7
56.92573 322.1
56.95199 378.0
56.97825 451.2
57.00451 393.5
57.03077 401.0
57.05703 365.7
57.08329 422.8
57.10955 330.9
57.13581 328.3
57.16208 366.8
57.18834 353.7
57.2146 433.2
57.24086 368.5
57.26712 412.6
57.29338 419.1
57.31964 410.5
57.34591 412.7
57.37217 385.5
57.39843 389.1
57.42469 374.0
57.45095 343.9
57.47721 357.7
57.50347 389.1
57.52973 399.7
57.55599 368.0
57.58225 419.6
57.60851 433.6
57.63477 378.2
57.66103 351.6
57.6873 380.6
57.71356 400.3
57.73982 362.7
57.76608 363.0
57.79234 419.2
57.8186 405.9
57.84486 336.3
57.87112 417.3
57.89738 380.8
57.92365 417.4
57.94991 368.3
57.97617 383.4
58.00243 393.6
58.02869 397.0
58.05495 428.0
58.08121 375.2
58.10747 397.5
58.13373 430.6
58.16 390.2
58.18626 403.2
58.21252 423.0
58.23878 370.4
58.26504 402.7
58.2913 368.2
58.31756 362.3
58.34382 402.0
58.37008 345.1
58.39634 394.0
58.4226 390.3
58.44886 390.1
58.47513 408.8
58.50139 409.4
58.52765 362.9
58.55391 382.5
58.58017 408.0
58.60643 338.0
58.63269 350.3
58.65895 335.0
58.68521 406.7
58.71148 406.9
58.73774 331.3
58.764 404.0
58.79026 382.1
58.81652 415.0
58.84278 392.0
58.86904 390.5
58.8953 411.4
58.92156 386.2
58.94782 375.8
58.97409 361.8
59.00035 390.3
59.02661 388.4
59.05287 349.3
59.07913 376.4
59.10539 362.4
59.13165 430.9
59.15791 338.8
59.18417 370.2
59.21043 438.5
59.23669 352.2
59.26295 376.6
59.28922 438.3
59.31548 359.0
59.34174 369.1
59.368 328.2
59.39426 388.9
59.42052 396.9
59.44678 330.5
59.47305 390.2
59.49931 350.8
59.52557 436.8
59.55183 393.8
59.57809 335.2
59.60435 399.3
59.63061 389.8
59.65687 405.6
59.68313 344.3
59.70939 335.2
59.73565 401.4
59.76192 401.4
59.78818 434.4
59.81444 331.4
59.8407 379.5
59.86696 427.2
59.89322 408.3
59.91948 382.9
59.94574 339.5
59.972 426.3
59.99826 348.7
60.02452 387.7
60.05079 377.2
60.07705 428.8
60.10331 437.8
60.12957 394.4
60.15583 392.0
60.18209 354.9
60.20835 412.9
60.23461 477.0
60.26088 410.2
60.28714 424.9
60.3134 455.1
60.33966 448.2
60.36592 423.8
60.39218 385.6
60.41844 410.3
60.4447 507.8
60.47096 442.1
60.49722 444.4
60.52348 430.6
60.54974 468.2
60.57601 463.3
60.60227 466.8
60.62853 502.8
60.65479 477.2
60.68105 474.1
60.70731 504.3
60.73357 532.1
60.75983 467.8
60.78609 460.6
60.81236 499.1
60.83862 470.6
60.86488 487.6
60.89114 493.3
60.9174 506.9
60.94366 541.2
60.96992 498.7
60.99618 530.9
61.02244 519.2
61.04871 525.1
61.07497 462.8
61.10123 503.7
61.12749 499.4
61.15375 483.5
61.18001 503.2
61.20627 461.9
61.23253 541.7
61.25879 514.9
61.28505 525.6
61.31131 522.1
61.33757 522.8
61.36384 519.0
61.3901 500.4
61.41636 494.6
61.44262 482.2
61.46888 476.0
61.49514 476.6
61.5214 486.8
61.54766 504.8
61.57393 519.9
61.60019 525.7
61.62645 520.0
61.65271 531.5
61.67897 506.4
61.70523 492.4
61.73149 451.0
61.75775 467.2
61.78401 425.0
61.81027 461.8
61.83653 459.3
61.8628 491.6
61.88906 465.5
61.91532 490.8
61.94158 502.0
61.96784 483.8
61.9941 443.9
62.02036 498.9
62.04662 485.7
62.07288 476.5
62.09914 491.2
62.1254 448.5
62.15166 451.6
62.17793 492.7
62.20419 487.9
62.23045 489.5
62.25671 462.7
62.28297 440.2
62.30923 477.4
62.33549 411.6
62.36176 439.1
62.38802 456.1
62.41428 445.4
62.44054 449.9
62.4668 480.5
62.49306 487.6
62.51932 399.0
62.54558 441.5
62.57184 483.7
62.5981 450.0
62.62436 405.6
62.65063 400.0
62.67689 470.4
62.70315 431.9
62.72941 466.9
62.75567 369.5
62.78193 445.3
62.80819 425.2
62.83445 442.8
62.86071 361.0
62.88697 408.7
62.91323 409.4
62.9395 438.8
62.96576 395.2
62.99202 380.6
63.01828 391.3
63.04454 435.6
63.0708 402.0
63.09706 423.8
63.12332 394.5
63.14959 380.5
63.17585 383.6
63.20211 358.9
63.22837 384.4
63.25463 410.4
63.28089 419.7
63.30715 388.9
63.33341 355.3
63.35967 380.1
63.38593 375.9
63.41219 405.2
63.43845 342.8
63.46472 385.1
63.49098 383.9
63.51724 412.4
63.5435 403.2
63.56976 377.7
63.59602 346.8
63.62228 358.7
63.64854 384.6
63.6748 366.3
63.70107 361.1
63.72733 374.9
63.75359 338.3
63.77985 393.5
63.80611 405.9
63.83237 400.4
63.85863 428.0
63.88489 395.5
63.91115 408.6
63.93742 357.3
63.96368 357.8
63.98994 334.7
64.0162 351.9
64.04246 392.7
64.06872 342.1
64.09498 340.4
64.12124 337.7
64.1475 343.0
64.17377 363.6
64.20003 373.8
64.22629 338.3
64.25255 429.0
64.27881 332.0
64.30507 391.7
64.33133 348.9
64.35759 338.6
64.38385 329.5
64.41011 318.7
64.43637 315.0
64.46263 379.8
64.48889 342.2
64.51516 391.2
64.54142 302.3
64.56768 337.1
64.59394 346.0
64.6202 343.2
64.64646 347.0
64.67272 370.1
64.69898 305.7
64.72524 405.3
64.7515 411.6
64.77776 369.0
64.80402 394.1
64.83029 355.2
64.85655 375.6
64.88281 389.2
64.90907 283.3
64.93533 320.7
64.96159 380.8
64.98785 511.6
