[Measurement conditions]
Sample identification,142_AlAxial23Mar22_Act16Nov22_B1_1000M_NaOH_LS0133
Comment - 1,"Configuration=Stage for Flat Samples/Holders, Owner=User-1, Creation date=7/1/2020 9:53:24 AM"
Comment - 2,"Goniometer=Theta/Theta; Minimum step size 2Theta:0.0001; Minimum step size Omega:0.0001"
Comment - 3,"Sample stage=Stage for flat samples/holders"
Comment - 4,"Diffractometer system=EMPYREAN"
Comment - 5,"Measurement program=C:\Users\tmr79\OneDrive - The Pennsylvania State University\Documents\NEUP\XRD\Cement\Zerobackground scan.xrdmp, Identifier={98A3B11C-88F9-4AA6-982C-73314A311EF5}"
Anode material,Cu
K-Alpha1 wavelength,1.5405980
K-Alpha2 wavelength,1.5444260
Ratio K-Alpha2/K-Alpha1,0.500
Divergence slit,Fixed,0.25
Monochromator used,NO
Generator voltage, 45
Tube current, 40
File date and time,03/Apr/2023 11:18
Unit cell,
h k l, 0 0 0
Scan axis,Gonio
Scan range,4.994599997,64.999991833
Scan step size,0.0262606
No. of points, 2285
Scan type,CONTINUOUS
Time per step,96.390
[Scan points]
Angle, TimePerStep, Intensity, ESD
5.007730280, 96.390, 3825.0, 61.8466
5.033990845, 96.390, 3823.0, 61.8304
5.060251411, 96.390, 3830.0, 61.8870
5.086511976, 96.390, 3807.0, 61.7009
5.112772541, 96.390, 3803.0, 61.6685
5.139033107, 96.390, 3743.0, 61.1801
5.165293672, 96.390, 3761.0, 61.3270
5.191554237, 96.390, 3799.0, 61.6360
5.217814803, 96.390, 3687.0, 60.7207
5.244075368, 96.390, 3797.0, 61.6198
5.270335934, 96.390, 3702.0, 60.8441
5.296596499, 96.390, 3778.0, 61.4654
5.322857064, 96.390, 3637.0, 60.3075
5.349117630, 96.390, 3713.0, 60.9344
5.375378195, 96.390, 3770.0, 61.4003
5.401638760, 96.390, 3651.0, 60.4235
5.427899326, 96.390, 3738.0, 61.1392
5.454159891, 96.390, 3631.0, 60.2578
5.480420456, 96.390, 3702.0, 60.8441
5.506681022, 96.390, 3665.0, 60.5392
5.532941587, 96.390, 3578.0, 59.8164
5.559202152, 96.390, 3725.0, 61.0328
5.585462718, 96.390, 3608.0, 60.0666
5.611723283, 96.390, 3621.0, 60.1747
5.637983849, 96.390, 3672.0, 60.5970
5.664244414, 96.390, 3576.0, 59.7997
5.690504979, 96.390, 3700.0, 60.8276
5.716765545, 96.390, 3632.0, 60.2661
5.743026110, 96.390, 3598.0, 59.9833
5.769286675, 96.390, 3642.0, 60.3490
5.795547241, 96.390, 3695.0, 60.7865
5.821807806, 96.390, 3665.0, 60.5392
5.848068371, 96.390, 3675.0, 60.6218
5.874328937, 96.390, 3612.0, 60.0999
5.900589502, 96.390, 3669.0, 60.5723
5.926850067, 96.390, 3677.0, 60.6383
5.953110633, 96.390, 3559.0, 59.6574
5.979371198, 96.390, 3568.0, 59.7327
6.005631763, 96.390, 3677.0, 60.6383
6.031892329, 96.390, 3601.0, 60.0083
6.058152894, 96.390, 3667.0, 60.5558
6.084413460, 96.390, 3658.0, 60.4814
6.110674025, 96.390, 3611.0, 60.0916
6.136934590, 96.390, 3518.0, 59.3127
6.163195156, 96.390, 3533.0, 59.4390
6.189455721, 96.390, 3581.0, 59.8415
6.215716286, 96.390, 3651.0, 60.4235
6.241976852, 96.390, 3504.0, 59.1946
6.268237417, 96.390, 3571.0, 59.7578
6.294497982, 96.390, 3479.0, 58.9830
6.320758548, 96.390, 3572.0, 59.7662
6.347019113, 96.390, 3638.0, 60.3158
6.373279678, 96.390, 3543.0, 59.5231
6.399540244, 96.390, 3508.0, 59.2284
6.425800809, 96.390, 3459.0, 58.8133
6.452061375, 96.390, 3427.0, 58.5406
6.478321940, 96.390, 3541.0, 59.5063
6.504582505, 96.390, 3522.0, 59.3464
6.530843071, 96.390, 3621.0, 60.1747
6.557103636, 96.390, 3592.0, 59.9333
6.583364201, 96.390, 3425.0, 58.5235
6.609624767, 96.390, 3542.0, 59.5147
6.635885332, 96.390, 3470.0, 58.9067
6.662145897, 96.390, 3467.0, 58.8812
6.688406463, 96.390, 3506.0, 59.2115
6.714667028, 96.390, 3470.0, 58.9067
6.740927593, 96.390, 3519.0, 59.3212
6.767188159, 96.390, 3510.0, 59.2453
6.793448724, 96.390, 3549.0, 59.5735
6.819709289, 96.390, 3493.0, 59.1016
6.845969855, 96.390, 3497.0, 59.1354
6.872230420, 96.390, 3459.0, 58.8133
6.898490986, 96.390, 3514.0, 59.2790
6.924751551, 96.390, 3561.0, 59.6741
6.951012116, 96.390, 3428.0, 58.5491
6.977272682, 96.390, 3456.0, 58.7878
7.003533247, 96.390, 3452.0, 58.7537
7.029793812, 96.390, 3504.0, 59.1946
7.056054378, 96.390, 3401.0, 58.3181
7.082314943, 96.390, 3516.0, 59.2959
7.108575508, 96.390, 3419.0, 58.4722
7.134836074, 96.390, 3354.0, 57.9137
7.161096639, 96.390, 3557.0, 59.6406
7.187357204, 96.390, 3458.0, 58.8048
7.213617770, 96.390, 3479.0, 58.9830
7.239878335, 96.390, 3427.0, 58.5406
7.266138900, 96.390, 3386.0, 58.1893
7.292399466, 96.390, 3351.0, 57.8878
7.318660031, 96.390, 3447.0, 58.7112
7.344920597, 96.390, 3421.0, 58.4893
7.371181162, 96.390, 3383.0, 58.1636
7.397441727, 96.390, 3377.0, 58.1120
7.423702293, 96.390, 3355.0, 57.9224
7.449962858, 96.390, 3303.0, 57.4717
7.476223423, 96.390, 3355.0, 57.9224
7.502483989, 96.390, 3250.0, 57.0088
7.528744554, 96.390, 3414.0, 58.4294
7.555005119, 96.390, 3319.0, 57.6108
7.581265685, 96.390, 3431.0, 58.5747
7.607526250, 96.390, 3286.0, 57.3236
7.633786815, 96.390, 3228.0, 56.8155
7.660047381, 96.390, 3354.0, 57.9137
7.686307946, 96.390, 3330.0, 57.7062
7.712568512, 96.390, 3320.0, 57.6194
7.738829077, 96.390, 3231.0, 56.8419
7.765089642, 96.390, 3251.0, 57.0175
7.791350208, 96.390, 3238.0, 56.9034
7.817610773, 96.390, 3296.0, 57.4108
7.843871338, 96.390, 3273.0, 57.2101
7.870131904, 96.390, 3291.0, 57.3672
7.896392469, 96.390, 3219.0, 56.7362
7.922653034, 96.390, 3224.0, 56.7803
7.948913600, 96.390, 3247.0, 56.9825
7.975174165, 96.390, 3205.0, 56.6127
8.001434730, 96.390, 3329.0, 57.6975
8.027695296, 96.390, 3320.0, 57.6194
8.053955861, 96.390, 3125.0, 55.9017
8.080216426, 96.390, 3258.0, 57.0789
8.106476992, 96.390, 3214.0, 56.6922
8.132737557, 96.390, 3176.0, 56.3560
8.158998123, 96.390, 3167.0, 56.2761
8.185258688, 96.390, 3243.0, 56.9473
8.211519253, 96.390, 3250.0, 57.0088
8.237779819, 96.390, 3261.0, 57.1052
8.264040384, 96.390, 3166.0, 56.2672
8.290300949, 96.390, 3222.0, 56.7627
8.316561515, 96.390, 3184.0, 56.4269
8.342822080, 96.390, 3193.0, 56.5066
8.369082645, 96.390, 3270.0, 57.1839
8.395343211, 96.390, 3299.0, 57.4369
8.421603776, 96.390, 3189.0, 56.4712
8.447864341, 96.390, 3119.0, 55.8480
8.474124907, 96.390, 3147.0, 56.0981
8.500385472, 96.390, 3185.0, 56.4358
8.526646038, 96.390, 3071.0, 55.4166
8.552906603, 96.390, 3287.0, 57.3324
8.579167168, 96.390, 3209.0, 56.6480
8.605427734, 96.390, 3092.0, 55.6058
8.631688299, 96.390, 3170.0, 56.3028
8.657948864, 96.390, 3144.0, 56.0714
8.684209430, 96.390, 3099.0, 55.6687
8.710469995, 96.390, 2981.0, 54.5985
8.736730560, 96.390, 3115.0, 55.8122
8.762991126, 96.390, 3168.0, 56.2850
8.789251691, 96.390, 3192.0, 56.4978
8.815512256, 96.390, 3042.0, 55.1543
8.841772822, 96.390, 3006.0, 54.8270
8.868033387, 96.390, 3134.0, 55.9821
8.894293952, 96.390, 3071.0, 55.4166
8.920554518, 96.390, 3090.0, 55.5878
8.946815083, 96.390, 3018.0, 54.9363
8.973075649, 96.390, 3101.0, 55.6866
8.999336214, 96.390, 3034.0, 55.0818
9.025596779, 96.390, 2931.0, 54.1387
9.051857345, 96.390, 2994.0, 54.7175
9.078117910, 96.390, 3008.0, 54.8452
9.104378475, 96.390, 2935.0, 54.1756
9.130639041, 96.390, 3013.0, 54.8908
9.156899606, 96.390, 3065.0, 55.3624
9.183160171, 96.390, 2983.0, 54.6168
9.209420737, 96.390, 3105.0, 55.7225
9.235681302, 96.390, 2967.0, 54.4702
9.261941867, 96.390, 2989.0, 54.6717
9.288202433, 96.390, 2983.0, 54.6168
9.314462998, 96.390, 2904.0, 53.8888
9.340723564, 96.390, 2963.0, 54.4334
9.366984129, 96.390, 2974.0, 54.5344
9.393244694, 96.390, 2908.0, 53.9259
9.419505260, 96.390, 2784.0, 52.7636
9.445765825, 96.390, 3027.0, 55.0182
9.472026390, 96.390, 2869.0, 53.5630
9.498286956, 96.390, 2960.0, 54.4059
9.524547521, 96.390, 3064.0, 55.3534
9.550808086, 96.390, 2863.0, 53.5070
9.577068652, 96.390, 3021.0, 54.9636
9.603329217, 96.390, 2853.0, 53.4135
9.629589782, 96.390, 2928.0, 54.1110
9.655850348, 96.390, 2999.0, 54.7631
9.682110913, 96.390, 2977.0, 54.5619
9.708371478, 96.390, 2873.0, 53.6004
9.734632044, 96.390, 2814.0, 53.0471
9.760892609, 96.390, 2788.0, 52.8015
9.787153175, 96.390, 2853.0, 53.4135
9.813413740, 96.390, 2823.0, 53.1319
9.839674305, 96.390, 2856.0, 53.4416
9.865934871, 96.390, 2885.0, 53.7122
9.892195436, 96.390, 2903.0, 53.8795
9.918456001, 96.390, 2861.0, 53.4883
9.944716567, 96.390, 2928.0, 54.1110
9.970977132, 96.390, 2962.0, 54.4243
9.997237697, 96.390, 2873.0, 53.6004
10.023498263, 96.390, 2871.0, 53.5817
10.049758828, 96.390, 2906.0, 53.9073
10.076019393, 96.390, 2862.0, 53.4977
10.102279959, 96.390, 2776.0, 52.6878
10.128540524, 96.390, 2823.0, 53.1319
10.154801090, 96.390, 2779.0, 52.7162
10.181061655, 96.390, 2747.0, 52.4118
10.207322220, 96.390, 2793.0, 52.8488
10.233582786, 96.390, 2753.0, 52.4690
10.259843351, 96.390, 2814.0, 53.0471
10.286103916, 96.390, 2795.0, 52.8678
10.312364482, 96.390, 2732.0, 52.2685
10.338625047, 96.390, 2766.0, 52.5928
10.364885612, 96.390, 2768.0, 52.6118
10.391146178, 96.390, 2704.0, 52.0000
10.417406743, 96.390, 2792.0, 52.8394
10.443667308, 96.390, 2804.0, 52.9528
10.469927874, 96.390, 2808.0, 52.9906
10.496188439, 96.390, 2675.0, 51.7204
10.522449004, 96.390, 2794.0, 52.8583
10.548709570, 96.390, 2742.0, 52.3641
10.574970135, 96.390, 2715.0, 52.1057
10.601230701, 96.390, 2807.0, 52.9811
10.627491266, 96.390, 2649.0, 51.4684
10.653751831, 96.390, 2713.0, 52.0865
10.680012397, 96.390, 2686.0, 51.8266
10.706272962, 96.390, 2617.0, 51.1566
10.732533527, 96.390, 2647.0, 51.4490
10.758794093, 96.390, 2723.0, 52.1824
10.785054658, 96.390, 2769.0, 52.6213
10.811315223, 96.390, 2700.0, 51.9615
10.837575789, 96.390, 2659.0, 51.5655
10.863836354, 96.390, 2675.0, 51.7204
10.890096919, 96.390, 2714.0, 52.0961
10.916357485, 96.390, 2696.0, 51.9230
10.942618050, 96.390, 2657.0, 51.5461
10.968878616, 96.390, 2797.0, 52.8867
10.995139181, 96.390, 2670.0, 51.6720
11.021399746, 96.390, 2705.0, 52.0096
11.047660312, 96.390, 2580.0, 50.7937
11.073920877, 96.390, 2701.0, 51.9711
11.100181442, 96.390, 2619.0, 51.1762
11.126442008, 96.390, 2560.0, 50.5964
11.152702573, 96.390, 2621.0, 51.1957
11.178963138, 96.390, 2636.0, 51.3420
11.205223704, 96.390, 2629.0, 51.2738
11.231484269, 96.390, 2649.0, 51.4684
11.257744834, 96.390, 2608.0, 51.0686
11.284005400, 96.390, 2600.0, 50.9902
11.310265965, 96.390, 2610.0, 51.0882
11.336526530, 96.390, 2605.0, 51.0392
11.362787096, 96.390, 2606.0, 51.0490
11.389047661, 96.390, 2597.0, 50.9608
11.415308227, 96.390, 2643.0, 51.4101
11.441568792, 96.390, 2656.0, 51.5364
11.467829357, 96.390, 2539.0, 50.3885
11.494089923, 96.390, 2576.0, 50.7543
11.520350488, 96.390, 2674.0, 51.7107
11.546611053, 96.390, 2526.0, 50.2593
11.572871619, 96.390, 2466.0, 49.6588
11.599132184, 96.390, 2615.0, 51.1371
11.625392749, 96.390, 2563.0, 50.6261
11.651653315, 96.390, 2601.0, 51.0000
11.677913880, 96.390, 2561.0, 50.6063
11.704174445, 96.390, 2538.0, 50.3786
11.730435011, 96.390, 2467.0, 49.6689
11.756695576, 96.390, 2514.0, 50.1398
11.782956141, 96.390, 2588.0, 50.8724
11.809216707, 96.390, 2568.0, 50.6754
11.835477272, 96.390, 2638.0, 51.3615
11.861737838, 96.390, 2524.0, 50.2394
11.887998403, 96.390, 2500.0, 50.0000
11.914258968, 96.390, 2494.0, 49.9400
11.940519534, 96.390, 2528.0, 50.2792
11.966780099, 96.390, 2500.0, 50.0000
11.993040664, 96.390, 2550.0, 50.4975
12.019301230, 96.390, 2486.0, 49.8598
12.045561795, 96.390, 2526.0, 50.2593
12.071822360, 96.390, 2422.0, 49.2138
12.098082926, 96.390, 2520.0, 50.1996
12.124343491, 96.390, 2491.0, 49.9099
12.150604056, 96.390, 2522.0, 50.2195
12.176864622, 96.390, 2462.0, 49.6185
12.203125187, 96.390, 2431.0, 49.3052
12.229385753, 96.390, 2493.0, 49.9300
12.255646318, 96.390, 2519.0, 50.1896
12.281906883, 96.390, 2469.0, 49.6890
12.308167449, 96.390, 2472.0, 49.7192
12.334428014, 96.390, 2461.0, 49.6085
12.360688579, 96.390, 2422.0, 49.2138
12.386949145, 96.390, 2502.0, 50.0200
12.413209710, 96.390, 2388.0, 48.8672
12.439470275, 96.390, 2519.0, 50.1896
12.465730841, 96.390, 2434.0, 49.3356
12.491991406, 96.390, 2479.0, 49.7896
12.518251971, 96.390, 2371.0, 48.6929
12.544512537, 96.390, 2479.0, 49.7896
12.570773102, 96.390, 2458.0, 49.5782
12.597033667, 96.390, 2446.0, 49.4571
12.623294233, 96.390, 2442.0, 49.4166
12.649554798, 96.390, 2437.0, 49.3660
12.675815364, 96.390, 2481.0, 49.8096
12.702075929, 96.390, 2357.0, 48.5489
12.728336494, 96.390, 2429.0, 49.2849
12.754597060, 96.390, 2408.0, 49.0714
12.780857625, 96.390, 2384.0, 48.8262
12.807118190, 96.390, 2411.0, 49.1019
12.833378756, 96.390, 2373.0, 48.7134
12.859639321, 96.390, 2394.0, 48.9285
12.885899886, 96.390, 2384.0, 48.8262
12.912160452, 96.390, 2352.0, 48.4974
12.938421017, 96.390, 2366.0, 48.6415
12.964681582, 96.390, 2469.0, 49.6890
12.990942148, 96.390, 2373.0, 48.7134
13.017202713, 96.390, 2340.0, 48.3735
13.043463279, 96.390, 2382.0, 48.8057
13.069723844, 96.390, 2295.0, 47.9062
13.095984409, 96.390, 2337.0, 48.3425
13.122244975, 96.390, 2403.0, 49.0204
13.148505540, 96.390, 2457.0, 49.5681
13.174766105, 96.390, 2193.0, 46.8295
13.201026671, 96.390, 2397.0, 48.9592
13.227287236, 96.390, 2374.0, 48.7237
13.253547801, 96.390, 2268.0, 47.6235
13.279808367, 96.390, 2295.0, 47.9062
13.306068932, 96.390, 2331.0, 48.2804
13.332329497, 96.390, 2318.0, 48.1456
13.358590063, 96.390, 2376.0, 48.7442
13.384850628, 96.390, 2289.0, 47.8435
13.411111193, 96.390, 2197.0, 46.8722
13.437371759, 96.390, 2332.0, 48.2908
13.463632324, 96.390, 2329.0, 48.2597
13.489892890, 96.390, 2327.0, 48.2390
13.516153455, 96.390, 2258.0, 47.5184
13.542414020, 96.390, 2367.0, 48.6518
13.568674586, 96.390, 2314.0, 48.1041
13.594935151, 96.390, 2441.0, 49.4065
13.621195716, 96.390, 2307.0, 48.0312
13.647456282, 96.390, 2242.0, 47.3498
13.673716847, 96.390, 2290.0, 47.8539
13.699977412, 96.390, 2226.0, 47.1805
13.726237978, 96.390, 2298.0, 47.9375
13.752498543, 96.390, 2330.0, 48.2701
13.778759108, 96.390, 2243.0, 47.3603
13.805019674, 96.390, 2307.0, 48.0312
13.831280239, 96.390, 2334.0, 48.3115
13.857540805, 96.390, 2357.0, 48.5489
13.883801370, 96.390, 2263.0, 47.5710
13.910061935, 96.390, 2304.0, 48.0000
13.936322501, 96.390, 2269.0, 47.6340
13.962583066, 96.390, 2301.0, 47.9687
13.988843631, 96.390, 2297.0, 47.9270
14.015104197, 96.390, 2294.0, 47.8957
14.041364762, 96.390, 2266.0, 47.6025
14.067625327, 96.390, 2334.0, 48.3115
14.093885893, 96.390, 2267.0, 47.6130
14.120146458, 96.390, 2220.0, 47.1169
14.146407023, 96.390, 2252.0, 47.4552
14.172667589, 96.390, 2288.0, 47.8330
14.198928154, 96.390, 2303.0, 47.9896
14.225188719, 96.390, 2244.0, 47.3709
14.251449285, 96.390, 2219.0, 47.1063
14.277709850, 96.390, 2229.0, 47.2123
14.303970416, 96.390, 2188.0, 46.7761
14.330230981, 96.390, 2138.0, 46.2385
14.356491546, 96.390, 2283.0, 47.7807
14.382752112, 96.390, 2332.0, 48.2908
14.409012677, 96.390, 2206.0, 46.9681
14.435273242, 96.390, 2213.0, 47.0425
14.461533808, 96.390, 2188.0, 46.7761
14.487794373, 96.390, 2266.0, 47.6025
14.514054938, 96.390, 2193.0, 46.8295
14.540315504, 96.390, 2186.0, 46.7547
14.566576069, 96.390, 2141.0, 46.2709
14.592836634, 96.390, 2181.0, 46.7012
14.619097200, 96.390, 2245.0, 47.3814
14.645357765, 96.390, 2247.0, 47.4025
14.671618331, 96.390, 2129.0, 46.1411
14.697878896, 96.390, 2173.0, 46.6154
14.724139461, 96.390, 2123.0, 46.0760
14.750400027, 96.390, 2127.0, 46.1194
14.776660592, 96.390, 2207.0, 46.9787
14.802921157, 96.390, 2252.0, 47.4552
14.829181723, 96.390, 2218.0, 47.0956
14.855442288, 96.390, 2159.0, 46.4650
14.881702853, 96.390, 2216.0, 47.0744
14.907963419, 96.390, 2194.0, 46.8402
14.934223984, 96.390, 2230.0, 47.2229
14.960484549, 96.390, 2369.0, 48.6724
14.986745115, 96.390, 2137.0, 46.2277
15.013005680, 96.390, 2265.0, 47.5920
15.039266245, 96.390, 2172.0, 46.6047
15.065526811, 96.390, 2215.0, 47.0638
15.091787376, 96.390, 2188.0, 46.7761
15.118047942, 96.390, 2237.0, 47.2969
15.144308507, 96.390, 2186.0, 46.7547
15.170569072, 96.390, 2062.0, 45.4093
15.196829638, 96.390, 2148.0, 46.3465
15.223090203, 96.390, 2234.0, 47.2652
15.249350768, 96.390, 2220.0, 47.1169
15.275611334, 96.390, 2128.0, 46.1303
15.301871899, 96.390, 2217.0, 47.0850
15.328132464, 96.390, 2119.0, 46.0326
15.354393030, 96.390, 2144.0, 46.3033
15.380653595, 96.390, 2190.0, 46.7974
15.406914160, 96.390, 2168.0, 46.5618
15.433174726, 96.390, 2189.0, 46.7868
15.459435291, 96.390, 2153.0, 46.4004
15.485695857, 96.390, 2120.0, 46.0435
15.511956422, 96.390, 2144.0, 46.3033
15.538216987, 96.390, 2221.0, 47.1275
15.564477553, 96.390, 2175.0, 46.6369
15.590738118, 96.390, 2168.0, 46.5618
15.616998683, 96.390, 2078.0, 45.5851
15.643259249, 96.390, 2111.0, 45.9456
15.669519814, 96.390, 2193.0, 46.8295
15.695780379, 96.390, 2085.0, 45.6618
15.722040945, 96.390, 2063.0, 45.4203
15.748301510, 96.390, 2097.0, 45.7930
15.774562075, 96.390, 2099.0, 45.8148
15.800822641, 96.390, 2224.0, 47.1593
15.827083206, 96.390, 2135.0, 46.2061
15.853343771, 96.390, 2157.0, 46.4435
15.879604337, 96.390, 2142.0, 46.2817
15.905864902, 96.390, 2128.0, 46.1303
15.932125468, 96.390, 2074.0, 45.5412
15.958386033, 96.390, 2143.0, 46.2925
15.984646598, 96.390, 2203.0, 46.9361
16.010907164, 96.390, 2148.0, 46.3465
16.037167729, 96.390, 2109.0, 45.9239
16.063428294, 96.390, 2062.0, 45.4093
16.089688860, 96.390, 2057.0, 45.3542
16.115949425, 96.390, 2199.0, 46.8935
16.142209990, 96.390, 2185.0, 46.7440
16.168470556, 96.390, 2093.0, 45.7493
16.194731121, 96.390, 2173.0, 46.6154
16.220991686, 96.390, 2145.0, 46.3141
16.247252252, 96.390, 2062.0, 45.4093
16.273512817, 96.390, 2130.0, 46.1519
16.299773382, 96.390, 2094.0, 45.7602
16.326033948, 96.390, 2044.0, 45.2106
16.352294513, 96.390, 2086.0, 45.6727
16.378555079, 96.390, 2155.0, 46.4220
16.404815644, 96.390, 2142.0, 46.2817
16.431076209, 96.390, 2122.0, 46.0652
16.457336775, 96.390, 2175.0, 46.6369
16.483597340, 96.390, 2108.0, 45.9130
16.509857905, 96.390, 2132.0, 46.1736
16.536118471, 96.390, 2089.0, 45.7056
16.562379036, 96.390, 2201.0, 46.9148
16.588639601, 96.390, 2156.0, 46.4327
16.614900167, 96.390, 2154.0, 46.4112
16.641160732, 96.390, 2246.0, 47.3920
16.667421297, 96.390, 2120.0, 46.0435
16.693681863, 96.390, 2179.0, 46.6798
16.719942428, 96.390, 2113.0, 45.9674
16.746202994, 96.390, 2099.0, 45.8148
16.772463559, 96.390, 2178.0, 46.6690
16.798724124, 96.390, 2111.0, 45.9456
16.824984690, 96.390, 2133.0, 46.1844
16.851245255, 96.390, 2146.0, 46.3249
16.877505820, 96.390, 2125.0, 46.0977
16.903766386, 96.390, 2134.0, 46.1952
16.930026951, 96.390, 2292.0, 47.8748
16.956287516, 96.390, 2203.0, 46.9361
16.982548082, 96.390, 2179.0, 46.6798
17.008808647, 96.390, 2179.0, 46.6798
17.035069212, 96.390, 2190.0, 46.7974
17.061329778, 96.390, 2158.0, 46.4543
17.087590343, 96.390, 2153.0, 46.4004
17.113850908, 96.390, 2306.0, 48.0208
17.140111474, 96.390, 2184.0, 46.7333
17.166372039, 96.390, 2019.0, 44.9333
17.192632605, 96.390, 2343.0, 48.4045
17.218893170, 96.390, 2145.0, 46.3141
17.245153735, 96.390, 2210.0, 47.0106
17.271414301, 96.390, 2154.0, 46.4112
17.297674866, 96.390, 2229.0, 47.2123
17.323935431, 96.390, 2239.0, 47.3181
17.350195997, 96.390, 2147.0, 46.3357
17.376456562, 96.390, 2146.0, 46.3249
17.402717127, 96.390, 2187.0, 46.7654
17.428977693, 96.390, 2132.0, 46.1736
17.455238258, 96.390, 2223.0, 47.1487
17.481498823, 96.390, 2273.0, 47.6760
17.507759389, 96.390, 2307.0, 48.0312
17.534019954, 96.390, 2161.0, 46.4866
17.560280520, 96.390, 2150.0, 46.3681
17.586541085, 96.390, 2179.0, 46.6798
17.612801650, 96.390, 2194.0, 46.8402
17.639062216, 96.390, 2141.0, 46.2709
17.665322781, 96.390, 2173.0, 46.6154
17.691583346, 96.390, 2184.0, 46.7333
17.717843912, 96.390, 2118.0, 46.0217
17.744104477, 96.390, 2248.0, 47.4131
17.770365042, 96.390, 2106.0, 45.8912
17.796625608, 96.390, 2251.0, 47.4447
17.822886173, 96.390, 2185.0, 46.7440
17.849146738, 96.390, 2162.0, 46.4973
17.875407304, 96.390, 2220.0, 47.1169
17.901667869, 96.390, 2150.0, 46.3681
17.927928434, 96.390, 2250.0, 47.4342
17.954189000, 96.390, 2222.0, 47.1381
17.980449565, 96.390, 2221.0, 47.1275
18.006710131, 96.390, 2164.0, 46.5188
18.032970696, 96.390, 2199.0, 46.8935
18.059231261, 96.390, 2135.0, 46.2061
18.085491827, 96.390, 2243.0, 47.3603
18.111752392, 96.390, 2263.0, 47.5710
18.138012957, 96.390, 2280.0, 47.7493
18.164273523, 96.390, 2176.0, 46.6476
18.190534088, 96.390, 2236.0, 47.2864
18.216794653, 96.390, 2218.0, 47.0956
18.243055219, 96.390, 2137.0, 46.2277
18.269315784, 96.390, 2279.0, 47.7389
18.295576349, 96.390, 2252.0, 47.4552
18.321836915, 96.390, 2221.0, 47.1275
18.348097480, 96.390, 2159.0, 46.4650
18.374358046, 96.390, 2226.0, 47.1805
18.400618611, 96.390, 2214.0, 47.0532
18.426879176, 96.390, 2219.0, 47.1063
18.453139742, 96.390, 2317.0, 48.1352
18.479400307, 96.390, 2260.0, 47.5395
18.505660872, 96.390, 2255.0, 47.4868
18.531921438, 96.390, 2240.0, 47.3286
18.558182003, 96.390, 2273.0, 47.6760
18.584442568, 96.390, 2311.0, 48.0729
18.610703134, 96.390, 2272.0, 47.6655
18.636963699, 96.390, 2331.0, 48.2804
18.663224264, 96.390, 2282.0, 47.7703
18.689484830, 96.390, 2218.0, 47.0956
18.715745395, 96.390, 2179.0, 46.6798
18.742005960, 96.390, 2256.0, 47.4974
18.768266526, 96.390, 2288.0, 47.8330
18.794527091, 96.390, 2277.0, 47.7179
18.820787657, 96.390, 2282.0, 47.7703
18.847048222, 96.390, 2185.0, 46.7440
18.873308787, 96.390, 2276.0, 47.7074
18.899569353, 96.390, 2234.0, 47.2652
18.925829918, 96.390, 2267.0, 47.6130
18.952090483, 96.390, 2339.0, 48.3632
18.978351049, 96.390, 2343.0, 48.4045
19.004611614, 96.390, 2270.0, 47.6445
19.030872179, 96.390, 2279.0, 47.7389
19.057132745, 96.390, 2291.0, 47.8644
19.083393310, 96.390, 2333.0, 48.3011
19.109653875, 96.390, 2379.0, 48.7750
19.135914441, 96.390, 2208.0, 46.9894
19.162175006, 96.390, 2293.0, 47.8853
19.188435572, 96.390, 2244.0, 47.3709
19.214696137, 96.390, 2321.0, 48.1768
19.240956702, 96.390, 2255.0, 47.4868
19.267217268, 96.390, 2361.0, 48.5901
19.293477833, 96.390, 2331.0, 48.2804
19.319738398, 96.390, 2266.0, 47.6025
19.345998964, 96.390, 2316.0, 48.1248
19.372259529, 96.390, 2281.0, 47.7598
19.398520094, 96.390, 2408.0, 49.0714
19.424780660, 96.390, 2360.0, 48.5798
19.451041225, 96.390, 2242.0, 47.3498
19.477301790, 96.390, 2318.0, 48.1456
19.503562356, 96.390, 2341.0, 48.3839
19.529822921, 96.390, 2326.0, 48.2286
19.556083486, 96.390, 2403.0, 49.0204
19.582344052, 96.390, 2418.0, 49.1732
19.608604617, 96.390, 2355.0, 48.5283
19.634865183, 96.390, 2435.0, 49.3457
19.661125748, 96.390, 2318.0, 48.1456
19.687386313, 96.390, 2380.0, 48.7852
19.713646879, 96.390, 2354.0, 48.5180
19.739907444, 96.390, 2364.0, 48.6210
19.766168009, 96.390, 2322.0, 48.1871
19.792428575, 96.390, 2355.0, 48.5283
19.818689140, 96.390, 2402.0, 49.0102
19.844949705, 96.390, 2368.0, 48.6621
19.871210271, 96.390, 2448.0, 49.4773
19.897470836, 96.390, 2398.0, 48.9694
19.923731401, 96.390, 2449.0, 49.4874
19.949991967, 96.390, 2486.0, 49.8598
19.976252532, 96.390, 2323.0, 48.1975
20.002513098, 96.390, 2396.0, 48.9490
20.028773663, 96.390, 2547.0, 50.4678
20.055034228, 96.390, 2472.0, 49.7192
20.081294794, 96.390, 2460.0, 49.5984
20.107555359, 96.390, 2418.0, 49.1732
20.133815924, 96.390, 2439.0, 49.3862
20.160076490, 96.390, 2475.0, 49.7494
20.186337055, 96.390, 2465.0, 49.6488
20.212597620, 96.390, 2516.0, 50.1597
20.238858186, 96.390, 2470.0, 49.6991
20.265118751, 96.390, 2501.0, 50.0100
20.291379316, 96.390, 2450.0, 49.4975
20.317639882, 96.390, 2417.0, 49.1630
20.343900447, 96.390, 2468.0, 49.6790
20.370161012, 96.390, 2428.0, 49.2747
20.396421578, 96.390, 2457.0, 49.5681
20.422682143, 96.390, 2539.0, 50.3885
20.448942709, 96.390, 2442.0, 49.4166
20.475203274, 96.390, 2481.0, 49.8096
20.501463839, 96.390, 2470.0, 49.6991
20.527724405, 96.390, 2444.0, 49.4368
20.553984970, 96.390, 2510.0, 50.0999
20.580245535, 96.390, 2397.0, 48.9592
20.606506101, 96.390, 2562.0, 50.6162
20.632766666, 96.390, 2548.0, 50.4777
20.659027231, 96.390, 2504.0, 50.0400
20.685287797, 96.390, 2515.0, 50.1498
20.711548362, 96.390, 2457.0, 49.5681
20.737808927, 96.390, 2475.0, 49.7494
20.764069493, 96.390, 2597.0, 50.9608
20.790330058, 96.390, 2551.0, 50.5074
20.816590623, 96.390, 2435.0, 49.3457
20.842851189, 96.390, 2525.0, 50.2494
20.869111754, 96.390, 2463.0, 49.6286
20.895372320, 96.390, 2598.0, 50.9706
20.921632885, 96.390, 2531.0, 50.3090
20.947893450, 96.390, 2473.0, 49.7293
20.974154016, 96.390, 2520.0, 50.1996
21.000414581, 96.390, 2481.0, 49.8096
21.026675146, 96.390, 2469.0, 49.6890
21.052935712, 96.390, 2628.0, 51.2640
21.079196277, 96.390, 2567.0, 50.6656
21.105456842, 96.390, 2537.0, 50.3686
21.131717408, 96.390, 2564.0, 50.6360
21.157977973, 96.390, 2500.0, 50.0000
21.184238538, 96.390, 2503.0, 50.0300
21.210499104, 96.390, 2576.0, 50.7543
21.236759669, 96.390, 2571.0, 50.7050
21.263020235, 96.390, 2638.0, 51.3615
21.289280800, 96.390, 2555.0, 50.5470
21.315541365, 96.390, 2562.0, 50.6162
21.341801931, 96.390, 2610.0, 51.0882
21.368062496, 96.390, 2554.0, 50.5371
21.394323061, 96.390, 2515.0, 50.1498
21.420583627, 96.390, 2555.0, 50.5470
21.446844192, 96.390, 2649.0, 51.4684
21.473104757, 96.390, 2593.0, 50.9215
21.499365323, 96.390, 2467.0, 49.6689
21.525625888, 96.390, 2623.0, 51.2152
21.551886453, 96.390, 2599.0, 50.9804
21.578147019, 96.390, 2570.0, 50.6952
21.604407584, 96.390, 2617.0, 51.1566
21.630668149, 96.390, 2548.0, 50.4777
21.656928715, 96.390, 2614.0, 51.1273
21.683189280, 96.390, 2597.0, 50.9608
21.709449846, 96.390, 2564.0, 50.6360
21.735710411, 96.390, 2598.0, 50.9706
21.761970976, 96.390, 2524.0, 50.2394
21.788231542, 96.390, 2626.0, 51.2445
21.814492107, 96.390, 2497.0, 49.9700
21.840752672, 96.390, 2651.0, 51.4879
21.867013238, 96.390, 2611.0, 51.0979
21.893273803, 96.390, 2541.0, 50.4083
21.919534368, 96.390, 2534.0, 50.3389
21.945794934, 96.390, 2564.0, 50.6360
21.972055499, 96.390, 2634.0, 51.3225
21.998316064, 96.390, 2584.0, 50.8331
22.024576630, 96.390, 2734.0, 52.2877
22.050837195, 96.390, 2578.0, 50.7740
22.077097761, 96.390, 2440.0, 49.3964
22.103358326, 96.390, 2561.0, 50.6063
22.129618891, 96.390, 2630.0, 51.2835
22.155879457, 96.390, 2614.0, 51.1273
22.182140022, 96.390, 2590.0, 50.8920
22.208400587, 96.390, 2594.0, 50.9313
22.234661153, 96.390, 2654.0, 51.5170
22.260921718, 96.390, 2620.0, 51.1859
22.287182283, 96.390, 2615.0, 51.1371
22.313442849, 96.390, 2522.0, 50.2195
22.339703414, 96.390, 2542.0, 50.4183
22.365963979, 96.390, 2585.0, 50.8429
22.392224545, 96.390, 2512.0, 50.1199
22.418485110, 96.390, 2657.0, 51.5461
22.444745675, 96.390, 2634.0, 51.3225
22.471006241, 96.390, 2560.0, 50.5964
22.497266806, 96.390, 2646.0, 51.4393
22.523527372, 96.390, 2648.0, 51.4587
22.549787937, 96.390, 2504.0, 50.0400
22.576048502, 96.390, 2587.0, 50.8626
22.602309068, 96.390, 2536.0, 50.3587
22.628569633, 96.390, 2600.0, 50.9902
22.654830198, 96.390, 2535.0, 50.3488
22.681090764, 96.390, 2542.0, 50.4183
22.707351329, 96.390, 2522.0, 50.2195
22.733611894, 96.390, 2601.0, 51.0000
22.759872460, 96.390, 2563.0, 50.6261
22.786133025, 96.390, 2572.0, 50.7149
22.812393590, 96.390, 2642.0, 51.4004
22.838654156, 96.390, 2586.0, 50.8527
22.864914721, 96.390, 2493.0, 49.9300
22.891175287, 96.390, 2590.0, 50.8920
22.917435852, 96.390, 2543.0, 50.4282
22.943696417, 96.390, 2552.0, 50.5173
22.969956983, 96.390, 2478.0, 49.7795
22.996217548, 96.390, 2544.0, 50.4381
23.022478113, 96.390, 2540.0, 50.3984
23.048738679, 96.390, 2527.0, 50.2693
23.074999244, 96.390, 2497.0, 49.9700
23.101259809, 96.390, 2563.0, 50.6261
23.127520375, 96.390, 2627.0, 51.2543
23.153780940, 96.390, 2516.0, 50.1597
23.180041505, 96.390, 2490.0, 49.8999
23.206302071, 96.390, 2527.0, 50.2693
23.232562636, 96.390, 2551.0, 50.5074
23.258823201, 96.390, 2508.0, 50.0799
23.285083767, 96.390, 2521.0, 50.2096
23.311344332, 96.390, 2482.0, 49.8197
23.337604898, 96.390, 2511.0, 50.1099
23.363865463, 96.390, 2603.0, 51.0196
23.390126028, 96.390, 2441.0, 49.4065
23.416386594, 96.390, 2473.0, 49.7293
23.442647159, 96.390, 2528.0, 50.2792
23.468907724, 96.390, 2498.0, 49.9800
23.495168290, 96.390, 2496.0, 49.9600
23.521428855, 96.390, 2534.0, 50.3389
23.547689420, 96.390, 2484.0, 49.8397
23.573949986, 96.390, 2408.0, 49.0714
23.600210551, 96.390, 2544.0, 50.4381
23.626471116, 96.390, 2497.0, 49.9700
23.652731682, 96.390, 2429.0, 49.2849
23.678992247, 96.390, 2535.0, 50.3488
23.705252813, 96.390, 2497.0, 49.9700
23.731513378, 96.390, 2472.0, 49.7192
23.757773943, 96.390, 2570.0, 50.6952
23.784034509, 96.390, 2450.0, 49.4975
23.810295074, 96.390, 2453.0, 49.5278
23.836555639, 96.390, 2465.0, 49.6488
23.862816205, 96.390, 2454.0, 49.5379
23.889076770, 96.390, 2473.0, 49.7293
23.915337335, 96.390, 2410.0, 49.0918
23.941597901, 96.390, 2503.0, 50.0300
23.967858466, 96.390, 2407.0, 49.0612
23.994119031, 96.390, 2367.0, 48.6518
24.020379597, 96.390, 2425.0, 49.2443
24.046640162, 96.390, 2400.0, 48.9898
24.072900727, 96.390, 2425.0, 49.2443
24.099161293, 96.390, 2399.0, 48.9796
24.125421858, 96.390, 2420.0, 49.1935
24.151682424, 96.390, 2444.0, 49.4368
24.177942989, 96.390, 2342.0, 48.3942
24.204203554, 96.390, 2427.0, 49.2646
24.230464120, 96.390, 2466.0, 49.6588
24.256724685, 96.390, 2402.0, 49.0102
24.282985250, 96.390, 2440.0, 49.3964
24.309245816, 96.390, 2360.0, 48.5798
24.335506381, 96.390, 2421.0, 49.2037
24.361766946, 96.390, 2386.0, 48.8467
24.388027512, 96.390, 2359.0, 48.5695
24.414288077, 96.390, 2447.0, 49.4672
24.440548642, 96.390, 2415.0, 49.1426
24.466809208, 96.390, 2416.0, 49.1528
24.493069773, 96.390, 2399.0, 48.9796
24.519330338, 96.390, 2405.0, 49.0408
24.545590904, 96.390, 2407.0, 49.0612
24.571851469, 96.390, 2347.0, 48.4458
24.598112035, 96.390, 2314.0, 48.1041
24.624372600, 96.390, 2365.0, 48.6313
24.650633165, 96.390, 2276.0, 47.7074
24.676893731, 96.390, 2378.0, 48.7647
24.703154296, 96.390, 2391.0, 48.8979
24.729414861, 96.390, 2404.0, 49.0306
24.755675427, 96.390, 2330.0, 48.2701
24.781935992, 96.390, 2304.0, 48.0000
24.808196557, 96.390, 2280.0, 47.7493
24.834457123, 96.390, 2327.0, 48.2390
24.860717688, 96.390, 2302.0, 47.9792
24.886978253, 96.390, 2248.0, 47.4131
24.913238819, 96.390, 2357.0, 48.5489
24.939499384, 96.390, 2329.0, 48.2597
24.965759950, 96.390, 2329.0, 48.2597
24.992020515, 96.390, 2326.0, 48.2286
25.018281080, 96.390, 2291.0, 47.8644
25.044541646, 96.390, 2286.0, 47.8121
25.070802211, 96.390, 2410.0, 49.0918
25.097062776, 96.390, 2374.0, 48.7237
25.123323342, 96.390, 2349.0, 48.4665
25.149583907, 96.390, 2353.0, 48.5077
25.175844472, 96.390, 2242.0, 47.3498
25.202105038, 96.390, 2234.0, 47.2652
25.228365603, 96.390, 2269.0, 47.6340
25.254626168, 96.390, 2267.0, 47.6130
25.280886734, 96.390, 2199.0, 46.8935
25.307147299, 96.390, 2382.0, 48.8057
25.333407864, 96.390, 2343.0, 48.4045
25.359668430, 96.390, 2333.0, 48.3011
25.385928995, 96.390, 2309.0, 48.0521
25.412189561, 96.390, 2257.0, 47.5079
25.438450126, 96.390, 2240.0, 47.3286
25.464710691, 96.390, 2213.0, 47.0425
25.490971257, 96.390, 2298.0, 47.9375
25.517231822, 96.390, 2243.0, 47.3603
25.543492387, 96.390, 2187.0, 46.7654
25.569752953, 96.390, 2260.0, 47.5395
25.596013518, 96.390, 2218.0, 47.0956
25.622274083, 96.390, 2205.0, 46.9574
25.648534649, 96.390, 2212.0, 47.0319
25.674795214, 96.390, 2241.0, 47.3392
25.701055779, 96.390, 2205.0, 46.9574
25.727316345, 96.390, 2194.0, 46.8402
25.753576910, 96.390, 2213.0, 47.0425
25.779837476, 96.390, 2180.0, 46.6905
25.806098041, 96.390, 2203.0, 46.9361
25.832358606, 96.390, 2181.0, 46.7012
25.858619172, 96.390, 2283.0, 47.7807
25.884879737, 96.390, 2307.0, 48.0312
25.911140302, 96.390, 2215.0, 47.0638
25.937400868, 96.390, 2234.0, 47.2652
25.963661433, 96.390, 2165.0, 46.5296
25.989921998, 96.390, 2162.0, 46.4973
26.016182564, 96.390, 2203.0, 46.9361
26.042443129, 96.390, 2162.0, 46.4973
26.068703694, 96.390, 2103.0, 45.8585
26.094964260, 96.390, 2133.0, 46.1844
26.121224825, 96.390, 2182.0, 46.7119
26.147485390, 96.390, 2187.0, 46.7654
26.173745956, 96.390, 2168.0, 46.5618
26.200006521, 96.390, 2121.0, 46.0543
26.226267087, 96.390, 2118.0, 46.0217
26.252527652, 96.390, 2120.0, 46.0435
26.278788217, 96.390, 2202.0, 46.9255
26.305048783, 96.390, 2198.0, 46.8828
26.331309348, 96.390, 2170.0, 46.5833
26.357569913, 96.390, 2174.0, 46.6262
26.383830479, 96.390, 2152.0, 46.3897
26.410091044, 96.390, 2147.0, 46.3357
26.436351609, 96.390, 2129.0, 46.1411
26.462612175, 96.390, 2108.0, 45.9130
26.488872740, 96.390, 2083.0, 45.6399
26.515133305, 96.390, 2110.0, 45.9347
26.541393871, 96.390, 2100.0, 45.8258
26.567654436, 96.390, 2199.0, 46.8935
26.593915002, 96.390, 2095.0, 45.7712
26.620175567, 96.390, 2124.0, 46.0869
26.646436132, 96.390, 2086.0, 45.6727
26.672696698, 96.390, 2104.0, 45.8694
26.698957263, 96.390, 2056.0, 45.3431
26.725217828, 96.390, 2161.0, 46.4866
26.751478394, 96.390, 2128.0, 46.1303
26.777738959, 96.390, 2132.0, 46.1736
26.803999524, 96.390, 2058.0, 45.3652
26.830260090, 96.390, 2051.0, 45.2880
26.856520655, 96.390, 2083.0, 45.6399
26.882781220, 96.390, 2130.0, 46.1519
26.909041786, 96.390, 2105.0, 45.8803
26.935302351, 96.390, 2081.0, 45.6180
26.961562916, 96.390, 2130.0, 46.1519
26.987823482, 96.390, 2058.0, 45.3652
27.014084047, 96.390, 2085.0, 45.6618
27.040344613, 96.390, 2108.0, 45.9130
27.066605178, 96.390, 1992.0, 44.6318
27.092865743, 96.390, 2036.0, 45.1221
27.119126309, 96.390, 2022.0, 44.9667
27.145386874, 96.390, 2034.0, 45.0999
27.171647439, 96.390, 2049.0, 45.2659
27.197908005, 96.390, 1924.0, 43.8634
27.224168570, 96.390, 2053.0, 45.3100
27.250429135, 96.390, 2031.0, 45.0666
27.276689701, 96.390, 2056.0, 45.3431
27.302950266, 96.390, 2027.0, 45.0222
27.329210831, 96.390, 2125.0, 46.0977
27.355471397, 96.390, 1990.0, 44.6094
27.381731962, 96.390, 1999.0, 44.7102
27.407992528, 96.390, 1987.0, 44.5758
27.434253093, 96.390, 2030.0, 45.0555
27.460513658, 96.390, 2078.0, 45.5851
27.486774224, 96.390, 2067.0, 45.4643
27.513034789, 96.390, 1931.0, 43.9431
27.539295354, 96.390, 2033.0, 45.0888
27.565555920, 96.390, 2040.0, 45.1664
27.591816485, 96.390, 1960.0, 44.2719
27.618077050, 96.390, 2065.0, 45.4423
27.644337616, 96.390, 1951.0, 44.1701
27.670598181, 96.390, 2010.0, 44.8330
27.696858746, 96.390, 1930.0, 43.9318
27.723119312, 96.390, 1975.0, 44.4410
27.749379877, 96.390, 2089.0, 45.7056
27.775640442, 96.390, 2002.0, 44.7437
27.801901008, 96.390, 1994.0, 44.6542
27.828161573, 96.390, 1993.0, 44.6430
27.854422139, 96.390, 1998.0, 44.6990
27.880682704, 96.390, 2118.0, 46.0217
27.906943269, 96.390, 1938.0, 44.0227
27.933203835, 96.390, 1968.0, 44.3621
27.959464400, 96.390, 1951.0, 44.1701
27.985724965, 96.390, 1969.0, 44.3734
28.011985531, 96.390, 1933.0, 43.9659
28.038246096, 96.390, 1966.0, 44.3396
28.064506661, 96.390, 1950.0, 44.1588
28.090767227, 96.390, 1986.0, 44.5646
28.117027792, 96.390, 2012.0, 44.8553
28.143288357, 96.390, 1948.0, 44.1362
28.169548923, 96.390, 1946.0, 44.1135
28.195809488, 96.390, 1996.0, 44.6766
28.222070054, 96.390, 1909.0, 43.6921
28.248330619, 96.390, 1936.0, 44.0000
28.274591184, 96.390, 1930.0, 43.9318
28.300851750, 96.390, 1920.0, 43.8178
28.327112315, 96.390, 1981.0, 44.5084
28.353372880, 96.390, 2067.0, 45.4643
28.379633446, 96.390, 2062.0, 45.4093
28.405894011, 96.390, 1956.0, 44.2267
28.432154576, 96.390, 1970.0, 44.3847
28.458415142, 96.390, 1954.0, 44.2041
28.484675707, 96.390, 1904.0, 43.6348
28.510936272, 96.390, 1932.0, 43.9545
28.537196838, 96.390, 1938.0, 44.0227
28.563457403, 96.390, 1944.0, 44.0908
28.589717968, 96.390, 1920.0, 43.8178
28.615978534, 96.390, 1935.0, 43.9886
28.642239099, 96.390, 1927.0, 43.8976
28.668499665, 96.390, 1920.0, 43.8178
28.694760230, 96.390, 1815.0, 42.6028
28.721020795, 96.390, 1910.0, 43.7035
28.747281361, 96.390, 1925.0, 43.8748
28.773541926, 96.390, 1935.0, 43.9886
28.799802491, 96.390, 1946.0, 44.1135
28.826063057, 96.390, 1936.0, 44.0000
28.852323622, 96.390, 1852.0, 43.0349
28.878584187, 96.390, 1935.0, 43.9886
28.904844753, 96.390, 1941.0, 44.0568
28.931105318, 96.390, 1946.0, 44.1135
28.957365883, 96.390, 1782.0, 42.2137
28.983626449, 96.390, 1823.0, 42.6966
29.009887014, 96.390, 1849.0, 43.0000
29.036147579, 96.390, 1900.0, 43.5890
29.062408145, 96.390, 1909.0, 43.6921
29.088668710, 96.390, 1866.0, 43.1972
29.114929276, 96.390, 1886.0, 43.4281
29.141189841, 96.390, 1823.0, 42.6966
29.167450406, 96.390, 1820.0, 42.6615
29.193710972, 96.390, 1780.0, 42.1900
29.219971537, 96.390, 1830.0, 42.7785
29.246232102, 96.390, 1866.0, 43.1972
29.272492668, 96.390, 1818.0, 42.6380
29.298753233, 96.390, 1915.0, 43.7607
29.325013798, 96.390, 1923.0, 43.8520
29.351274364, 96.390, 1769.0, 42.0595
29.377534929, 96.390, 1873.0, 43.2782
29.403795494, 96.390, 1810.0, 42.5441
29.430056060, 96.390, 1833.0, 42.8135
29.456316625, 96.390, 1835.0, 42.8369
29.482577191, 96.390, 1823.0, 42.6966
29.508837756, 96.390, 1808.0, 42.5206
29.535098321, 96.390, 1865.0, 43.1856
29.561358887, 96.390, 1769.0, 42.0595
29.587619452, 96.390, 1879.0, 43.3474
29.613880017, 96.390, 1793.0, 42.3438
29.640140583, 96.390, 1840.0, 42.8952
29.666401148, 96.390, 1848.0, 42.9884
29.692661713, 96.390, 1821.0, 42.6732
29.718922279, 96.390, 1810.0, 42.5441
29.745182844, 96.390, 1783.0, 42.2256
29.771443409, 96.390, 1813.0, 42.5793
29.797703975, 96.390, 1825.0, 42.7200
29.823964540, 96.390, 1785.0, 42.2493
29.850225105, 96.390, 1831.0, 42.7902
29.876485671, 96.390, 1782.0, 42.2137
29.902746236, 96.390, 1837.0, 42.8602
29.929006802, 96.390, 1869.0, 43.2319
29.955267367, 96.390, 1853.0, 43.0465
29.981527932, 96.390, 1818.0, 42.6380
30.007788498, 96.390, 1805.0, 42.4853
30.034049063, 96.390, 1848.0, 42.9884
30.060309628, 96.390, 1870.0, 43.2435
30.086570194, 96.390, 1749.0, 41.8210
30.112830759, 96.390, 1682.0, 41.0122
30.139091324, 96.390, 1737.0, 41.6773
30.165351890, 96.390, 1815.0, 42.6028
30.191612455, 96.390, 1835.0, 42.8369
30.217873020, 96.390, 1834.0, 42.8252
30.244133586, 96.390, 1799.0, 42.4146
30.270394151, 96.390, 1784.0, 42.2374
30.296654717, 96.390, 1846.0, 42.9651
30.322915282, 96.390, 1819.0, 42.6497
30.349175847, 96.390, 1749.0, 41.8210
30.375436413, 96.390, 1764.0, 42.0000
30.401696978, 96.390, 1827.0, 42.7434
30.427957543, 96.390, 1745.0, 41.7732
30.454218109, 96.390, 1805.0, 42.4853
30.480478674, 96.390, 1699.0, 41.2189
30.506739239, 96.390, 1762.0, 41.9762
30.532999805, 96.390, 1736.0, 41.6653
30.559260370, 96.390, 1744.0, 41.7612
30.585520935, 96.390, 1798.0, 42.4028
30.611781501, 96.390, 1715.0, 41.4126
30.638042066, 96.390, 1773.0, 42.1070
30.664302631, 96.390, 1737.0, 41.6773
30.690563197, 96.390, 1761.0, 41.9643
30.716823762, 96.390, 1764.0, 42.0000
30.743084328, 96.390, 1812.0, 42.5676
30.769344893, 96.390, 1745.0, 41.7732
30.795605458, 96.390, 1771.0, 42.0833
30.821866024, 96.390, 1702.0, 41.2553
30.848126589, 96.390, 1722.0, 41.4970
30.874387154, 96.390, 1737.0, 41.6773
30.900647720, 96.390, 1684.0, 41.0366
30.926908285, 96.390, 1716.0, 41.4246
30.953168850, 96.390, 1690.0, 41.1096
30.979429416, 96.390, 1740.0, 41.7133
31.005689981, 96.390, 1719.0, 41.4608
31.031950546, 96.390, 1662.0, 40.7676
31.058211112, 96.390, 1682.0, 41.0122
31.084471677, 96.390, 1741.0, 41.7253
31.110732243, 96.390, 1682.0, 41.0122
31.136992808, 96.390, 1724.0, 41.5211
31.163253373, 96.390, 1701.0, 41.2432
31.189513939, 96.390, 1754.0, 41.8808
31.215774504, 96.390, 1721.0, 41.4849
31.242035069, 96.390, 1661.0, 40.7554
31.268295635, 96.390, 1722.0, 41.4970
31.294556200, 96.390, 1699.0, 41.2189
31.320816765, 96.390, 1722.0, 41.4970
31.347077331, 96.390, 1681.0, 41.0000
31.373337896, 96.390, 1728.0, 41.5692
31.399598461, 96.390, 1648.0, 40.5956
31.425859027, 96.390, 1674.0, 40.9145
31.452119592, 96.390, 1643.0, 40.5339
31.478380157, 96.390, 1660.0, 40.7431
31.504640723, 96.390, 1580.0, 39.7492
31.530901288, 96.390, 1707.0, 41.3159
31.557161854, 96.390, 1710.0, 41.3521
31.583422419, 96.390, 1640.0, 40.4969
31.609682984, 96.390, 1663.0, 40.7799
31.635943550, 96.390, 1646.0, 40.5709
31.662204115, 96.390, 1673.0, 40.9023
31.688464680, 96.390, 1740.0, 41.7133
31.714725246, 96.390, 1701.0, 41.2432
31.740985811, 96.390, 1706.0, 41.3038
31.767246376, 96.390, 1653.0, 40.6571
31.793506942, 96.390, 1633.0, 40.4104
31.819767507, 96.390, 1616.0, 40.1995
31.846028072, 96.390, 1642.0, 40.5216
31.872288638, 96.390, 1610.0, 40.1248
31.898549203, 96.390, 1705.0, 41.2916
31.924809769, 96.390, 1603.0, 40.0375
31.951070334, 96.390, 1653.0, 40.6571
31.977330899, 96.390, 1591.0, 39.8873
32.003591465, 96.390, 1625.0, 40.3113
32.029852030, 96.390, 1667.0, 40.8289
32.056112595, 96.390, 1739.0, 41.7013
32.082373161, 96.390, 1646.0, 40.5709
32.108633726, 96.390, 1623.0, 40.2865
32.134894291, 96.390, 1687.0, 41.0731
32.161154857, 96.390, 1707.0, 41.3159
32.187415422, 96.390, 1595.0, 39.9375
32.213675987, 96.390, 1666.0, 40.8167
32.239936553, 96.390, 1587.0, 39.8372
32.266197118, 96.390, 1646.0, 40.5709
32.292457683, 96.390, 1560.0, 39.4968
32.318718249, 96.390, 1590.0, 39.8748
32.344978814, 96.390, 1608.0, 40.0999
32.371239380, 96.390, 1641.0, 40.5093
32.397499945, 96.390, 1590.0, 39.8748
32.423760510, 96.390, 1645.0, 40.5586
32.450021076, 96.390, 1651.0, 40.6325
32.476281641, 96.390, 1676.0, 40.9390
32.502542206, 96.390, 1634.0, 40.4228
32.528802772, 96.390, 1608.0, 40.0999
32.555063337, 96.390, 1610.0, 40.1248
32.581323902, 96.390, 1617.0, 40.2119
32.607584468, 96.390, 1569.0, 39.6106
32.633845033, 96.390, 1563.0, 39.5348
32.660105598, 96.390, 1601.0, 40.0125
32.686366164, 96.390, 1593.0, 39.9124
32.712626729, 96.390, 1529.0, 39.1024
32.738887295, 96.390, 1535.0, 39.1791
32.765147860, 96.390, 1593.0, 39.9124
32.791408425, 96.390, 1553.0, 39.4081
32.817668991, 96.390, 1525.0, 39.0512
32.843929556, 96.390, 1593.0, 39.9124
32.870190121, 96.390, 1517.0, 38.9487
32.896450687, 96.390, 1561.0, 39.5095
32.922711252, 96.390, 1583.0, 39.7869
32.948971817, 96.390, 1559.0, 39.4842
32.975232383, 96.390, 1505.0, 38.7943
33.001492948, 96.390, 1593.0, 39.9124
33.027753513, 96.390, 1543.0, 39.2810
33.054014079, 96.390, 1509.0, 38.8458
33.080274644, 96.390, 1543.0, 39.2810
33.106535209, 96.390, 1621.0, 40.2616
33.132795775, 96.390, 1562.0, 39.5221
33.159056340, 96.390, 1519.0, 38.9744
33.185316906, 96.390, 1549.0, 39.3573
33.211577471, 96.390, 1498.0, 38.7040
33.237838036, 96.390, 1646.0, 40.5709
33.264098602, 96.390, 1553.0, 39.4081
33.290359167, 96.390, 1487.0, 38.5616
33.316619732, 96.390, 1470.0, 38.3406
33.342880298, 96.390, 1502.0, 38.7556
33.369140863, 96.390, 1614.0, 40.1746
33.395401428, 96.390, 1506.0, 38.8072
33.421661994, 96.390, 1505.0, 38.7943
33.447922559, 96.390, 1494.0, 38.6523
33.474183124, 96.390, 1592.0, 39.8999
33.500443690, 96.390, 1508.0, 38.8330
33.526704255, 96.390, 1497.0, 38.6911
33.552964820, 96.390, 1523.0, 39.0256
33.579225386, 96.390, 1505.0, 38.7943
33.605485951, 96.390, 1472.0, 38.3667
33.631746517, 96.390, 1531.0, 39.1280
33.658007082, 96.390, 1511.0, 38.8716
33.684267647, 96.390, 1551.0, 39.3827
33.710528213, 96.390, 1496.0, 38.6782
33.736788778, 96.390, 1535.0, 39.1791
33.763049343, 96.390, 1502.0, 38.7556
33.789309909, 96.390, 1436.0, 37.8946
33.815570474, 96.390, 1429.0, 37.8021
33.841831039, 96.390, 1459.0, 38.1969
33.868091605, 96.390, 1471.0, 38.3536
33.894352170, 96.390, 1441.0, 37.9605
33.920612735, 96.390, 1423.0, 37.7227
33.946873301, 96.390, 1511.0, 38.8716
33.973133866, 96.390, 1524.0, 39.0384
33.999394432, 96.390, 1460.0, 38.2099
34.025654997, 96.390, 1514.0, 38.9102
34.051915562, 96.390, 1442.0, 37.9737
34.078176128, 96.390, 1444.0, 38.0000
34.104436693, 96.390, 1402.0, 37.4433
34.130697258, 96.390, 1445.0, 38.0132
34.156957824, 96.390, 1396.0, 37.3631
34.183218389, 96.390, 1467.0, 38.3014
34.209478954, 96.390, 1506.0, 38.8072
34.235739520, 96.390, 1421.0, 37.6962
34.262000085, 96.390, 1451.0, 38.0920
34.288260650, 96.390, 1463.0, 38.2492
34.314521216, 96.390, 1448.0, 38.0526
34.340781781, 96.390, 1434.0, 37.8682
34.367042346, 96.390, 1473.0, 38.3797
34.393302912, 96.390, 1404.0, 37.4700
34.419563477, 96.390, 1418.0, 37.6563
34.445824043, 96.390, 1443.0, 37.9868
34.472084608, 96.390, 1406.0, 37.4967
34.498345173, 96.390, 1381.0, 37.1618
34.524605739, 96.390, 1424.0, 37.7359
34.550866304, 96.390, 1395.0, 37.3497
34.577126869, 96.390, 1420.0, 37.6829
34.603387435, 96.390, 1392.0, 37.3095
34.629648000, 96.390, 1426.0, 37.7624
34.655908565, 96.390, 1387.0, 37.2424
34.682169131, 96.390, 1421.0, 37.6962
34.708429696, 96.390, 1381.0, 37.1618
34.734690261, 96.390, 1388.0, 37.2559
34.760950827, 96.390, 1441.0, 37.9605
34.787211392, 96.390, 1394.0, 37.3363
34.813471958, 96.390, 1472.0, 38.3667
34.839732523, 96.390, 1418.0, 37.6563
34.865993088, 96.390, 1369.0, 37.0000
34.892253654, 96.390, 1373.0, 37.0540
34.918514219, 96.390, 1320.0, 36.3318
34.944774784, 96.390, 1373.0, 37.0540
34.971035350, 96.390, 1395.0, 37.3497
34.997295915, 96.390, 1407.0, 37.5100
35.023556480, 96.390, 1393.0, 37.3229
35.049817046, 96.390, 1418.0, 37.6563
35.076077611, 96.390, 1358.0, 36.8511
35.102338176, 96.390, 1394.0, 37.3363
35.128598742, 96.390, 1383.0, 37.1887
35.154859307, 96.390, 1297.0, 36.0139
35.181119872, 96.390, 1340.0, 36.6060
35.207380438, 96.390, 1305.0, 36.1248
35.233641003, 96.390, 1382.0, 37.1753
35.259901569, 96.390, 1346.0, 36.6879
35.286162134, 96.390, 1427.0, 37.7757
35.312422699, 96.390, 1300.0, 36.0555
35.338683265, 96.390, 1325.0, 36.4005
35.364943830, 96.390, 1365.0, 36.9459
35.391204395, 96.390, 1373.0, 37.0540
35.417464961, 96.390, 1377.0, 37.1080
35.443725526, 96.390, 1349.0, 36.7287
35.469986091, 96.390, 1400.0, 37.4166
35.496246657, 96.390, 1323.0, 36.3731
35.522507222, 96.390, 1297.0, 36.0139
35.548767787, 96.390, 1349.0, 36.7287
35.575028353, 96.390, 1336.0, 36.5513
35.601288918, 96.390, 1370.0, 37.0135
35.627549484, 96.390, 1337.0, 36.5650
35.653810049, 96.390, 1322.0, 36.3593
35.680070614, 96.390, 1324.0, 36.3868
35.706331180, 96.390, 1338.0, 36.5787
35.732591745, 96.390, 1250.0, 35.3553
35.758852310, 96.390, 1364.0, 36.9324
35.785112876, 96.390, 1335.0, 36.5377
35.811373441, 96.390, 1342.0, 36.6333
35.837634006, 96.390, 1289.0, 35.9026
35.863894572, 96.390, 1279.0, 35.7631
35.890155137, 96.390, 1267.0, 35.5949
35.916415702, 96.390, 1261.0, 35.5106
35.942676268, 96.390, 1317.0, 36.2905
35.968936833, 96.390, 1298.0, 36.0278
35.995197398, 96.390, 1338.0, 36.5787
36.021457964, 96.390, 1254.0, 35.4119
36.047718529, 96.390, 1287.0, 35.8748
36.073979095, 96.390, 1328.0, 36.4417
36.100239660, 96.390, 1289.0, 35.9026
36.126500225, 96.390, 1272.0, 35.6651
36.152760791, 96.390, 1287.0, 35.8748
36.179021356, 96.390, 1338.0, 36.5787
36.205281921, 96.390, 1305.0, 36.1248
36.231542487, 96.390, 1301.0, 36.0694
36.257803052, 96.390, 1310.0, 36.1939
36.284063617, 96.390, 1240.0, 35.2136
36.310324183, 96.390, 1303.0, 36.0971
36.336584748, 96.390, 1244.0, 35.2704
36.362845313, 96.390, 1279.0, 35.7631
36.389105879, 96.390, 1237.0, 35.1710
36.415366444, 96.390, 1308.0, 36.1663
36.441627010, 96.390, 1257.0, 35.4542
36.467887575, 96.390, 1275.0, 35.7071
36.494148140, 96.390, 1273.0, 35.6791
36.520408706, 96.390, 1277.0, 35.7351
36.546669271, 96.390, 1245.0, 35.2846
36.572929836, 96.390, 1197.0, 34.5977
36.599190402, 96.390, 1229.0, 35.0571
36.625450967, 96.390, 1261.0, 35.5106
36.651711532, 96.390, 1298.0, 36.0278
36.677972098, 96.390, 1194.0, 34.5543
36.704232663, 96.390, 1207.0, 34.7419
36.730493228, 96.390, 1236.0, 35.1568
36.756753794, 96.390, 1270.0, 35.6371
36.783014359, 96.390, 1214.0, 34.8425
36.809274924, 96.390, 1265.0, 35.5668
36.835535490, 96.390, 1272.0, 35.6651
36.861796055, 96.390, 1241.0, 35.2278
36.888056621, 96.390, 1195.0, 34.5688
36.914317186, 96.390, 1253.0, 35.3977
36.940577751, 96.390, 1237.0, 35.1710
36.966838317, 96.390, 1207.0, 34.7419
36.993098882, 96.390, 1247.0, 35.3129
37.019359447, 96.390, 1263.0, 35.5387
37.045620013, 96.390, 1253.0, 35.3977
37.071880578, 96.390, 1211.0, 34.7994
37.098141143, 96.390, 1225.0, 35.0000
37.124401709, 96.390, 1193.0, 34.5398
37.150662274, 96.390, 1205.0, 34.7131
37.176922839, 96.390, 1245.0, 35.2846
37.203183405, 96.390, 1185.0, 34.4238
37.229443970, 96.390, 1165.0, 34.1321
37.255704535, 96.390, 1241.0, 35.2278
37.281965101, 96.390, 1196.0, 34.5832
37.308225666, 96.390, 1205.0, 34.7131
37.334486232, 96.390, 1172.0, 34.2345
37.360746797, 96.390, 1238.0, 35.1852
37.387007362, 96.390, 1217.0, 34.8855
37.413267928, 96.390, 1211.0, 34.7994
37.439528493, 96.390, 1211.0, 34.7994
37.465789058, 96.390, 1221.0, 34.9428
37.492049624, 96.390, 1199.0, 34.6266
37.518310189, 96.390, 1189.0, 34.4819
37.544570754, 96.390, 1132.0, 33.6452
37.570831320, 96.390, 1244.0, 35.2704
37.597091885, 96.390, 1178.0, 34.3220
37.623352450, 96.390, 1145.0, 33.8378
37.649613016, 96.390, 1192.0, 34.5254
37.675873581, 96.390, 1227.0, 35.0286
37.702134147, 96.390, 1193.0, 34.5398
37.728394712, 96.390, 1168.0, 34.1760
37.754655277, 96.390, 1151.0, 33.9264
37.780915843, 96.390, 1139.0, 33.7491
37.807176408, 96.390, 1179.0, 34.3366
37.833436973, 96.390, 1220.0, 34.9285
37.859697539, 96.390, 1171.0, 34.2199
37.885958104, 96.390, 1218.0, 34.8999
37.912218669, 96.390, 1217.0, 34.8855
37.938479235, 96.390, 1194.0, 34.5543
37.964739800, 96.390, 1254.0, 35.4119
37.991000365, 96.390, 1163.0, 34.1028
38.017260931, 96.390, 1222.0, 34.9571
38.043521496, 96.390, 1188.0, 34.4674
38.069782061, 96.390, 1181.0, 34.3657
38.096042627, 96.390, 1132.0, 33.6452
38.122303192, 96.390, 1174.0, 34.2637
38.148563758, 96.390, 1124.0, 33.5261
38.174824323, 96.390, 1210.0, 34.7851
38.201084888, 96.390, 1131.0, 33.6303
38.227345454, 96.390, 1160.0, 34.0588
38.253606019, 96.390, 1128.0, 33.5857
38.279866584, 96.390, 1190.0, 34.4964
38.306127150, 96.390, 1180.0, 34.3511
38.332387715, 96.390, 1168.0, 34.1760
38.358648280, 96.390, 1170.0, 34.2053
38.384908846, 96.390, 1108.0, 33.2866
38.411169411, 96.390, 1115.0, 33.3916
38.437429976, 96.390, 1168.0, 34.1760
38.463690542, 96.390, 1168.0, 34.1760
38.489951107, 96.390, 1141.0, 33.7787
38.516211673, 96.390, 1178.0, 34.3220
38.542472238, 96.390, 1197.0, 34.5977
38.568732803, 96.390, 1111.0, 33.3317
38.594993369, 96.390, 1134.0, 33.6749
38.621253934, 96.390, 1179.0, 34.3366
38.647514499, 96.390, 1167.0, 34.1614
38.673775065, 96.390, 1171.0, 34.2199
38.700035630, 96.390, 1151.0, 33.9264
38.726296195, 96.390, 1140.0, 33.7639
38.752556761, 96.390, 1151.0, 33.9264
38.778817326, 96.390, 1175.0, 34.2783
38.805077891, 96.390, 1155.0, 33.9853
38.831338457, 96.390, 1140.0, 33.7639
38.857599022, 96.390, 1161.0, 34.0735
38.883859587, 96.390, 1179.0, 34.3366
38.910120153, 96.390, 1118.0, 33.4365
38.936380718, 96.390, 1074.0, 32.7719
38.962641284, 96.390, 1088.0, 32.9848
38.988901849, 96.390, 1088.0, 32.9848
39.015162414, 96.390, 1158.0, 34.0294
39.041422980, 96.390, 1134.0, 33.6749
39.067683545, 96.390, 1161.0, 34.0735
39.093944110, 96.390, 1105.0, 33.2415
39.120204676, 96.390, 1130.0, 33.6155
39.146465241, 96.390, 1118.0, 33.4365
39.172725806, 96.390, 1139.0, 33.7491
39.198986372, 96.390, 1133.0, 33.6601
39.225246937, 96.390, 1123.0, 33.5112
39.251507502, 96.390, 1132.0, 33.6452
39.277768068, 96.390, 1065.0, 32.6343
39.304028633, 96.390, 1026.0, 32.0312
39.330289199, 96.390, 1197.0, 34.5977
39.356549764, 96.390, 1140.0, 33.7639
39.382810329, 96.390, 1121.0, 33.4813
39.409070895, 96.390, 1137.0, 33.7194
39.435331460, 96.390, 1155.0, 33.9853
39.461592025, 96.390, 1102.0, 33.1964
39.487852591, 96.390, 1151.0, 33.9264
39.514113156, 96.390, 1046.0, 32.3419
39.540373721, 96.390, 1102.0, 33.1964
39.566634287, 96.390, 1108.0, 33.2866
39.592894852, 96.390, 1085.0, 32.9393
39.619155417, 96.390, 1145.0, 33.8378
39.645415983, 96.390, 1105.0, 33.2415
39.671676548, 96.390, 1139.0, 33.7491
39.697937113, 96.390, 1120.0, 33.4664
39.724197679, 96.390, 1085.0, 32.9393
39.750458244, 96.390, 1115.0, 33.3916
39.776718810, 96.390, 1102.0, 33.1964
39.802979375, 96.390, 1121.0, 33.4813
39.829239940, 96.390, 1081.0, 32.8786
39.855500506, 96.390, 1201.0, 34.6554
39.881761071, 96.390, 1094.0, 33.0757
39.908021636, 96.390, 1115.0, 33.3916
39.934282202, 96.390, 1182.0, 34.3802
39.960542767, 96.390, 1155.0, 33.9853
39.986803332, 96.390, 1127.0, 33.5708
40.013063898, 96.390, 1140.0, 33.7639
40.039324463, 96.390, 1047.0, 32.3574
40.065585028, 96.390, 1086.0, 32.9545
40.091845594, 96.390, 1119.0, 33.4515
40.118106159, 96.390, 1099.0, 33.1512
40.144366725, 96.390, 1065.0, 32.6343
40.170627290, 96.390, 1133.0, 33.6601
40.196887855, 96.390, 1096.0, 33.1059
40.223148421, 96.390, 1013.0, 31.8277
40.249408986, 96.390, 1078.0, 32.8329
40.275669551, 96.390, 1126.0, 33.5559
40.301930117, 96.390, 1135.0, 33.6898
40.328190682, 96.390, 1122.0, 33.4963
40.354451247, 96.390, 1072.0, 32.7414
40.380711813, 96.390, 1097.0, 33.1210
40.406972378, 96.390, 1119.0, 33.4515
40.433232943, 96.390, 1065.0, 32.6343
40.459493509, 96.390, 1108.0, 33.2866
40.485754074, 96.390, 1087.0, 32.9697
40.512014639, 96.390, 1180.0, 34.3511
40.538275205, 96.390, 1121.0, 33.4813
40.564535770, 96.390, 1123.0, 33.5112
40.590796336, 96.390, 1100.0, 33.1662
40.617056901, 96.390, 1071.0, 32.7261
40.643317466, 96.390, 1088.0, 32.9848
40.669578032, 96.390, 1036.0, 32.1870
40.695838597, 96.390, 1074.0, 32.7719
40.722099162, 96.390, 1052.0, 32.4345
40.748359728, 96.390, 1036.0, 32.1870
40.774620293, 96.390, 1000.0, 31.6228
40.800880858, 96.390, 1033.0, 32.1403
40.827141424, 96.390, 1076.0, 32.8024
40.853401989, 96.390, 1081.0, 32.8786
40.879662554, 96.390, 1064.0, 32.6190
40.905923120, 96.390, 1140.0, 33.7639
40.932183685, 96.390, 1044.0, 32.3110
40.958444251, 96.390, 1040.0, 32.2490
40.984704816, 96.390, 1043.0, 32.2955
41.010965381, 96.390, 1074.0, 32.7719
41.037225947, 96.390, 1088.0, 32.9848
41.063486512, 96.390, 1070.0, 32.7109
41.089747077, 96.390, 1075.0, 32.7872
41.116007643, 96.390, 1077.0, 32.8177
41.142268208, 96.390, 1036.0, 32.1870
41.168528773, 96.390, 1103.0, 33.2114
41.194789339, 96.390, 1076.0, 32.8024
41.221049904, 96.390, 1075.0, 32.7872
41.247310469, 96.390, 1070.0, 32.7109
41.273571035, 96.390, 1155.0, 33.9853
41.299831600, 96.390, 1086.0, 32.9545
41.326092165, 96.390, 1026.0, 32.0312
41.352352731, 96.390, 1064.0, 32.6190
41.378613296, 96.390, 1127.0, 33.5708
41.404873862, 96.390, 1057.0, 32.5115
41.431134427, 96.390, 1057.0, 32.5115
41.457394992, 96.390, 1081.0, 32.8786
41.483655558, 96.390, 1142.0, 33.7935
41.509916123, 96.390, 1124.0, 33.5261
41.536176688, 96.390, 1147.0, 33.8674
41.562437254, 96.390, 1081.0, 32.8786
41.588697819, 96.390, 1028.0, 32.0624
41.614958384, 96.390, 1051.0, 32.4191
41.641218950, 96.390, 1135.0, 33.6898
41.667479515, 96.390, 1037.0, 32.2025
41.693740080, 96.390, 1136.0, 33.7046
41.720000646, 96.390, 963.0, 31.0322
41.746261211, 96.390, 1018.0, 31.9061
41.772521776, 96.390, 1100.0, 33.1662
41.798782342, 96.390, 1037.0, 32.2025
41.825042907, 96.390, 1012.0, 31.8119
41.851303473, 96.390, 1056.0, 32.4962
41.877564038, 96.390, 1049.0, 32.3883
41.903824603, 96.390, 1043.0, 32.2955
41.930085169, 96.390, 1043.0, 32.2955
41.956345734, 96.390, 1016.0, 31.8748
41.982606299, 96.390, 1109.0, 33.3017
42.008866865, 96.390, 1076.0, 32.8024
42.035127430, 96.390, 1040.0, 32.2490
42.061387995, 96.390, 1061.0, 32.5730
42.087648561, 96.390, 984.0, 31.3688
42.113909126, 96.390, 1082.0, 32.8938
42.140169691, 96.390, 1055.0, 32.4808
42.166430257, 96.390, 1083.0, 32.9090
42.192690822, 96.390, 1086.0, 32.9545
42.218951388, 96.390, 1042.0, 32.2800
42.245211953, 96.390, 1050.0, 32.4037
42.271472518, 96.390, 1004.0, 31.6860
42.297733084, 96.390, 1017.0, 31.8904
42.323993649, 96.390, 1069.0, 32.6956
42.350254214, 96.390, 1067.0, 32.6650
42.376514780, 96.390, 1031.0, 32.1092
42.402775345, 96.390, 999.0, 31.6070
42.429035910, 96.390, 1102.0, 33.1964
42.455296476, 96.390, 1002.0, 31.6544
42.481557041, 96.390, 986.0, 31.4006
42.507817606, 96.390, 1027.0, 32.0468
42.534078172, 96.390, 1066.0, 32.6497
42.560338737, 96.390, 1064.0, 32.6190
42.586599302, 96.390, 1020.0, 31.9374
42.612859868, 96.390, 1025.0, 32.0156
42.639120433, 96.390, 1033.0, 32.1403
42.665380999, 96.390, 1081.0, 32.8786
42.691641564, 96.390, 1049.0, 32.3883
42.717902129, 96.390, 1055.0, 32.4808
42.744162695, 96.390, 1033.0, 32.1403
42.770423260, 96.390, 1025.0, 32.0156
42.796683825, 96.390, 1008.0, 31.7490
42.822944391, 96.390, 1027.0, 32.0468
42.849204956, 96.390, 974.0, 31.2090
42.875465521, 96.390, 983.0, 31.3528
42.901726087, 96.390, 1018.0, 31.9061
42.927986652, 96.390, 986.0, 31.4006
42.954247217, 96.390, 1030.0, 32.0936
42.980507783, 96.390, 970.0, 31.1448
43.006768348, 96.390, 976.0, 31.2410
43.033028914, 96.390, 1034.0, 32.1559
43.059289479, 96.390, 1022.0, 31.9687
43.085550044, 96.390, 1037.0, 32.2025
43.111810610, 96.390, 1063.0, 32.6037
43.138071175, 96.390, 1029.0, 32.0780
43.164331740, 96.390, 996.0, 31.5595
43.190592306, 96.390, 968.0, 31.1127
43.216852871, 96.390, 1009.0, 31.7648
43.243113436, 96.390, 991.0, 31.4802
43.269374002, 96.390, 985.0, 31.3847
43.295634567, 96.390, 972.0, 31.1769
43.321895132, 96.390, 957.0, 30.9354
43.348155698, 96.390, 1002.0, 31.6544
43.374416263, 96.390, 991.0, 31.4802
43.400676828, 96.390, 1038.0, 32.2180
43.426937394, 96.390, 1022.0, 31.9687
43.453197959, 96.390, 972.0, 31.1769
43.479458525, 96.390, 1022.0, 31.9687
43.505719090, 96.390, 998.0, 31.5911
43.531979655, 96.390, 949.0, 30.8058
43.558240221, 96.390, 1047.0, 32.3574
43.584500786, 96.390, 1033.0, 32.1403
43.610761351, 96.390, 1017.0, 31.8904
43.637021917, 96.390, 969.0, 31.1288
43.663282482, 96.390, 1054.0, 32.4654
43.689543047, 96.390, 956.0, 30.9192
43.715803613, 96.390, 1039.0, 32.2335
43.742064178, 96.390, 1024.0, 32.0000
43.768324743, 96.390, 1018.0, 31.9061
43.794585309, 96.390, 941.0, 30.6757
43.820845874, 96.390, 941.0, 30.6757
43.847106440, 96.390, 958.0, 30.9516
43.873367005, 96.390, 1005.0, 31.7017
43.899627570, 96.390, 988.0, 31.4325
43.925888136, 96.390, 1020.0, 31.9374
43.952148701, 96.390, 1006.0, 31.7175
43.978409266, 96.390, 928.0, 30.4631
44.004669832, 96.390, 959.0, 30.9677
44.030930397, 96.390, 940.0, 30.6594
44.057190962, 96.390, 970.0, 31.1448
44.083451528, 96.390, 931.0, 30.5123
44.109712093, 96.390, 948.0, 30.7896
44.135972658, 96.390, 918.0, 30.2985
44.162233224, 96.390, 1025.0, 32.0156
44.188493789, 96.390, 1015.0, 31.8591
44.214754354, 96.390, 929.0, 30.4795
44.241014920, 96.390, 1050.0, 32.4037
44.267275485, 96.390, 965.0, 31.0644
44.293536051, 96.390, 983.0, 31.3528
44.319796616, 96.390, 907.0, 30.1164
44.346057181, 96.390, 999.0, 31.6070
44.372317747, 96.390, 972.0, 31.1769
44.398578312, 96.390, 1003.0, 31.6702
44.424838877, 96.390, 955.0, 30.9031
44.451099443, 96.390, 952.0, 30.8545
44.477360008, 96.390, 936.0, 30.5941
44.503620573, 96.390, 1017.0, 31.8904
44.529881139, 96.390, 990.0, 31.4643
44.556141704, 96.390, 1003.0, 31.6702
44.582402269, 96.390, 914.0, 30.2324
44.608662835, 96.390, 1017.0, 31.8904
44.634923400, 96.390, 956.0, 30.9192
44.661183966, 96.390, 988.0, 31.4325
44.687444531, 96.390, 980.0, 31.3050
44.713705096, 96.390, 996.0, 31.5595
44.739965662, 96.390, 983.0, 31.3528
44.766226227, 96.390, 932.0, 30.5287
44.792486792, 96.390, 1013.0, 31.8277
44.818747358, 96.390, 1053.0, 32.4500
44.845007923, 96.390, 1006.0, 31.7175
44.871268488, 96.390, 955.0, 30.9031
44.897529054, 96.390, 941.0, 30.6757
44.923789619, 96.390, 923.0, 30.3809
44.950050184, 96.390, 928.0, 30.4631
44.976310750, 96.390, 873.0, 29.5466
45.002571315, 96.390, 967.0, 31.0966
45.028831880, 96.390, 924.0, 30.3974
45.055092446, 96.390, 971.0, 31.1609
45.081353011, 96.390, 944.0, 30.7246
45.107613577, 96.390, 1005.0, 31.7017
45.133874142, 96.390, 984.0, 31.3688
45.160134707, 96.390, 942.0, 30.6920
45.186395273, 96.390, 957.0, 30.9354
45.212655838, 96.390, 898.0, 29.9666
45.238916403, 96.390, 978.0, 31.2730
45.265176969, 96.390, 969.0, 31.1288
45.291437534, 96.390, 923.0, 30.3809
45.317698099, 96.390, 995.0, 31.5436
45.343958665, 96.390, 903.0, 30.0500
45.370219230, 96.390, 966.0, 31.0805
45.396479795, 96.390, 946.0, 30.7571
45.422740361, 96.390, 925.0, 30.4138
45.449000926, 96.390, 856.0, 29.2575
45.475261492, 96.390, 918.0, 30.2985
45.501522057, 96.390, 1041.0, 32.2645
45.527782622, 96.390, 977.0, 31.2570
45.554043188, 96.390, 925.0, 30.4138
45.580303753, 96.390, 971.0, 31.1609
45.606564318, 96.390, 942.0, 30.6920
45.632824884, 96.390, 933.0, 30.5450
45.659085449, 96.390, 930.0, 30.4959
45.685346014, 96.390, 970.0, 31.1448
45.711606580, 96.390, 932.0, 30.5287
45.737867145, 96.390, 865.0, 29.4109
45.764127710, 96.390, 894.0, 29.8998
45.790388276, 96.390, 916.0, 30.2655
45.816648841, 96.390, 925.0, 30.4138
45.842909406, 96.390, 940.0, 30.6594
45.869169972, 96.390, 941.0, 30.6757
45.895430537, 96.390, 874.0, 29.5635
45.921691103, 96.390, 941.0, 30.6757
45.947951668, 96.390, 929.0, 30.4795
45.974212233, 96.390, 909.0, 30.1496
46.000472799, 96.390, 939.0, 30.6431
46.026733364, 96.390, 938.0, 30.6268
46.052993929, 96.390, 904.0, 30.0666
46.079254495, 96.390, 905.0, 30.0832
46.105515060, 96.390, 890.0, 29.8329
46.131775625, 96.390, 954.0, 30.8869
46.158036191, 96.390, 868.0, 29.4618
46.184296756, 96.390, 943.0, 30.7083
46.210557321, 96.390, 883.0, 29.7153
46.236817887, 96.390, 900.0, 30.0000
46.263078452, 96.390, 954.0, 30.8869
46.289339017, 96.390, 950.0, 30.8221
46.315599583, 96.390, 923.0, 30.3809
46.341860148, 96.390, 884.0, 29.7321
46.368120714, 96.390, 945.0, 30.7409
46.394381279, 96.390, 961.0, 31.0000
46.420641844, 96.390, 898.0, 29.9666
46.446902410, 96.390, 936.0, 30.5941
46.473162975, 96.390, 949.0, 30.8058
46.499423540, 96.390, 923.0, 30.3809
46.525684106, 96.390, 881.0, 29.6816
46.551944671, 96.390, 917.0, 30.2820
46.578205236, 96.390, 841.0, 29.0000
46.604465802, 96.390, 919.0, 30.3150
46.630726367, 96.390, 925.0, 30.4138
46.656986932, 96.390, 940.0, 30.6594
46.683247498, 96.390, 892.0, 29.8664
46.709508063, 96.390, 946.0, 30.7571
46.735768629, 96.390, 883.0, 29.7153
46.762029194, 96.390, 934.0, 30.5614
46.788289759, 96.390, 934.0, 30.5614
46.814550325, 96.390, 843.0, 29.0345
46.840810890, 96.390, 909.0, 30.1496
46.867071455, 96.390, 903.0, 30.0500
46.893332021, 96.390, 898.0, 29.9666
46.919592586, 96.390, 929.0, 30.4795
46.945853151, 96.390, 900.0, 30.0000
46.972113717, 96.390, 849.0, 29.1376
46.998374282, 96.390, 867.0, 29.4449
47.024634847, 96.390, 879.0, 29.6479
47.050895413, 96.390, 886.0, 29.7658
47.077155978, 96.390, 887.0, 29.7825
47.103416543, 96.390, 870.0, 29.4958
47.129677109, 96.390, 881.0, 29.6816
47.155937674, 96.390, 879.0, 29.6479
47.182198240, 96.390, 863.0, 29.3769
47.208458805, 96.390, 868.0, 29.4618
47.234719370, 96.390, 874.0, 29.5635
47.260979936, 96.390, 923.0, 30.3809
47.287240501, 96.390, 862.0, 29.3598
47.313501066, 96.390, 825.0, 28.7228
47.339761632, 96.390, 834.0, 28.8791
47.366022197, 96.390, 908.0, 30.1330
47.392282762, 96.390, 893.0, 29.8831
47.418543328, 96.390, 865.0, 29.4109
47.444803893, 96.390, 902.0, 30.0333
47.471064458, 96.390, 846.0, 29.0861
47.497325024, 96.390, 833.0, 28.8617
47.523585589, 96.390, 888.0, 29.7993
47.549846155, 96.390, 852.0, 29.1890
47.576106720, 96.390, 908.0, 30.1330
47.602367285, 96.390, 857.0, 29.2746
47.628627851, 96.390, 887.0, 29.7825
47.654888416, 96.390, 766.0, 27.6767
47.681148981, 96.390, 866.0, 29.4279
47.707409547, 96.390, 860.0, 29.3258
47.733670112, 96.390, 850.0, 29.1548
47.759930677, 96.390, 898.0, 29.9666
47.786191243, 96.390, 881.0, 29.6816
47.812451808, 96.390, 859.0, 29.3087
47.838712373, 96.390, 840.0, 28.9828
47.864972939, 96.390, 803.0, 28.3373
47.891233504, 96.390, 884.0, 29.7321
47.917494069, 96.390, 863.0, 29.3769
47.943754635, 96.390, 870.0, 29.4958
47.970015200, 96.390, 852.0, 29.1890
47.996275766, 96.390, 906.0, 30.0998
48.022536331, 96.390, 828.0, 28.7750
48.048796896, 96.390, 818.0, 28.6007
48.075057462, 96.390, 814.0, 28.5307
48.101318027, 96.390, 883.0, 29.7153
48.127578592, 96.390, 827.0, 28.7576
48.153839158, 96.390, 851.0, 29.1719
48.180099723, 96.390, 840.0, 28.9828
48.206360288, 96.390, 828.0, 28.7750
48.232620854, 96.390, 870.0, 29.4958
48.258881419, 96.390, 872.0, 29.5296
48.285141984, 96.390, 850.0, 29.1548
48.311402550, 96.390, 843.0, 29.0345
48.337663115, 96.390, 870.0, 29.4958
48.363923681, 96.390, 848.0, 29.1204
48.390184246, 96.390, 802.0, 28.3196
48.416444811, 96.390, 842.0, 29.0172
48.442705377, 96.390, 805.0, 28.3725
48.468965942, 96.390, 790.0, 28.1069
48.495226507, 96.390, 819.0, 28.6182
48.521487073, 96.390, 817.0, 28.5832
48.547747638, 96.390, 837.0, 28.9310
48.574008203, 96.390, 871.0, 29.5127
48.600268769, 96.390, 816.0, 28.5657
48.626529334, 96.390, 843.0, 29.0345
48.652789899, 96.390, 849.0, 29.1376
48.679050465, 96.390, 769.0, 27.7308
48.705311030, 96.390, 836.0, 28.9137
48.731571595, 96.390, 831.0, 28.8271
48.757832161, 96.390, 791.0, 28.1247
48.784092726, 96.390, 864.0, 29.3939
48.810353292, 96.390, 885.0, 29.7489
48.836613857, 96.390, 817.0, 28.5832
48.862874422, 96.390, 893.0, 29.8831
48.889134988, 96.390, 831.0, 28.8271
48.915395553, 96.390, 847.0, 29.1033
48.941656118, 96.390, 768.0, 27.7128
48.967916684, 96.390, 799.0, 28.2666
48.994177249, 96.390, 840.0, 28.9828
49.020437814, 96.390, 794.0, 28.1780
49.046698380, 96.390, 843.0, 29.0345
49.072958945, 96.390, 863.0, 29.3769
49.099219510, 96.390, 806.0, 28.3901
49.125480076, 96.390, 816.0, 28.5657
49.151740641, 96.390, 852.0, 29.1890
49.178001207, 96.390, 814.0, 28.5307
49.204261772, 96.390, 837.0, 28.9310
49.230522337, 96.390, 827.0, 28.7576
49.256782903, 96.390, 785.0, 28.0179
49.283043468, 96.390, 851.0, 29.1719
49.309304033, 96.390, 828.0, 28.7750
49.335564599, 96.390, 820.0, 28.6356
49.361825164, 96.390, 781.0, 27.9464
49.388085729, 96.390, 822.0, 28.6705
49.414346295, 96.390, 834.0, 28.8791
49.440606860, 96.390, 806.0, 28.3901
49.466867425, 96.390, 801.0, 28.3019
49.493127991, 96.390, 840.0, 28.9828
49.519388556, 96.390, 781.0, 27.9464
49.545649121, 96.390, 778.0, 27.8927
49.571909687, 96.390, 796.0, 28.2135
49.598170252, 96.390, 773.0, 27.8029
49.624430818, 96.390, 855.0, 29.2404
49.650691383, 96.390, 838.0, 28.9482
49.676951948, 96.390, 811.0, 28.4781
49.703212514, 96.390, 874.0, 29.5635
49.729473079, 96.390, 825.0, 28.7228
49.755733644, 96.390, 754.0, 27.4591
49.781994210, 96.390, 774.0, 27.8209
49.808254775, 96.390, 800.0, 28.2843
49.834515340, 96.390, 787.0, 28.0535
49.860775906, 96.390, 833.0, 28.8617
49.887036471, 96.390, 803.0, 28.3373
49.913297036, 96.390, 850.0, 29.1548
49.939557602, 96.390, 823.0, 28.6880
49.965818167, 96.390, 823.0, 28.6880
49.992078733, 96.390, 801.0, 28.3019
50.018339298, 96.390, 836.0, 28.9137
50.044599863, 96.390, 770.0, 27.7489
50.070860429, 96.390, 848.0, 29.1204
50.097120994, 96.390, 855.0, 29.2404
50.123381559, 96.390, 802.0, 28.3196
50.149642125, 96.390, 798.0, 28.2489
50.175902690, 96.390, 784.0, 28.0000
50.202163255, 96.390, 760.0, 27.5681
50.228423821, 96.390, 867.0, 29.4449
50.254684386, 96.390, 769.0, 27.7308
50.280944951, 96.390, 799.0, 28.2666
50.307205517, 96.390, 874.0, 29.5635
50.333466082, 96.390, 851.0, 29.1719
50.359726647, 96.390, 738.0, 27.1662
50.385987213, 96.390, 813.0, 28.5132
50.412247778, 96.390, 834.0, 28.8791
50.438508344, 96.390, 829.0, 28.7924
50.464768909, 96.390, 863.0, 29.3769
50.491029474, 96.390, 816.0, 28.5657
50.517290040, 96.390, 819.0, 28.6182
50.543550605, 96.390, 780.0, 27.9285
50.569811170, 96.390, 777.0, 27.8747
50.596071736, 96.390, 824.0, 28.7054
50.622332301, 96.390, 777.0, 27.8747
50.648592866, 96.390, 769.0, 27.7308
50.674853432, 96.390, 772.0, 27.7849
50.701113997, 96.390, 807.0, 28.4077
50.727374562, 96.390, 822.0, 28.6705
50.753635128, 96.390, 742.0, 27.2397
50.779895693, 96.390, 823.0, 28.6880
50.806156258, 96.390, 807.0, 28.4077
50.832416824, 96.390, 737.0, 27.1477
50.858677389, 96.390, 780.0, 27.9285
50.884937955, 96.390, 838.0, 28.9482
50.911198520, 96.390, 773.0, 27.8029
50.937459085, 96.390, 763.0, 27.6225
50.963719651, 96.390, 806.0, 28.3901
50.989980216, 96.390, 775.0, 27.8388
51.016240781, 96.390, 830.0, 28.8097
51.042501347, 96.390, 811.0, 28.4781
51.068761912, 96.390, 747.0, 27.3313
51.095022477, 96.390, 812.0, 28.4956
51.121283043, 96.390, 774.0, 27.8209
51.147543608, 96.390, 789.0, 28.0891
51.173804173, 96.390, 735.0, 27.1109
51.200064739, 96.390, 784.0, 28.0000
51.226325304, 96.390, 768.0, 27.7128
51.252585870, 96.390, 817.0, 28.5832
51.278846435, 96.390, 748.0, 27.3496
51.305107000, 96.390, 793.0, 28.1603
51.331367566, 96.390, 768.0, 27.7128
51.357628131, 96.390, 795.0, 28.1957
51.383888696, 96.390, 766.0, 27.6767
51.410149262, 96.390, 786.0, 28.0357
51.436409827, 96.390, 788.0, 28.0713
51.462670392, 96.390, 804.0, 28.3549
51.488930958, 96.390, 804.0, 28.3549
51.515191523, 96.390, 782.0, 27.9643
51.541452088, 96.390, 810.0, 28.4605
51.567712654, 96.390, 771.0, 27.7669
51.593973219, 96.390, 781.0, 27.9464
51.620233784, 96.390, 811.0, 28.4781
51.646494350, 96.390, 781.0, 27.9464
51.672754915, 96.390, 782.0, 27.9643
51.699015481, 96.390, 774.0, 27.8209
51.725276046, 96.390, 779.0, 27.9106
51.751536611, 96.390, 732.0, 27.0555
51.777797177, 96.390, 734.0, 27.0924
51.804057742, 96.390, 763.0, 27.6225
51.830318307, 96.390, 784.0, 28.0000
51.856578873, 96.390, 764.0, 27.6405
51.882839438, 96.390, 768.0, 27.7128
51.909100003, 96.390, 782.0, 27.9643
51.935360569, 96.390, 761.0, 27.5862
51.961621134, 96.390, 755.0, 27.4773
51.987881699, 96.390, 747.0, 27.3313
52.014142265, 96.390, 792.0, 28.1425
52.040402830, 96.390, 778.0, 27.8927
52.066663396, 96.390, 782.0, 27.9643
52.092923961, 96.390, 720.0, 26.8328
52.119184526, 96.390, 720.0, 26.8328
52.145445092, 96.390, 707.0, 26.5895
52.171705657, 96.390, 781.0, 27.9464
52.197966222, 96.390, 773.0, 27.8029
52.224226788, 96.390, 786.0, 28.0357
52.250487353, 96.390, 819.0, 28.6182
52.276747918, 96.390, 767.0, 27.6948
52.303008484, 96.390, 800.0, 28.2843
52.329269049, 96.390, 797.0, 28.2312
52.355529614, 96.390, 771.0, 27.7669
52.381790180, 96.390, 768.0, 27.7128
52.408050745, 96.390, 756.0, 27.4955
52.434311310, 96.390, 742.0, 27.2397
52.460571876, 96.390, 801.0, 28.3019
52.486832441, 96.390, 751.0, 27.4044
52.513093007, 96.390, 756.0, 27.4955
52.539353572, 96.390, 746.0, 27.3130
52.565614137, 96.390, 787.0, 28.0535
52.591874703, 96.390, 748.0, 27.3496
52.618135268, 96.390, 740.0, 27.2029
52.644395833, 96.390, 759.0, 27.5500
52.670656399, 96.390, 699.0, 26.4386
52.696916964, 96.390, 759.0, 27.5500
52.723177529, 96.390, 745.0, 27.2947
52.749438095, 96.390, 724.0, 26.9072
52.775698660, 96.390, 733.0, 27.0740
52.801959225, 96.390, 790.0, 28.1069
52.828219791, 96.390, 825.0, 28.7228
52.854480356, 96.390, 798.0, 28.2489
52.880740922, 96.390, 709.0, 26.6271
52.907001487, 96.390, 783.0, 27.9821
52.933262052, 96.390, 758.0, 27.5318
52.959522618, 96.390, 756.0, 27.4955
52.985783183, 96.390, 808.0, 28.4253
53.012043748, 96.390, 822.0, 28.6705
53.038304314, 96.390, 672.0, 25.9230
53.064564879, 96.390, 781.0, 27.9464
53.090825444, 96.390, 737.0, 27.1477
53.117086010, 96.390, 759.0, 27.5500
53.143346575, 96.390, 779.0, 27.9106
53.169607140, 96.390, 763.0, 27.6225
53.195867706, 96.390, 751.0, 27.4044
53.222128271, 96.390, 738.0, 27.1662
53.248388836, 96.390, 743.0, 27.2580
53.274649402, 96.390, 743.0, 27.2580
53.300909967, 96.390, 727.0, 26.9629
53.327170533, 96.390, 737.0, 27.1477
53.353431098, 96.390, 763.0, 27.6225
53.379691663, 96.390, 747.0, 27.3313
53.405952229, 96.390, 813.0, 28.5132
53.432212794, 96.390, 764.0, 27.6405
53.458473359, 96.390, 768.0, 27.7128
53.484733925, 96.390, 770.0, 27.7489
53.510994490, 96.390, 786.0, 28.0357
53.537255055, 96.390, 739.0, 27.1846
53.563515621, 96.390, 761.0, 27.5862
53.589776186, 96.390, 786.0, 28.0357
53.616036751, 96.390, 749.0, 27.3679
53.642297317, 96.390, 728.0, 26.9815
53.668557882, 96.390, 774.0, 27.8209
53.694818448, 96.390, 751.0, 27.4044
53.721079013, 96.390, 712.0, 26.6833
53.747339578, 96.390, 754.0, 27.4591
53.773600144, 96.390, 688.0, 26.2298
53.799860709, 96.390, 766.0, 27.6767
53.826121274, 96.390, 720.0, 26.8328
53.852381840, 96.390, 751.0, 27.4044
53.878642405, 96.390, 764.0, 27.6405
53.904902970, 96.390, 775.0, 27.8388
53.931163536, 96.390, 731.0, 27.0370
53.957424101, 96.390, 771.0, 27.7669
53.983684666, 96.390, 746.0, 27.3130
54.009945232, 96.390, 741.0, 27.2213
54.036205797, 96.390, 729.0, 27.0000
54.062466362, 96.390, 745.0, 27.2947
54.088726928, 96.390, 716.0, 26.7582
54.114987493, 96.390, 752.0, 27.4226
54.141248059, 96.390, 786.0, 28.0357
54.167508624, 96.390, 778.0, 27.8927
54.193769189, 96.390, 751.0, 27.4044
54.220029755, 96.390, 735.0, 27.1109
54.246290320, 96.390, 695.0, 26.3629
54.272550885, 96.390, 755.0, 27.4773
54.298811451, 96.390, 778.0, 27.8927
54.325072016, 96.390, 771.0, 27.7669
54.351332581, 96.390, 761.0, 27.5862
54.377593147, 96.390, 811.0, 28.4781
54.403853712, 96.390, 736.0, 27.1293
54.430114277, 96.390, 804.0, 28.3549
54.456374843, 96.390, 755.0, 27.4773
54.482635408, 96.390, 731.0, 27.0370
54.508895973, 96.390, 702.0, 26.4953
54.535156539, 96.390, 652.0, 25.5343
54.561417104, 96.390, 791.0, 28.1247
54.587677670, 96.390, 734.0, 27.0924
54.613938235, 96.390, 753.0, 27.4408
54.640198800, 96.390, 776.0, 27.8568
54.666459366, 96.390, 766.0, 27.6767
54.692719931, 96.390, 759.0, 27.5500
54.718980496, 96.390, 760.0, 27.5681
54.745241062, 96.390, 755.0, 27.4773
54.771501627, 96.390, 780.0, 27.9285
54.797762192, 96.390, 770.0, 27.7489
54.824022758, 96.390, 777.0, 27.8747
54.850283323, 96.390, 771.0, 27.7669
54.876543888, 96.390, 717.0, 26.7769
54.902804454, 96.390, 731.0, 27.0370
54.929065019, 96.390, 714.0, 26.7208
54.955325585, 96.390, 761.0, 27.5862
54.981586150, 96.390, 754.0, 27.4591
55.007846715, 96.390, 733.0, 27.0740
55.034107281, 96.390, 724.0, 26.9072
55.060367846, 96.390, 721.0, 26.8514
55.086628411, 96.390, 727.0, 26.9629
55.112888977, 96.390, 723.0, 26.8887
55.139149542, 96.390, 743.0, 27.2580
55.165410107, 96.390, 796.0, 28.2135
55.191670673, 96.390, 726.0, 26.9444
55.217931238, 96.390, 768.0, 27.7128
55.244191803, 96.390, 768.0, 27.7128
55.270452369, 96.390, 738.0, 27.1662
55.296712934, 96.390, 704.0, 26.5330
55.322973499, 96.390, 738.0, 27.1662
55.349234065, 96.390, 785.0, 28.0179
55.375494630, 96.390, 718.0, 26.7955
55.401755196, 96.390, 707.0, 26.5895
55.428015761, 96.390, 721.0, 26.8514
55.454276326, 96.390, 757.0, 27.5136
55.480536892, 96.390, 674.0, 25.9615
55.506797457, 96.390, 729.0, 27.0000
55.533058022, 96.390, 737.0, 27.1477
55.559318588, 96.390, 788.0, 28.0713
55.585579153, 96.390, 781.0, 27.9464
55.611839718, 96.390, 701.0, 26.4764
55.638100284, 96.390, 735.0, 27.1109
55.664360849, 96.390, 716.0, 26.7582
55.690621414, 96.390, 727.0, 26.9629
55.716881980, 96.390, 797.0, 28.2312
55.743142545, 96.390, 765.0, 27.6586
55.769403111, 96.390, 736.0, 27.1293
55.795663676, 96.390, 738.0, 27.1662
55.821924241, 96.390, 756.0, 27.4955
55.848184807, 96.390, 787.0, 28.0535
55.874445372, 96.390, 729.0, 27.0000
55.900705937, 96.390, 790.0, 28.1069
55.926966503, 96.390, 747.0, 27.3313
55.953227068, 96.390, 715.0, 26.7395
55.979487633, 96.390, 760.0, 27.5681
56.005748199, 96.390, 761.0, 27.5862
56.032008764, 96.390, 793.0, 28.1603
56.058269329, 96.390, 802.0, 28.3196
56.084529895, 96.390, 758.0, 27.5318
56.110790460, 96.390, 673.0, 25.9422
56.137051025, 96.390, 745.0, 27.2947
56.163311591, 96.390, 751.0, 27.4044
56.189572156, 96.390, 693.0, 26.3249
56.215832722, 96.390, 762.0, 27.6043
56.242093287, 96.390, 736.0, 27.1293
56.268353852, 96.390, 715.0, 26.7395
56.294614418, 96.390, 729.0, 27.0000
56.320874983, 96.390, 695.0, 26.3629
56.347135548, 96.390, 736.0, 27.1293
56.373396114, 96.390, 682.0, 26.1151
56.399656679, 96.390, 725.0, 26.9258
56.425917244, 96.390, 771.0, 27.7669
56.452177810, 96.390, 764.0, 27.6405
56.478438375, 96.390, 739.0, 27.1846
56.504698940, 96.390, 706.0, 26.5707
56.530959506, 96.390, 710.0, 26.6458
56.557220071, 96.390, 752.0, 27.4226
56.583480637, 96.390, 723.0, 26.8887
56.609741202, 96.390, 719.0, 26.8142
56.636001767, 96.390, 714.0, 26.7208
56.662262333, 96.390, 715.0, 26.7395
56.688522898, 96.390, 786.0, 28.0357
56.714783463, 96.390, 794.0, 28.1780
56.741044029, 96.390, 724.0, 26.9072
56.767304594, 96.390, 747.0, 27.3313
56.793565159, 96.390, 719.0, 26.8142
56.819825725, 96.390, 728.0, 26.9815
56.846086290, 96.390, 700.0, 26.4575
56.872346855, 96.390, 725.0, 26.9258
56.898607421, 96.390, 785.0, 28.0179
56.924867986, 96.390, 776.0, 27.8568
56.951128551, 96.390, 733.0, 27.0740
56.977389117, 96.390, 716.0, 26.7582
57.003649682, 96.390, 765.0, 27.6586
57.029910248, 96.390, 711.0, 26.6646
57.056170813, 96.390, 728.0, 26.9815
57.082431378, 96.390, 723.0, 26.8887
57.108691944, 96.390, 733.0, 27.0740
57.134952509, 96.390, 711.0, 26.6646
57.161213074, 96.390, 712.0, 26.6833
57.187473640, 96.390, 787.0, 28.0535
57.213734205, 96.390, 701.0, 26.4764
57.239994770, 96.390, 760.0, 27.5681
57.266255336, 96.390, 704.0, 26.5330
57.292515901, 96.390, 795.0, 28.1957
57.318776466, 96.390, 765.0, 27.6586
57.345037032, 96.390, 713.0, 26.7021
57.371297597, 96.390, 741.0, 27.2213
57.397558163, 96.390, 756.0, 27.4955
57.423818728, 96.390, 729.0, 27.0000
57.450079293, 96.390, 779.0, 27.9106
57.476339859, 96.390, 727.0, 26.9629
57.502600424, 96.390, 797.0, 28.2312
57.528860989, 96.390, 721.0, 26.8514
57.555121555, 96.390, 693.0, 26.3249
57.581382120, 96.390, 737.0, 27.1477
57.607642685, 96.390, 709.0, 26.6271
57.633903251, 96.390, 754.0, 27.4591
57.660163816, 96.390, 727.0, 26.9629
57.686424381, 96.390, 826.0, 28.7402
57.712684947, 96.390, 709.0, 26.6271
57.738945512, 96.390, 757.0, 27.5136
57.765206077, 96.390, 733.0, 27.0740
57.791466643, 96.390, 720.0, 26.8328
57.817727208, 96.390, 753.0, 27.4408
57.843987774, 96.390, 761.0, 27.5862
57.870248339, 96.390, 734.0, 27.0924
57.896508904, 96.390, 743.0, 27.2580
57.922769470, 96.390, 734.0, 27.0924
57.949030035, 96.390, 742.0, 27.2397
57.975290600, 96.390, 770.0, 27.7489
58.001551166, 96.390, 741.0, 27.2213
58.027811731, 96.390, 695.0, 26.3629
58.054072296, 96.390, 743.0, 27.2580
58.080332862, 96.390, 780.0, 27.9285
58.106593427, 96.390, 767.0, 27.6948
58.132853992, 96.390, 749.0, 27.3679
58.159114558, 96.390, 735.0, 27.1109
58.185375123, 96.390, 703.0, 26.5141
58.211635689, 96.390, 739.0, 27.1846
58.237896254, 96.390, 719.0, 26.8142
58.264156819, 96.390, 718.0, 26.7955
58.290417385, 96.390, 708.0, 26.6083
58.316677950, 96.390, 702.0, 26.4953
58.342938515, 96.390, 710.0, 26.6458
58.369199081, 96.390, 714.0, 26.7208
58.395459646, 96.390, 767.0, 27.6948
58.421720211, 96.390, 749.0, 27.3679
58.447980777, 96.390, 694.0, 26.3439
58.474241342, 96.390, 740.0, 27.2029
58.500501907, 96.390, 748.0, 27.3496
58.526762473, 96.390, 740.0, 27.2029
58.553023038, 96.390, 738.0, 27.1662
58.579283603, 96.390, 713.0, 26.7021
58.605544169, 96.390, 778.0, 27.8927
58.631804734, 96.390, 770.0, 27.7489
58.658065300, 96.390, 729.0, 27.0000
58.684325865, 96.390, 775.0, 27.8388
58.710586430, 96.390, 727.0, 26.9629
58.736846996, 96.390, 772.0, 27.7849
58.763107561, 96.390, 707.0, 26.5895
58.789368126, 96.390, 729.0, 27.0000
58.815628692, 96.390, 708.0, 26.6083
58.841889257, 96.390, 762.0, 27.6043
58.868149822, 96.390, 718.0, 26.7955
58.894410388, 96.390, 761.0, 27.5862
58.920670953, 96.390, 761.0, 27.5862
58.946931518, 96.390, 720.0, 26.8328
58.973192084, 96.390, 736.0, 27.1293
58.999452649, 96.390, 759.0, 27.5500
59.025713214, 96.390, 771.0, 27.7669
59.051973780, 96.390, 793.0, 28.1603
59.078234345, 96.390, 754.0, 27.4591
59.104494911, 96.390, 709.0, 26.6271
59.130755476, 96.390, 775.0, 27.8388
59.157016041, 96.390, 779.0, 27.9106
59.183276607, 96.390, 737.0, 27.1477
59.209537172, 96.390, 759.0, 27.5500
59.235797737, 96.390, 777.0, 27.8747
59.262058303, 96.390, 744.0, 27.2764
59.288318868, 96.390, 754.0, 27.4591
59.314579433, 96.390, 771.0, 27.7669
59.340839999, 96.390, 736.0, 27.1293
59.367100564, 96.390, 692.0, 26.3059
59.393361129, 96.390, 767.0, 27.6948
59.419621695, 96.390, 736.0, 27.1293
59.445882260, 96.390, 717.0, 26.7769
59.472142826, 96.390, 727.0, 26.9629
59.498403391, 96.390, 683.0, 26.1343
59.524663956, 96.390, 737.0, 27.1477
59.550924522, 96.390, 814.0, 28.5307
59.577185087, 96.390, 754.0, 27.4591
59.603445652, 96.390, 720.0, 26.8328
59.629706218, 96.390, 748.0, 27.3496
59.655966783, 96.390, 728.0, 26.9815
59.682227348, 96.390, 751.0, 27.4044
59.708487914, 96.390, 718.0, 26.7955
59.734748479, 96.390, 726.0, 26.9444
59.761009044, 96.390, 704.0, 26.5330
59.787269610, 96.390, 735.0, 27.1109
59.813530175, 96.390, 715.0, 26.7395
59.839790740, 96.390, 723.0, 26.8887
59.866051306, 96.390, 719.0, 26.8142
59.892311871, 96.390, 726.0, 26.9444
59.918572437, 96.390, 761.0, 27.5862
59.944833002, 96.390, 755.0, 27.4773
59.971093567, 96.390, 753.0, 27.4408
59.997354133, 96.390, 741.0, 27.2213
60.023614698, 96.390, 723.0, 26.8887
60.049875263, 96.390, 758.0, 27.5318
60.076135829, 96.390, 773.0, 27.8029
60.102396394, 96.390, 765.0, 27.6586
60.128656959, 96.390, 782.0, 27.9643
60.154917525, 96.390, 779.0, 27.9106
60.181178090, 96.390, 736.0, 27.1293
60.207438655, 96.390, 709.0, 26.6271
60.233699221, 96.390, 755.0, 27.4773
60.259959786, 96.390, 749.0, 27.3679
60.286220352, 96.390, 763.0, 27.6225
60.312480917, 96.390, 719.0, 26.8142
60.338741482, 96.390, 777.0, 27.8747
60.365002048, 96.390, 744.0, 27.2764
60.391262613, 96.390, 710.0, 26.6458
60.417523178, 96.390, 701.0, 26.4764
60.443783744, 96.390, 759.0, 27.5500
60.470044309, 96.390, 680.0, 26.0768
60.496304874, 96.390, 734.0, 27.0924
60.522565440, 96.390, 707.0, 26.5895
60.548826005, 96.390, 756.0, 27.4955
60.575086570, 96.390, 774.0, 27.8209
60.601347136, 96.390, 728.0, 26.9815
60.627607701, 96.390, 770.0, 27.7489
60.653868266, 96.390, 751.0, 27.4044
60.680128832, 96.390, 752.0, 27.4226
60.706389397, 96.390, 748.0, 27.3496
60.732649963, 96.390, 707.0, 26.5895
60.758910528, 96.390, 788.0, 28.0713
60.785171093, 96.390, 755.0, 27.4773
60.811431659, 96.390, 718.0, 26.7955
60.837692224, 96.390, 736.0, 27.1293
60.863952789, 96.390, 727.0, 26.9629
60.890213355, 96.390, 789.0, 28.0891
60.916473920, 96.390, 721.0, 26.8514
60.942734485, 96.390, 757.0, 27.5136
60.968995051, 96.390, 710.0, 26.6458
60.995255616, 96.390, 782.0, 27.9643
61.021516181, 96.390, 790.0, 28.1069
61.047776747, 96.390, 763.0, 27.6225
61.074037312, 96.390, 792.0, 28.1425
61.100297878, 96.390, 782.0, 27.9643
61.126558443, 96.390, 751.0, 27.4044
61.152819008, 96.390, 762.0, 27.6043
61.179079574, 96.390, 732.0, 27.0555
61.205340139, 96.390, 746.0, 27.3130
61.231600704, 96.390, 693.0, 26.3249
61.257861270, 96.390, 824.0, 28.7054
61.284121835, 96.390, 738.0, 27.1662
61.310382400, 96.390, 764.0, 27.6405
61.336642966, 96.390, 753.0, 27.4408
61.362903531, 96.390, 753.0, 27.4408
61.389164096, 96.390, 756.0, 27.4955
61.415424662, 96.390, 750.0, 27.3861
61.441685227, 96.390, 758.0, 27.5318
61.467945792, 96.390, 824.0, 28.7054
61.494206358, 96.390, 758.0, 27.5318
61.520466923, 96.390, 763.0, 27.6225
61.546727489, 96.390, 768.0, 27.7128
61.572988054, 96.390, 721.0, 26.8514
61.599248619, 96.390, 784.0, 28.0000
61.625509185, 96.390, 730.0, 27.0185
61.651769750, 96.390, 726.0, 26.9444
61.678030315, 96.390, 762.0, 27.6043
61.704290881, 96.390, 720.0, 26.8328
61.730551446, 96.390, 752.0, 27.4226
61.756812011, 96.390, 780.0, 27.9285
61.783072577, 96.390, 763.0, 27.6225
61.809333142, 96.390, 711.0, 26.6646
61.835593707, 96.390, 785.0, 28.0179
61.861854273, 96.390, 711.0, 26.6646
61.888114838, 96.390, 756.0, 27.4955
61.914375404, 96.390, 723.0, 26.8887
61.940635969, 96.390, 753.0, 27.4408
61.966896534, 96.390, 738.0, 27.1662
61.993157100, 96.390, 786.0, 28.0357
62.019417665, 96.390, 684.0, 26.1534
62.045678230, 96.390, 702.0, 26.4953
62.071938796, 96.390, 691.0, 26.2869
62.098199361, 96.390, 753.0, 27.4408
62.124459926, 96.390, 722.0, 26.8701
62.150720492, 96.390, 733.0, 27.0740
62.176981057, 96.390, 764.0, 27.6405
62.203241622, 96.390, 699.0, 26.4386
62.229502188, 96.390, 720.0, 26.8328
62.255762753, 96.390, 744.0, 27.2764
62.282023318, 96.390, 746.0, 27.3130
62.308283884, 96.390, 719.0, 26.8142
62.334544449, 96.390, 693.0, 26.3249
62.360805015, 96.390, 713.0, 26.7021
62.387065580, 96.390, 690.0, 26.2679
62.413326145, 96.390, 734.0, 27.0924
62.439586711, 96.390, 731.0, 27.0370
62.465847276, 96.390, 705.0, 26.5518
62.492107841, 96.390, 728.0, 26.9815
62.518368407, 96.390, 714.0, 26.7208
62.544628972, 96.390, 699.0, 26.4386
62.570889537, 96.390, 768.0, 27.7128
62.597150103, 96.390, 716.0, 26.7582
62.623410668, 96.390, 754.0, 27.4591
62.649671233, 96.390, 705.0, 26.5518
62.675931799, 96.390, 741.0, 27.2213
62.702192364, 96.390, 727.0, 26.9629
62.728452930, 96.390, 706.0, 26.5707
62.754713495, 96.390, 764.0, 27.6405
62.780974060, 96.390, 742.0, 27.2397
62.807234626, 96.390, 740.0, 27.2029
62.833495191, 96.390, 716.0, 26.7582
62.859755756, 96.390, 732.0, 27.0555
62.886016322, 96.390, 685.0, 26.1725
62.912276887, 96.390, 733.0, 27.0740
62.938537452, 96.390, 731.0, 27.0370
62.964798018, 96.390, 746.0, 27.3130
62.991058583, 96.390, 737.0, 27.1477
63.017319148, 96.390, 734.0, 27.0924
63.043579714, 96.390, 736.0, 27.1293
63.069840279, 96.390, 717.0, 26.7769
63.096100844, 96.390, 769.0, 27.7308
63.122361410, 96.390, 714.0, 26.7208
63.148621975, 96.390, 758.0, 27.5318
63.174882541, 96.390, 748.0, 27.3496
63.201143106, 96.390, 708.0, 26.6083
63.227403671, 96.390, 686.0, 26.1916
63.253664237, 96.390, 734.0, 27.0924
63.279924802, 96.390, 729.0, 27.0000
63.306185367, 96.390, 729.0, 27.0000
63.332445933, 96.390, 697.0, 26.4008
63.358706498, 96.390, 716.0, 26.7582
63.384967063, 96.390, 715.0, 26.7395
63.411227629, 96.390, 700.0, 26.4575
63.437488194, 96.390, 736.0, 27.1293
63.463748759, 96.390, 732.0, 27.0555
63.490009325, 96.390, 710.0, 26.6458
63.516269890, 96.390, 789.0, 28.0891
63.542530455, 96.390, 709.0, 26.6271
63.568791021, 96.390, 697.0, 26.4008
63.595051586, 96.390, 722.0, 26.8701
63.621312152, 96.390, 757.0, 27.5136
63.647572717, 96.390, 730.0, 27.0185
63.673833282, 96.390, 663.0, 25.7488
63.700093848, 96.390, 702.0, 26.4953
63.726354413, 96.390, 713.0, 26.7021
63.752614978, 96.390, 695.0, 26.3629
63.778875544, 96.390, 737.0, 27.1477
63.805136109, 96.390, 696.0, 26.3818
63.831396674, 96.390, 711.0, 26.6646
63.857657240, 96.390, 701.0, 26.4764
63.883917805, 96.390, 678.0, 26.0384
63.910178370, 96.390, 724.0, 26.9072
63.936438936, 96.390, 773.0, 27.8029
63.962699501, 96.390, 716.0, 26.7582
63.988960067, 96.390, 711.0, 26.6646
64.015220632, 96.390, 694.0, 26.3439
64.041481197, 96.390, 673.0, 25.9422
64.067741763, 96.390, 713.0, 26.7021
64.094002328, 96.390, 714.0, 26.7208
64.120262893, 96.390, 760.0, 27.5681
64.146523459, 96.390, 692.0, 26.3059
64.172784024, 96.390, 715.0, 26.7395
64.199044589, 96.390, 699.0, 26.4386
64.225305155, 96.390, 762.0, 27.6043
64.251565720, 96.390, 658.0, 25.6515
64.277826285, 96.390, 714.0, 26.7208
64.304086851, 96.390, 749.0, 27.3679
64.330347416, 96.390, 654.0, 25.5734
64.356607981, 96.390, 732.0, 27.0555
64.382868547, 96.390, 758.0, 27.5318
64.409129112, 96.390, 704.0, 26.5330
64.435389678, 96.390, 696.0, 26.3818
64.461650243, 96.390, 707.0, 26.5895
64.487910808, 96.390, 772.0, 27.7849
64.514171374, 96.390, 712.0, 26.6833
64.540431939, 96.390, 687.0, 26.2107
64.566692504, 96.390, 711.0, 26.6646
64.592953070, 96.390, 708.0, 26.6083
64.619213635, 96.390, 724.0, 26.9072
64.645474200, 96.390, 718.0, 26.7955
64.671734766, 96.390, 721.0, 26.8514
64.697995331, 96.390, 694.0, 26.3439
64.724255896, 96.390, 689.0, 26.2488
64.750516462, 96.390, 728.0, 26.9815
64.776777027, 96.390, 676.0, 26.0000
64.803037593, 96.390, 700.0, 26.4575
64.829298158, 96.390, 699.0, 26.4386
64.855558723, 96.390, 682.0, 26.1151
64.881819289, 96.390, 682.0, 26.1151
64.908079854, 96.390, 694.0, 26.3439
64.934340419, 96.390, 699.0, 26.4386
64.960600985, 96.390, 682.0, 26.1151
64.986861550, 96.390, 690.0, 26.2679
