[Measurement conditions]
Sample identification,130_Centroid16Mar22_Act16Nov22_B1_0714M_NaOH_LS0173
Comment - 1,"Configuration=Stage for Flat Samples/Holders, Owner=User-1, Creation date=7/1/2020 9:53:24 AM"
Comment - 2,"Goniometer=Theta/Theta; Minimum step size 2Theta:0.0001; Minimum step size Omega:0.0001"
Comment - 3,"Sample stage=Stage for flat samples/holders"
Comment - 4,"Diffractometer system=EMPYREAN"
Comment - 5,"Measurement program=C:\Users\tmr79\OneDrive - The Pennsylvania State University\Documents\NEUP\XRD\Cement\Zerobackground scan.xrdmp, Identifier={98A3B11C-88F9-4AA6-982C-73314A311EF5}"
Anode material,Cu
K-Alpha1 wavelength,1.5405980
K-Alpha2 wavelength,1.5444260
Ratio K-Alpha2/K-Alpha1,0.500
Divergence slit,Fixed,0.25
Monochromator used,NO
Generator voltage, 45
Tube current, 40
File date and time,03/Apr/2023 09:05
Unit cell,
h k l, 0 0 0
Scan axis,Gonio
Scan range,4.994599997,64.999991833
Scan step size,0.0262606
No. of points, 2285
Scan type,CONTINUOUS
Time per step,96.390
[Scan points]
Angle, TimePerStep, Intensity, ESD
5.007730280, 96.390, 4175.0, 64.6142
5.033990845, 96.390, 4130.0, 64.2651
5.060251411, 96.390, 4161.0, 64.5058
5.086511976, 96.390, 4041.0, 63.5689
5.112772541, 96.390, 4136.0, 64.3117
5.139033107, 96.390, 3995.0, 63.2060
5.165293672, 96.390, 4127.0, 64.2417
5.191554237, 96.390, 4016.0, 63.3719
5.217814803, 96.390, 4024.0, 63.4350
5.244075368, 96.390, 3904.0, 62.4820
5.270335934, 96.390, 3786.0, 61.5305
5.296596499, 96.390, 3968.0, 62.9921
5.322857064, 96.390, 3987.0, 63.1427
5.349117630, 96.390, 3899.0, 62.4420
5.375378195, 96.390, 3809.0, 61.7171
5.401638760, 96.390, 3903.0, 62.4740
5.427899326, 96.390, 3819.0, 61.7981
5.454159891, 96.390, 3831.0, 61.8951
5.480420456, 96.390, 3751.0, 61.2454
5.506681022, 96.390, 3656.0, 60.4649
5.532941587, 96.390, 3643.0, 60.3573
5.559202152, 96.390, 3836.0, 61.9355
5.585462718, 96.390, 3645.0, 60.3738
5.611723283, 96.390, 3674.0, 60.6135
5.637983849, 96.390, 3660.0, 60.4979
5.664244414, 96.390, 3648.0, 60.3987
5.690504979, 96.390, 3629.0, 60.2412
5.716765545, 96.390, 3658.0, 60.4814
5.743026110, 96.390, 3639.0, 60.3241
5.769286675, 96.390, 3497.0, 59.1354
5.795547241, 96.390, 3530.0, 59.4138
5.821807806, 96.390, 3560.0, 59.6657
5.848068371, 96.390, 3584.0, 59.8665
5.874328937, 96.390, 3524.0, 59.3633
5.900589502, 96.390, 3507.0, 59.2199
5.926850067, 96.390, 3462.0, 58.8388
5.953110633, 96.390, 3465.0, 58.8643
5.979371198, 96.390, 3424.0, 58.5150
6.005631763, 96.390, 3528.0, 59.3970
6.031892329, 96.390, 3499.0, 59.1523
6.058152894, 96.390, 3384.0, 58.1722
6.084413460, 96.390, 3418.0, 58.4637
6.110674025, 96.390, 3339.0, 57.7841
6.136934590, 96.390, 3453.0, 58.7622
6.163195156, 96.390, 3345.0, 57.8360
6.189455721, 96.390, 3406.0, 58.3609
6.215716286, 96.390, 3480.0, 58.9915
6.241976852, 96.390, 3351.0, 57.8878
6.268237417, 96.390, 3294.0, 57.3934
6.294497982, 96.390, 3317.0, 57.5934
6.320758548, 96.390, 3368.0, 58.0345
6.347019113, 96.390, 3315.0, 57.5760
6.373279678, 96.390, 3270.0, 57.1839
6.399540244, 96.390, 3192.0, 56.4978
6.425800809, 96.390, 3331.0, 57.7148
6.452061375, 96.390, 3347.0, 57.8533
6.478321940, 96.390, 3179.0, 56.3826
6.504582505, 96.390, 3214.0, 56.6922
6.530843071, 96.390, 3249.0, 57.0000
6.557103636, 96.390, 3179.0, 56.3826
6.583364201, 96.390, 3129.0, 55.9375
6.609624767, 96.390, 3235.0, 56.8771
6.635885332, 96.390, 3229.0, 56.8243
6.662145897, 96.390, 3108.0, 55.7494
6.688406463, 96.390, 3225.0, 56.7891
6.714667028, 96.390, 3199.0, 56.5597
6.740927593, 96.390, 3254.0, 57.0438
6.767188159, 96.390, 3222.0, 56.7627
6.793448724, 96.390, 3174.0, 56.3383
6.819709289, 96.390, 3137.0, 56.0089
6.845969855, 96.390, 3141.0, 56.0446
6.872230420, 96.390, 3114.0, 55.8032
6.898490986, 96.390, 3234.0, 56.8683
6.924751551, 96.390, 3127.0, 55.9196
6.951012116, 96.390, 3128.0, 55.9285
6.977272682, 96.390, 3097.0, 55.6507
7.003533247, 96.390, 3029.0, 55.0364
7.029793812, 96.390, 3070.0, 55.4076
7.056054378, 96.390, 3111.0, 55.7763
7.082314943, 96.390, 3027.0, 55.0182
7.108575508, 96.390, 3152.0, 56.1427
7.134836074, 96.390, 3083.0, 55.5248
7.161096639, 96.390, 3137.0, 56.0089
7.187357204, 96.390, 3222.0, 56.7627
7.213617770, 96.390, 3048.0, 55.2087
7.239878335, 96.390, 3148.0, 56.1070
7.266138900, 96.390, 3191.0, 56.4889
7.292399466, 96.390, 3152.0, 56.1427
7.318660031, 96.390, 3170.0, 56.3028
7.344920597, 96.390, 3109.0, 55.7584
7.371181162, 96.390, 3059.0, 55.3082
7.397441727, 96.390, 3089.0, 55.5788
7.423702293, 96.390, 3024.0, 54.9909
7.449962858, 96.390, 3044.0, 55.1725
7.476223423, 96.390, 2977.0, 54.5619
7.502483989, 96.390, 2995.0, 54.7266
7.528744554, 96.390, 2960.0, 54.4059
7.555005119, 96.390, 3009.0, 54.8544
7.581265685, 96.390, 2959.0, 54.3967
7.607526250, 96.390, 3016.0, 54.9181
7.633786815, 96.390, 3088.0, 55.5698
7.660047381, 96.390, 3054.0, 55.2630
7.686307946, 96.390, 3060.0, 55.3173
7.712568512, 96.390, 3129.0, 55.9375
7.738829077, 96.390, 3064.0, 55.3534
7.765089642, 96.390, 3027.0, 55.0182
7.791350208, 96.390, 3056.0, 55.2811
7.817610773, 96.390, 2984.0, 54.6260
7.843871338, 96.390, 2993.0, 54.7083
7.870131904, 96.390, 3031.0, 55.0545
7.896392469, 96.390, 3040.0, 55.1362
7.922653034, 96.390, 3070.0, 55.4076
7.948913600, 96.390, 3009.0, 54.8544
7.975174165, 96.390, 3029.0, 55.0364
8.001434730, 96.390, 2914.0, 53.9815
8.027695296, 96.390, 3047.0, 55.1996
8.053955861, 96.390, 3111.0, 55.7763
8.080216426, 96.390, 3071.0, 55.4166
8.106476992, 96.390, 3076.0, 55.4617
8.132737557, 96.390, 3070.0, 55.4076
8.158998123, 96.390, 3147.0, 56.0981
8.185258688, 96.390, 3035.0, 55.0908
8.211519253, 96.390, 3100.0, 55.6776
8.237779819, 96.390, 3129.0, 55.9375
8.264040384, 96.390, 3084.0, 55.5338
8.290300949, 96.390, 3110.0, 55.7674
8.316561515, 96.390, 3161.0, 56.2228
8.342822080, 96.390, 3210.0, 56.6569
8.369082645, 96.390, 3229.0, 56.8243
8.395343211, 96.390, 3222.0, 56.7627
8.421603776, 96.390, 3262.0, 57.1139
8.447864341, 96.390, 3314.0, 57.5674
8.474124907, 96.390, 3429.0, 58.5577
8.500385472, 96.390, 3392.0, 58.2409
8.526646038, 96.390, 3506.0, 59.2115
8.552906603, 96.390, 3394.0, 58.2580
8.579167168, 96.390, 3558.0, 59.6490
8.605427734, 96.390, 3682.0, 60.6795
8.631688299, 96.390, 3781.0, 61.4898
8.657948864, 96.390, 3750.0, 61.2372
8.684209430, 96.390, 3819.0, 61.7981
8.710469995, 96.390, 3687.0, 60.7207
8.736730560, 96.390, 3663.0, 60.5227
8.762991126, 96.390, 3712.0, 60.9262
8.789251691, 96.390, 3748.0, 61.2209
8.815512256, 96.390, 3587.0, 59.8916
8.841772822, 96.390, 3512.0, 59.2621
8.868033387, 96.390, 3484.0, 59.0254
8.894293952, 96.390, 3464.0, 58.8558
8.920554518, 96.390, 3383.0, 58.1636
8.946815083, 96.390, 3361.0, 57.9741
8.973075649, 96.390, 3394.0, 58.2580
8.999336214, 96.390, 3376.0, 58.1034
9.025596779, 96.390, 3268.0, 57.1664
9.051857345, 96.390, 3391.0, 58.2323
9.078117910, 96.390, 3271.0, 57.1927
9.104378475, 96.390, 3414.0, 58.4294
9.130639041, 96.390, 3295.0, 57.4021
9.156899606, 96.390, 3175.0, 56.3471
9.183160171, 96.390, 3247.0, 56.9825
9.209420737, 96.390, 3265.0, 57.1402
9.235681302, 96.390, 3288.0, 57.3411
9.261941867, 96.390, 3422.0, 58.4979
9.288202433, 96.390, 3302.0, 57.4630
9.314462998, 96.390, 3342.0, 57.8100
9.340723564, 96.390, 3327.0, 57.6802
9.366984129, 96.390, 3220.0, 56.7450
9.393244694, 96.390, 3464.0, 58.8558
9.419505260, 96.390, 3442.0, 58.6686
9.445765825, 96.390, 3423.0, 58.5064
9.472026390, 96.390, 3484.0, 59.0254
9.498286956, 96.390, 3297.0, 57.4195
9.524547521, 96.390, 3436.0, 58.6174
9.550808086, 96.390, 3360.0, 57.9655
9.577068652, 96.390, 3389.0, 58.2151
9.603329217, 96.390, 3360.0, 57.9655
9.629589782, 96.390, 3420.0, 58.4808
9.655850348, 96.390, 3471.0, 58.9152
9.682110913, 96.390, 3496.0, 59.1270
9.708371478, 96.390, 3470.0, 58.9067
9.734632044, 96.390, 3535.0, 59.4559
9.760892609, 96.390, 3546.0, 59.5483
9.787153175, 96.390, 3442.0, 58.6686
9.813413740, 96.390, 3474.0, 58.9406
9.839674305, 96.390, 3491.0, 59.0847
9.865934871, 96.390, 3525.0, 59.3717
9.892195436, 96.390, 3439.0, 58.6430
9.918456001, 96.390, 3469.0, 58.8982
9.944716567, 96.390, 3440.0, 58.6515
9.970977132, 96.390, 3480.0, 58.9915
9.997237697, 96.390, 3545.0, 59.5399
10.023498263, 96.390, 3388.0, 58.2065
10.049758828, 96.390, 3411.0, 58.4038
10.076019393, 96.390, 3475.0, 58.9491
10.102279959, 96.390, 3601.0, 60.0083
10.128540524, 96.390, 3487.0, 59.0508
10.154801090, 96.390, 3490.0, 59.0762
10.181061655, 96.390, 3463.0, 58.8473
10.207322220, 96.390, 3379.0, 58.1292
10.233582786, 96.390, 3441.0, 58.6600
10.259843351, 96.390, 3426.0, 58.5320
10.286103916, 96.390, 3568.0, 59.7327
10.312364482, 96.390, 3405.0, 58.3524
10.338625047, 96.390, 3485.0, 59.0339
10.364885612, 96.390, 3416.0, 58.4466
10.391146178, 96.390, 3407.0, 58.3695
10.417406743, 96.390, 3475.0, 58.9491
10.443667308, 96.390, 3379.0, 58.1292
10.469927874, 96.390, 3333.0, 57.7321
10.496188439, 96.390, 3243.0, 56.9473
10.522449004, 96.390, 3438.0, 58.6345
10.548709570, 96.390, 3306.0, 57.4978
10.574970135, 96.390, 3303.0, 57.4717
10.601230701, 96.390, 3293.0, 57.3847
10.627491266, 96.390, 3352.0, 57.8965
10.653751831, 96.390, 3288.0, 57.3411
10.680012397, 96.390, 3354.0, 57.9137
10.706272962, 96.390, 3256.0, 57.0614
10.732533527, 96.390, 3349.0, 57.8705
10.758794093, 96.390, 3152.0, 56.1427
10.785054658, 96.390, 3296.0, 57.4108
10.811315223, 96.390, 3248.0, 56.9912
10.837575789, 96.390, 3100.0, 55.6776
10.863836354, 96.390, 3249.0, 57.0000
10.890096919, 96.390, 3123.0, 55.8838
10.916357485, 96.390, 3110.0, 55.7674
10.942618050, 96.390, 3061.0, 55.3263
10.968878616, 96.390, 3149.0, 56.1160
10.995139181, 96.390, 3088.0, 55.5698
11.021399746, 96.390, 3059.0, 55.3082
11.047660312, 96.390, 3021.0, 54.9636
11.073920877, 96.390, 3068.0, 55.3895
11.100181442, 96.390, 3169.0, 56.2939
11.126442008, 96.390, 3131.0, 55.9553
11.152702573, 96.390, 3177.0, 56.3649
11.178963138, 96.390, 3109.0, 55.7584
11.205223704, 96.390, 3202.0, 56.5862
11.231484269, 96.390, 3340.0, 57.7927
11.257744834, 96.390, 3580.0, 59.8331
11.284005400, 96.390, 3570.0, 59.7495
11.310265965, 96.390, 3759.0, 61.3107
11.336526530, 96.390, 3765.0, 61.3596
11.362787096, 96.390, 3827.0, 61.8628
11.389047661, 96.390, 3607.0, 60.0583
11.415308227, 96.390, 3533.0, 59.4390
11.441568792, 96.390, 3482.0, 59.0085
11.467829357, 96.390, 3397.0, 58.2838
11.494089923, 96.390, 3216.0, 56.7098
11.520350488, 96.390, 3223.0, 56.7715
11.546611053, 96.390, 3059.0, 55.3082
11.572871619, 96.390, 2996.0, 54.7357
11.599132184, 96.390, 3001.0, 54.7814
11.625392749, 96.390, 2994.0, 54.7175
11.651653315, 96.390, 3021.0, 54.9636
11.677913880, 96.390, 2945.0, 54.2679
11.704174445, 96.390, 2894.0, 53.7959
11.730435011, 96.390, 2982.0, 54.6077
11.756695576, 96.390, 2956.0, 54.3691
11.782956141, 96.390, 2949.0, 54.3047
11.809216707, 96.390, 2850.0, 53.3854
11.835477272, 96.390, 2927.0, 54.1018
11.861737838, 96.390, 2975.0, 54.5436
11.887998403, 96.390, 2900.0, 53.8516
11.914258968, 96.390, 2874.0, 53.6097
11.940519534, 96.390, 2987.0, 54.6535
11.966780099, 96.390, 2998.0, 54.7540
11.993040664, 96.390, 3027.0, 55.0182
12.019301230, 96.390, 2934.0, 54.1664
12.045561795, 96.390, 2948.0, 54.2955
12.071822360, 96.390, 2964.0, 54.4426
12.098082926, 96.390, 3040.0, 55.1362
12.124343491, 96.390, 3066.0, 55.3715
12.150604056, 96.390, 3019.0, 54.9454
12.176864622, 96.390, 3146.0, 56.0892
12.203125187, 96.390, 3082.0, 55.5158
12.229385753, 96.390, 3117.0, 55.8301
12.255646318, 96.390, 3143.0, 56.0625
12.281906883, 96.390, 3010.0, 54.8635
12.308167449, 96.390, 3057.0, 55.2901
12.334428014, 96.390, 3035.0, 55.0908
12.360688579, 96.390, 2962.0, 54.4243
12.386949145, 96.390, 3075.0, 55.4527
12.413209710, 96.390, 3028.0, 55.0273
12.439470275, 96.390, 3016.0, 54.9181
12.465730841, 96.390, 3014.0, 54.8999
12.491991406, 96.390, 2972.0, 54.5161
12.518251971, 96.390, 2993.0, 54.7083
12.544512537, 96.390, 2959.0, 54.3967
12.570773102, 96.390, 2952.0, 54.3323
12.597033667, 96.390, 2870.0, 53.5724
12.623294233, 96.390, 2870.0, 53.5724
12.649554798, 96.390, 2879.0, 53.6563
12.675815364, 96.390, 2742.0, 52.3641
12.702075929, 96.390, 2830.0, 53.1977
12.728336494, 96.390, 2776.0, 52.6878
12.754597060, 96.390, 2795.0, 52.8678
12.780857625, 96.390, 2801.0, 52.9245
12.807118190, 96.390, 2802.0, 52.9339
12.833378756, 96.390, 2760.0, 52.5357
12.859639321, 96.390, 2666.0, 51.6333
12.885899886, 96.390, 2712.0, 52.0769
12.912160452, 96.390, 2733.0, 52.2781
12.938421017, 96.390, 2654.0, 51.5170
12.964681582, 96.390, 2603.0, 51.0196
12.990942148, 96.390, 2649.0, 51.4684
13.017202713, 96.390, 2565.0, 50.6458
13.043463279, 96.390, 2617.0, 51.1566
13.069723844, 96.390, 2568.0, 50.6754
13.095984409, 96.390, 2462.0, 49.6185
13.122244975, 96.390, 2436.0, 49.3559
13.148505540, 96.390, 2460.0, 49.5984
13.174766105, 96.390, 2413.0, 49.1223
13.201026671, 96.390, 2318.0, 48.1456
13.227287236, 96.390, 2239.0, 47.3181
13.253547801, 96.390, 2250.0, 47.4342
13.279808367, 96.390, 2270.0, 47.6445
13.306068932, 96.390, 2288.0, 47.8330
13.332329497, 96.390, 2307.0, 48.0312
13.358590063, 96.390, 2396.0, 48.9490
13.384850628, 96.390, 2205.0, 46.9574
13.411111193, 96.390, 2220.0, 47.1169
13.437371759, 96.390, 2157.0, 46.4435
13.463632324, 96.390, 2212.0, 47.0319
13.489892890, 96.390, 2146.0, 46.3249
13.516153455, 96.390, 2157.0, 46.4435
13.542414020, 96.390, 2168.0, 46.5618
13.568674586, 96.390, 2269.0, 47.6340
13.594935151, 96.390, 2229.0, 47.2123
13.621195716, 96.390, 2227.0, 47.1911
13.647456282, 96.390, 2197.0, 46.8722
13.673716847, 96.390, 2151.0, 46.3789
13.699977412, 96.390, 2252.0, 47.4552
13.726237978, 96.390, 2147.0, 46.3357
13.752498543, 96.390, 2117.0, 46.0109
13.778759108, 96.390, 2156.0, 46.4327
13.805019674, 96.390, 2210.0, 47.0106
13.831280239, 96.390, 2102.0, 45.8476
13.857540805, 96.390, 2038.0, 45.1442
13.883801370, 96.390, 2199.0, 46.8935
13.910061935, 96.390, 2111.0, 45.9456
13.936322501, 96.390, 2010.0, 44.8330
13.962583066, 96.390, 2137.0, 46.2277
13.988843631, 96.390, 2046.0, 45.2327
14.015104197, 96.390, 2090.0, 45.7165
14.041364762, 96.390, 2009.0, 44.8219
14.067625327, 96.390, 2019.0, 44.9333
14.093885893, 96.390, 1945.0, 44.1022
14.120146458, 96.390, 1974.0, 44.4297
14.146407023, 96.390, 1940.0, 44.0454
14.172667589, 96.390, 1937.0, 44.0114
14.198928154, 96.390, 1945.0, 44.1022
14.225188719, 96.390, 1943.0, 44.0795
14.251449285, 96.390, 2038.0, 45.1442
14.277709850, 96.390, 2016.0, 44.8999
14.303970416, 96.390, 2006.0, 44.7884
14.330230981, 96.390, 1925.0, 43.8748
14.356491546, 96.390, 2048.0, 45.2548
14.382752112, 96.390, 1986.0, 44.5646
14.409012677, 96.390, 1954.0, 44.2041
14.435273242, 96.390, 2034.0, 45.0999
14.461533808, 96.390, 1965.0, 44.3283
14.487794373, 96.390, 1974.0, 44.4297
14.514054938, 96.390, 1996.0, 44.6766
14.540315504, 96.390, 1999.0, 44.7102
14.566576069, 96.390, 1937.0, 44.0114
14.592836634, 96.390, 1998.0, 44.6990
14.619097200, 96.390, 1963.0, 44.3058
14.645357765, 96.390, 1945.0, 44.1022
14.671618331, 96.390, 1947.0, 44.1248
14.697878896, 96.390, 1924.0, 43.8634
14.724139461, 96.390, 1987.0, 44.5758
14.750400027, 96.390, 2003.0, 44.7549
14.776660592, 96.390, 2008.0, 44.8107
14.802921157, 96.390, 1963.0, 44.3058
14.829181723, 96.390, 1986.0, 44.5646
14.855442288, 96.390, 2032.0, 45.0777
14.881702853, 96.390, 1950.0, 44.1588
14.907963419, 96.390, 1951.0, 44.1701
14.934223984, 96.390, 2009.0, 44.8219
14.960484549, 96.390, 2043.0, 45.1996
14.986745115, 96.390, 2024.0, 44.9889
15.013005680, 96.390, 2031.0, 45.0666
15.039266245, 96.390, 1991.0, 44.6206
15.065526811, 96.390, 2036.0, 45.1221
15.091787376, 96.390, 2071.0, 45.5082
15.118047942, 96.390, 2091.0, 45.7275
15.144308507, 96.390, 2016.0, 44.8999
15.170569072, 96.390, 1997.0, 44.6878
15.196829638, 96.390, 1962.0, 44.2945
15.223090203, 96.390, 2100.0, 45.8258
15.249350768, 96.390, 2068.0, 45.4753
15.275611334, 96.390, 2080.0, 45.6070
15.301871899, 96.390, 2145.0, 46.3141
15.328132464, 96.390, 2040.0, 45.1664
15.354393030, 96.390, 1935.0, 43.9886
15.380653595, 96.390, 2070.0, 45.4973
15.406914160, 96.390, 2089.0, 45.7056
15.433174726, 96.390, 2047.0, 45.2438
15.459435291, 96.390, 2068.0, 45.4753
15.485695857, 96.390, 1923.0, 43.8520
15.511956422, 96.390, 2045.0, 45.2217
15.538216987, 96.390, 2010.0, 44.8330
15.564477553, 96.390, 2019.0, 44.9333
15.590738118, 96.390, 2068.0, 45.4753
15.616998683, 96.390, 1915.0, 43.7607
15.643259249, 96.390, 1972.0, 44.4072
15.669519814, 96.390, 2026.0, 45.0111
15.695780379, 96.390, 1893.0, 43.5086
15.722040945, 96.390, 1898.0, 43.5660
15.748301510, 96.390, 1914.0, 43.7493
15.774562075, 96.390, 1931.0, 43.9431
15.800822641, 96.390, 1871.0, 43.2551
15.827083206, 96.390, 1961.0, 44.2832
15.853343771, 96.390, 1895.0, 43.5316
15.879604337, 96.390, 1907.0, 43.6692
15.905864902, 96.390, 1958.0, 44.2493
15.932125468, 96.390, 1882.0, 43.3820
15.958386033, 96.390, 1947.0, 44.1248
15.984646598, 96.390, 1912.0, 43.7264
16.010907164, 96.390, 1938.0, 44.0227
16.037167729, 96.390, 1944.0, 44.0908
16.063428294, 96.390, 1910.0, 43.7035
16.089688860, 96.390, 1958.0, 44.2493
16.115949425, 96.390, 1932.0, 43.9545
16.142209990, 96.390, 1996.0, 44.6766
16.168470556, 96.390, 1903.0, 43.6234
16.194731121, 96.390, 1966.0, 44.3396
16.220991686, 96.390, 1906.0, 43.6578
16.247252252, 96.390, 1902.0, 43.6119
16.273512817, 96.390, 1894.0, 43.5201
16.299773382, 96.390, 1866.0, 43.1972
16.326033948, 96.390, 1889.0, 43.4626
16.352294513, 96.390, 1862.0, 43.1509
16.378555079, 96.390, 1959.0, 44.2606
16.404815644, 96.390, 1971.0, 44.3959
16.431076209, 96.390, 1862.0, 43.1509
16.457336775, 96.390, 1921.0, 43.8292
16.483597340, 96.390, 1955.0, 44.2154
16.509857905, 96.390, 1935.0, 43.9886
16.536118471, 96.390, 1958.0, 44.2493
16.562379036, 96.390, 1892.0, 43.4971
16.588639601, 96.390, 1964.0, 44.3170
16.614900167, 96.390, 1964.0, 44.3170
16.641160732, 96.390, 1889.0, 43.4626
16.667421297, 96.390, 1883.0, 43.3935
16.693681863, 96.390, 2012.0, 44.8553
16.719942428, 96.390, 1933.0, 43.9659
16.746202994, 96.390, 1901.0, 43.6005
16.772463559, 96.390, 2038.0, 45.1442
16.798724124, 96.390, 2085.0, 45.6618
16.824984690, 96.390, 2049.0, 45.2659
16.851245255, 96.390, 2102.0, 45.8476
16.877505820, 96.390, 2141.0, 46.2709
16.903766386, 96.390, 2189.0, 46.7868
16.930026951, 96.390, 2073.0, 45.5302
16.956287516, 96.390, 2187.0, 46.7654
16.982548082, 96.390, 2297.0, 47.9270
17.008808647, 96.390, 2243.0, 47.3603
17.035069212, 96.390, 2296.0, 47.9166
17.061329778, 96.390, 2378.0, 48.7647
17.087590343, 96.390, 2474.0, 49.7393
17.113850908, 96.390, 2523.0, 50.2295
17.140111474, 96.390, 2581.0, 50.8035
17.166372039, 96.390, 2671.0, 51.6817
17.192632605, 96.390, 2708.0, 52.0384
17.218893170, 96.390, 2700.0, 51.9615
17.245153735, 96.390, 2752.0, 52.4595
17.271414301, 96.390, 2694.0, 51.9038
17.297674866, 96.390, 2662.0, 51.5946
17.323935431, 96.390, 2751.0, 52.4500
17.350195997, 96.390, 2720.0, 52.1536
17.376456562, 96.390, 2686.0, 51.8266
17.402717127, 96.390, 2658.0, 51.5558
17.428977693, 96.390, 2599.0, 50.9804
17.455238258, 96.390, 2647.0, 51.4490
17.481498823, 96.390, 2573.0, 50.7247
17.507759389, 96.390, 2529.0, 50.2892
17.534019954, 96.390, 2468.0, 49.6790
17.560280520, 96.390, 2512.0, 50.1199
17.586541085, 96.390, 2527.0, 50.2693
17.612801650, 96.390, 2522.0, 50.2195
17.639062216, 96.390, 2325.0, 48.2183
17.665322781, 96.390, 2366.0, 48.6415
17.691583346, 96.390, 2459.0, 49.5883
17.717843912, 96.390, 2413.0, 49.1223
17.744104477, 96.390, 2317.0, 48.1352
17.770365042, 96.390, 2321.0, 48.1768
17.796625608, 96.390, 2317.0, 48.1352
17.822886173, 96.390, 2421.0, 49.2037
17.849146738, 96.390, 2349.0, 48.4665
17.875407304, 96.390, 2240.0, 47.3286
17.901667869, 96.390, 2352.0, 48.4974
17.927928434, 96.390, 2342.0, 48.3942
17.954189000, 96.390, 2336.0, 48.3322
17.980449565, 96.390, 2241.0, 47.3392
18.006710131, 96.390, 2315.0, 48.1144
18.032970696, 96.390, 2262.0, 47.5605
18.059231261, 96.390, 2254.0, 47.4763
18.085491827, 96.390, 2212.0, 47.0319
18.111752392, 96.390, 2270.0, 47.6445
18.138012957, 96.390, 2284.0, 47.7912
18.164273523, 96.390, 2304.0, 48.0000
18.190534088, 96.390, 2265.0, 47.5920
18.216794653, 96.390, 2255.0, 47.4868
18.243055219, 96.390, 2323.0, 48.1975
18.269315784, 96.390, 2295.0, 47.9062
18.295576349, 96.390, 2313.0, 48.0937
18.321836915, 96.390, 2264.0, 47.5815
18.348097480, 96.390, 2254.0, 47.4763
18.374358046, 96.390, 2267.0, 47.6130
18.400618611, 96.390, 2118.0, 46.0217
18.426879176, 96.390, 2249.0, 47.4236
18.453139742, 96.390, 2323.0, 48.1975
18.479400307, 96.390, 2184.0, 46.7333
18.505660872, 96.390, 2281.0, 47.7598
18.531921438, 96.390, 2272.0, 47.6655
18.558182003, 96.390, 2249.0, 47.4236
18.584442568, 96.390, 2305.0, 48.0104
18.610703134, 96.390, 2250.0, 47.4342
18.636963699, 96.390, 2171.0, 46.5940
18.663224264, 96.390, 2157.0, 46.4435
18.689484830, 96.390, 2237.0, 47.2969
18.715745395, 96.390, 2188.0, 46.7761
18.742005960, 96.390, 2152.0, 46.3897
18.768266526, 96.390, 2207.0, 46.9787
18.794527091, 96.390, 2197.0, 46.8722
18.820787657, 96.390, 2115.0, 45.9891
18.847048222, 96.390, 2179.0, 46.6798
18.873308787, 96.390, 2134.0, 46.1952
18.899569353, 96.390, 2191.0, 46.8081
18.925829918, 96.390, 2103.0, 45.8585
18.952090483, 96.390, 2124.0, 46.0869
18.978351049, 96.390, 2141.0, 46.2709
19.004611614, 96.390, 2172.0, 46.6047
19.030872179, 96.390, 2176.0, 46.6476
19.057132745, 96.390, 2209.0, 47.0000
19.083393310, 96.390, 2137.0, 46.2277
19.109653875, 96.390, 2143.0, 46.2925
19.135914441, 96.390, 2118.0, 46.0217
19.162175006, 96.390, 2189.0, 46.7868
19.188435572, 96.390, 2151.0, 46.3789
19.214696137, 96.390, 2216.0, 47.0744
19.240956702, 96.390, 2210.0, 47.0106
19.267217268, 96.390, 2144.0, 46.3033
19.293477833, 96.390, 2140.0, 46.2601
19.319738398, 96.390, 2163.0, 46.5081
19.345998964, 96.390, 2238.0, 47.3075
19.372259529, 96.390, 2192.0, 46.8188
19.398520094, 96.390, 2160.0, 46.4758
19.424780660, 96.390, 2186.0, 46.7547
19.451041225, 96.390, 2242.0, 47.3498
19.477301790, 96.390, 2129.0, 46.1411
19.503562356, 96.390, 2192.0, 46.8188
19.529822921, 96.390, 2184.0, 46.7333
19.556083486, 96.390, 2211.0, 47.0213
19.582344052, 96.390, 2144.0, 46.3033
19.608604617, 96.390, 2268.0, 47.6235
19.634865183, 96.390, 2191.0, 46.8081
19.661125748, 96.390, 2104.0, 45.8694
19.687386313, 96.390, 2277.0, 47.7179
19.713646879, 96.390, 2222.0, 47.1381
19.739907444, 96.390, 2218.0, 47.0956
19.766168009, 96.390, 2196.0, 46.8615
19.792428575, 96.390, 2208.0, 46.9894
19.818689140, 96.390, 2177.0, 46.6583
19.844949705, 96.390, 2162.0, 46.4973
19.871210271, 96.390, 2193.0, 46.8295
19.897470836, 96.390, 2137.0, 46.2277
19.923731401, 96.390, 2214.0, 47.0532
19.949991967, 96.390, 2219.0, 47.1063
19.976252532, 96.390, 2194.0, 46.8402
20.002513098, 96.390, 2180.0, 46.6905
20.028773663, 96.390, 2171.0, 46.5940
20.055034228, 96.390, 2180.0, 46.6905
20.081294794, 96.390, 2198.0, 46.8828
20.107555359, 96.390, 2200.0, 46.9042
20.133815924, 96.390, 2254.0, 47.4763
20.160076490, 96.390, 2190.0, 46.7974
20.186337055, 96.390, 2132.0, 46.1736
20.212597620, 96.390, 2166.0, 46.5403
20.238858186, 96.390, 2169.0, 46.5725
20.265118751, 96.390, 2100.0, 45.8258
20.291379316, 96.390, 2239.0, 47.3181
20.317639882, 96.390, 2256.0, 47.4974
20.343900447, 96.390, 2107.0, 45.9021
20.370161012, 96.390, 2256.0, 47.4974
20.396421578, 96.390, 2212.0, 47.0319
20.422682143, 96.390, 2215.0, 47.0638
20.448942709, 96.390, 2250.0, 47.4342
20.475203274, 96.390, 2183.0, 46.7226
20.501463839, 96.390, 2186.0, 46.7547
20.527724405, 96.390, 2181.0, 46.7012
20.553984970, 96.390, 2248.0, 47.4131
20.580245535, 96.390, 2175.0, 46.6369
20.606506101, 96.390, 2269.0, 47.6340
20.632766666, 96.390, 2180.0, 46.6905
20.659027231, 96.390, 2145.0, 46.3141
20.685287797, 96.390, 2243.0, 47.3603
20.711548362, 96.390, 2290.0, 47.8539
20.737808927, 96.390, 2210.0, 47.0106
20.764069493, 96.390, 2259.0, 47.5289
20.790330058, 96.390, 2227.0, 47.1911
20.816590623, 96.390, 2242.0, 47.3498
20.842851189, 96.390, 2168.0, 46.5618
20.869111754, 96.390, 2148.0, 46.3465
20.895372320, 96.390, 2186.0, 46.7547
20.921632885, 96.390, 2173.0, 46.6154
20.947893450, 96.390, 2156.0, 46.4327
20.974154016, 96.390, 2266.0, 47.6025
21.000414581, 96.390, 2172.0, 46.6047
21.026675146, 96.390, 2264.0, 47.5815
21.052935712, 96.390, 2252.0, 47.4552
21.079196277, 96.390, 2234.0, 47.2652
21.105456842, 96.390, 2175.0, 46.6369
21.131717408, 96.390, 2313.0, 48.0937
21.157977973, 96.390, 2201.0, 46.9148
21.184238538, 96.390, 2232.0, 47.2440
21.210499104, 96.390, 2298.0, 47.9375
21.236759669, 96.390, 2283.0, 47.7807
21.263020235, 96.390, 2270.0, 47.6445
21.289280800, 96.390, 2251.0, 47.4447
21.315541365, 96.390, 2182.0, 46.7119
21.341801931, 96.390, 2264.0, 47.5815
21.368062496, 96.390, 2198.0, 46.8828
21.394323061, 96.390, 2285.0, 47.8017
21.420583627, 96.390, 2280.0, 47.7493
21.446844192, 96.390, 2239.0, 47.3181
21.473104757, 96.390, 2253.0, 47.4658
21.499365323, 96.390, 2272.0, 47.6655
21.525625888, 96.390, 2314.0, 48.1041
21.551886453, 96.390, 2311.0, 48.0729
21.578147019, 96.390, 2346.0, 48.4355
21.604407584, 96.390, 2327.0, 48.2390
21.630668149, 96.390, 2330.0, 48.2701
21.656928715, 96.390, 2371.0, 48.6929
21.683189280, 96.390, 2290.0, 47.8539
21.709449846, 96.390, 2314.0, 48.1041
21.735710411, 96.390, 2328.0, 48.2494
21.761970976, 96.390, 2272.0, 47.6655
21.788231542, 96.390, 2352.0, 48.4974
21.814492107, 96.390, 2306.0, 48.0208
21.840752672, 96.390, 2396.0, 48.9490
21.867013238, 96.390, 2283.0, 47.7807
21.893273803, 96.390, 2448.0, 49.4773
21.919534368, 96.390, 2381.0, 48.7955
21.945794934, 96.390, 2430.0, 49.2950
21.972055499, 96.390, 2477.0, 49.7695
21.998316064, 96.390, 2442.0, 49.4166
22.024576630, 96.390, 2495.0, 49.9500
22.050837195, 96.390, 2519.0, 50.1896
22.077097761, 96.390, 2483.0, 49.8297
22.103358326, 96.390, 2520.0, 50.1996
22.129618891, 96.390, 2508.0, 50.0799
22.155879457, 96.390, 2588.0, 50.8724
22.182140022, 96.390, 2462.0, 49.6185
22.208400587, 96.390, 2658.0, 51.5558
22.234661153, 96.390, 2567.0, 50.6656
22.260921718, 96.390, 2741.0, 52.3546
22.287182283, 96.390, 2772.0, 52.6498
22.313442849, 96.390, 2702.0, 51.9808
22.339703414, 96.390, 2812.0, 53.0283
22.365963979, 96.390, 2738.0, 52.3259
22.392224545, 96.390, 2849.0, 53.3760
22.418485110, 96.390, 2896.0, 53.8145
22.444745675, 96.390, 2966.0, 54.4610
22.471006241, 96.390, 2990.0, 54.6809
22.497266806, 96.390, 3083.0, 55.5248
22.523527372, 96.390, 3177.0, 56.3649
22.549787937, 96.390, 3238.0, 56.9034
22.576048502, 96.390, 3320.0, 57.6194
22.602309068, 96.390, 3298.0, 57.4282
22.628569633, 96.390, 3426.0, 58.5320
22.654830198, 96.390, 3497.0, 59.1354
22.681090764, 96.390, 3517.0, 59.3043
22.707351329, 96.390, 3375.0, 58.0948
22.733611894, 96.390, 3244.0, 56.9561
22.759872460, 96.390, 3266.0, 57.1489
22.786133025, 96.390, 3162.0, 56.2317
22.812393590, 96.390, 3051.0, 55.2359
22.838654156, 96.390, 3009.0, 54.8544
22.864914721, 96.390, 3007.0, 54.8361
22.891175287, 96.390, 2994.0, 54.7175
22.917435852, 96.390, 2798.0, 52.8961
22.943696417, 96.390, 2850.0, 53.3854
22.969956983, 96.390, 2755.0, 52.4881
22.996217548, 96.390, 2788.0, 52.8015
23.022478113, 96.390, 2631.0, 51.2933
23.048738679, 96.390, 2626.0, 51.2445
23.074999244, 96.390, 2640.0, 51.3809
23.101259809, 96.390, 2648.0, 51.4587
23.127520375, 96.390, 2549.0, 50.4876
23.153780940, 96.390, 2555.0, 50.5470
23.180041505, 96.390, 2541.0, 50.4083
23.206302071, 96.390, 2535.0, 50.3488
23.232562636, 96.390, 2457.0, 49.5681
23.258823201, 96.390, 2529.0, 50.2892
23.285083767, 96.390, 2442.0, 49.4166
23.311344332, 96.390, 2480.0, 49.7996
23.337604898, 96.390, 2513.0, 50.1298
23.363865463, 96.390, 2508.0, 50.0799
23.390126028, 96.390, 2482.0, 49.8197
23.416386594, 96.390, 2460.0, 49.5984
23.442647159, 96.390, 2521.0, 50.2096
23.468907724, 96.390, 2423.0, 49.2240
23.495168290, 96.390, 2507.0, 50.0700
23.521428855, 96.390, 2448.0, 49.4773
23.547689420, 96.390, 2473.0, 49.7293
23.573949986, 96.390, 2558.0, 50.5767
23.600210551, 96.390, 2514.0, 50.1398
23.626471116, 96.390, 2414.0, 49.1325
23.652731682, 96.390, 2453.0, 49.5278
23.678992247, 96.390, 2489.0, 49.8899
23.705252813, 96.390, 2429.0, 49.2849
23.731513378, 96.390, 2476.0, 49.7594
23.757773943, 96.390, 2482.0, 49.8197
23.784034509, 96.390, 2486.0, 49.8598
23.810295074, 96.390, 2448.0, 49.4773
23.836555639, 96.390, 2524.0, 50.2394
23.862816205, 96.390, 2459.0, 49.5883
23.889076770, 96.390, 2440.0, 49.3964
23.915337335, 96.390, 2491.0, 49.9099
23.941597901, 96.390, 2401.0, 49.0000
23.967858466, 96.390, 2358.0, 48.5592
23.994119031, 96.390, 2283.0, 47.7807
24.020379597, 96.390, 2454.0, 49.5379
24.046640162, 96.390, 2349.0, 48.4665
24.072900727, 96.390, 2315.0, 48.1144
24.099161293, 96.390, 2344.0, 48.4149
24.125421858, 96.390, 2397.0, 48.9592
24.151682424, 96.390, 2323.0, 48.1975
24.177942989, 96.390, 2196.0, 46.8615
24.204203554, 96.390, 2236.0, 47.2864
24.230464120, 96.390, 2304.0, 48.0000
24.256724685, 96.390, 2202.0, 46.9255
24.282985250, 96.390, 2352.0, 48.4974
24.309245816, 96.390, 2319.0, 48.1560
24.335506381, 96.390, 2268.0, 47.6235
24.361766946, 96.390, 2202.0, 46.9255
24.388027512, 96.390, 2112.0, 45.9565
24.414288077, 96.390, 2162.0, 46.4973
24.440548642, 96.390, 2227.0, 47.1911
24.466809208, 96.390, 2164.0, 46.5188
24.493069773, 96.390, 2216.0, 47.0744
24.519330338, 96.390, 2178.0, 46.6690
24.545590904, 96.390, 2164.0, 46.5188
24.571851469, 96.390, 2166.0, 46.5403
24.598112035, 96.390, 2110.0, 45.9347
24.624372600, 96.390, 2098.0, 45.8039
24.650633165, 96.390, 2202.0, 46.9255
24.676893731, 96.390, 2136.0, 46.2169
24.703154296, 96.390, 2072.0, 45.5192
24.729414861, 96.390, 2180.0, 46.6905
24.755675427, 96.390, 2206.0, 46.9681
24.781935992, 96.390, 2113.0, 45.9674
24.808196557, 96.390, 2019.0, 44.9333
24.834457123, 96.390, 2044.0, 45.2106
24.860717688, 96.390, 2057.0, 45.3542
24.886978253, 96.390, 2053.0, 45.3100
24.913238819, 96.390, 2069.0, 45.4863
24.939499384, 96.390, 2009.0, 44.8219
24.965759950, 96.390, 2016.0, 44.8999
24.992020515, 96.390, 2063.0, 45.4203
25.018281080, 96.390, 2011.0, 44.8442
25.044541646, 96.390, 1997.0, 44.6878
25.070802211, 96.390, 2022.0, 44.9667
25.097062776, 96.390, 1966.0, 44.3396
25.123323342, 96.390, 1932.0, 43.9545
25.149583907, 96.390, 1991.0, 44.6206
25.175844472, 96.390, 1868.0, 43.2204
25.202105038, 96.390, 1858.0, 43.1045
25.228365603, 96.390, 1952.0, 44.1814
25.254626168, 96.390, 1894.0, 43.5201
25.280886734, 96.390, 1955.0, 44.2154
25.307147299, 96.390, 1934.0, 43.9773
25.333407864, 96.390, 1943.0, 44.0795
25.359668430, 96.390, 2016.0, 44.8999
25.385928995, 96.390, 2003.0, 44.7549
25.412189561, 96.390, 1930.0, 43.9318
25.438450126, 96.390, 2030.0, 45.0555
25.464710691, 96.390, 1995.0, 44.6654
25.490971257, 96.390, 1999.0, 44.7102
25.517231822, 96.390, 2005.0, 44.7772
25.543492387, 96.390, 1951.0, 44.1701
25.569752953, 96.390, 1965.0, 44.3283
25.596013518, 96.390, 2003.0, 44.7549
25.622274083, 96.390, 2011.0, 44.8442
25.648534649, 96.390, 1963.0, 44.3058
25.674795214, 96.390, 2003.0, 44.7549
25.701055779, 96.390, 1949.0, 44.1475
25.727316345, 96.390, 1979.0, 44.4860
25.753576910, 96.390, 2021.0, 44.9555
25.779837476, 96.390, 2027.0, 45.0222
25.806098041, 96.390, 1990.0, 44.6094
25.832358606, 96.390, 2033.0, 45.0888
25.858619172, 96.390, 2058.0, 45.3652
25.884879737, 96.390, 2141.0, 46.2709
25.911140302, 96.390, 2022.0, 44.9667
25.937400868, 96.390, 2113.0, 45.9674
25.963661433, 96.390, 2128.0, 46.1303
25.989921998, 96.390, 2088.0, 45.6946
26.016182564, 96.390, 2068.0, 45.4753
26.042443129, 96.390, 2179.0, 46.6798
26.068703694, 96.390, 2229.0, 47.2123
26.094964260, 96.390, 2177.0, 46.6583
26.121224825, 96.390, 2260.0, 47.5395
26.147485390, 96.390, 2373.0, 48.7134
26.173745956, 96.390, 2260.0, 47.5395
26.200006521, 96.390, 2284.0, 47.7912
26.226267087, 96.390, 2295.0, 47.9062
26.252527652, 96.390, 2145.0, 46.3141
26.278788217, 96.390, 2239.0, 47.3181
26.305048783, 96.390, 2173.0, 46.6154
26.331309348, 96.390, 2235.0, 47.2758
26.357569913, 96.390, 2148.0, 46.3465
26.383830479, 96.390, 2098.0, 45.8039
26.410091044, 96.390, 2105.0, 45.8803
26.436351609, 96.390, 2108.0, 45.9130
26.462612175, 96.390, 2107.0, 45.9021
26.488872740, 96.390, 2061.0, 45.3982
26.515133305, 96.390, 1964.0, 44.3170
26.541393871, 96.390, 1935.0, 43.9886
26.567654436, 96.390, 1967.0, 44.3509
26.593915002, 96.390, 1954.0, 44.2041
26.620175567, 96.390, 1966.0, 44.3396
26.646436132, 96.390, 1923.0, 43.8520
26.672696698, 96.390, 1910.0, 43.7035
26.698957263, 96.390, 1833.0, 42.8135
26.725217828, 96.390, 1963.0, 44.3058
26.751478394, 96.390, 1858.0, 43.1045
26.777738959, 96.390, 1867.0, 43.2088
26.803999524, 96.390, 1905.0, 43.6463
26.830260090, 96.390, 1879.0, 43.3474
26.856520655, 96.390, 1828.0, 42.7551
26.882781220, 96.390, 1814.0, 42.5911
26.909041786, 96.390, 1859.0, 43.1161
26.935302351, 96.390, 1891.0, 43.4856
26.961562916, 96.390, 1858.0, 43.1045
26.987823482, 96.390, 1835.0, 42.8369
27.014084047, 96.390, 1871.0, 43.2551
27.040344613, 96.390, 1825.0, 42.7200
27.066605178, 96.390, 1847.0, 42.9767
27.092865743, 96.390, 1811.0, 42.5558
27.119126309, 96.390, 1744.0, 41.7612
27.145386874, 96.390, 1771.0, 42.0833
27.171647439, 96.390, 1756.0, 41.9047
27.197908005, 96.390, 1760.0, 41.9524
27.224168570, 96.390, 1795.0, 42.3674
27.250429135, 96.390, 1763.0, 41.9881
27.276689701, 96.390, 1746.0, 41.7852
27.302950266, 96.390, 1677.0, 40.9512
27.329210831, 96.390, 1782.0, 42.2137
27.355471397, 96.390, 1808.0, 42.5206
27.381731962, 96.390, 1754.0, 41.8808
27.407992528, 96.390, 1720.0, 41.4729
27.434253093, 96.390, 1764.0, 42.0000
27.460513658, 96.390, 1764.0, 42.0000
27.486774224, 96.390, 1738.0, 41.6893
27.513034789, 96.390, 1812.0, 42.5676
27.539295354, 96.390, 1704.0, 41.2795
27.565555920, 96.390, 1722.0, 41.4970
27.591816485, 96.390, 1788.0, 42.2847
27.618077050, 96.390, 1717.0, 41.4367
27.644337616, 96.390, 1665.0, 40.8044
27.670598181, 96.390, 1699.0, 41.2189
27.696858746, 96.390, 1744.0, 41.7612
27.723119312, 96.390, 1791.0, 42.3202
27.749379877, 96.390, 1715.0, 41.4126
27.775640442, 96.390, 1666.0, 40.8167
27.801901008, 96.390, 1832.0, 42.8019
27.828161573, 96.390, 1711.0, 41.3642
27.854422139, 96.390, 1720.0, 41.4729
27.880682704, 96.390, 1770.0, 42.0714
27.906943269, 96.390, 1719.0, 41.4608
27.933203835, 96.390, 1738.0, 41.6893
27.959464400, 96.390, 1761.0, 41.9643
27.985724965, 96.390, 1681.0, 41.0000
28.011985531, 96.390, 1785.0, 42.2493
28.038246096, 96.390, 1692.0, 41.1339
28.064506661, 96.390, 1733.0, 41.6293
28.090767227, 96.390, 1796.0, 42.3792
28.117027792, 96.390, 1760.0, 41.9524
28.143288357, 96.390, 1786.0, 42.2611
28.169548923, 96.390, 1752.0, 41.8569
28.195809488, 96.390, 1670.0, 40.8656
28.222070054, 96.390, 1647.0, 40.5832
28.248330619, 96.390, 1685.0, 41.0488
28.274591184, 96.390, 1699.0, 41.2189
28.300851750, 96.390, 1718.0, 41.4488
28.327112315, 96.390, 1642.0, 40.5216
28.353372880, 96.390, 1653.0, 40.6571
28.379633446, 96.390, 1763.0, 41.9881
28.405894011, 96.390, 1677.0, 40.9512
28.432154576, 96.390, 1688.0, 41.0853
28.458415142, 96.390, 1693.0, 41.1461
28.484675707, 96.390, 1645.0, 40.5586
28.510936272, 96.390, 1639.0, 40.4846
28.537196838, 96.390, 1715.0, 41.4126
28.563457403, 96.390, 1726.0, 41.5452
28.589717968, 96.390, 1784.0, 42.2374
28.615978534, 96.390, 1689.0, 41.0974
28.642239099, 96.390, 1726.0, 41.5452
28.668499665, 96.390, 1719.0, 41.4608
28.694760230, 96.390, 1671.0, 40.8779
28.721020795, 96.390, 1713.0, 41.3884
28.747281361, 96.390, 1739.0, 41.7013
28.773541926, 96.390, 1688.0, 41.0853
28.799802491, 96.390, 1755.0, 41.8927
28.826063057, 96.390, 1708.0, 41.3280
28.852323622, 96.390, 1634.0, 40.4228
28.878584187, 96.390, 1783.0, 42.2256
28.904844753, 96.390, 1600.0, 40.0000
28.931105318, 96.390, 1648.0, 40.5956
28.957365883, 96.390, 1679.0, 40.9756
28.983626449, 96.390, 1724.0, 41.5211
29.009887014, 96.390, 1731.0, 41.6053
29.036147579, 96.390, 1709.0, 41.3401
29.062408145, 96.390, 1741.0, 41.7253
29.088668710, 96.390, 1688.0, 41.0853
29.114929276, 96.390, 1736.0, 41.6653
29.141189841, 96.390, 1708.0, 41.3280
29.167450406, 96.390, 1680.0, 40.9878
29.193710972, 96.390, 1809.0, 42.5323
29.219971537, 96.390, 1708.0, 41.3280
29.246232102, 96.390, 1774.0, 42.1189
29.272492668, 96.390, 1720.0, 41.4729
29.298753233, 96.390, 1708.0, 41.3280
29.325013798, 96.390, 1755.0, 41.8927
29.351274364, 96.390, 1820.0, 42.6615
29.377534929, 96.390, 1773.0, 42.1070
29.403795494, 96.390, 1819.0, 42.6497
29.430056060, 96.390, 1830.0, 42.7785
29.456316625, 96.390, 1864.0, 43.1741
29.482577191, 96.390, 1773.0, 42.1070
29.508837756, 96.390, 1767.0, 42.0357
29.535098321, 96.390, 1803.0, 42.4617
29.561358887, 96.390, 1774.0, 42.1189
29.587619452, 96.390, 1989.0, 44.5982
29.613880017, 96.390, 1834.0, 42.8252
29.640140583, 96.390, 1846.0, 42.9651
29.666401148, 96.390, 1933.0, 43.9659
29.692661713, 96.390, 1905.0, 43.6463
29.718922279, 96.390, 1826.0, 42.7317
29.745182844, 96.390, 1913.0, 43.7379
29.771443409, 96.390, 1867.0, 43.2088
29.797703975, 96.390, 1921.0, 43.8292
29.823964540, 96.390, 1929.0, 43.9204
29.850225105, 96.390, 1968.0, 44.3621
29.876485671, 96.390, 1967.0, 44.3509
29.902746236, 96.390, 1949.0, 44.1475
29.929006802, 96.390, 1860.0, 43.1277
29.955267367, 96.390, 2040.0, 45.1664
29.981527932, 96.390, 1964.0, 44.3170
30.007788498, 96.390, 1943.0, 44.0795
30.034049063, 96.390, 1980.0, 44.4972
30.060309628, 96.390, 1943.0, 44.0795
30.086570194, 96.390, 2057.0, 45.3542
30.112830759, 96.390, 1888.0, 43.4511
30.139091324, 96.390, 1911.0, 43.7150
30.165351890, 96.390, 1936.0, 44.0000
30.191612455, 96.390, 1985.0, 44.5533
30.217873020, 96.390, 1904.0, 43.6348
30.244133586, 96.390, 1943.0, 44.0795
30.270394151, 96.390, 1954.0, 44.2041
30.296654717, 96.390, 1898.0, 43.5660
30.322915282, 96.390, 1891.0, 43.4856
30.349175847, 96.390, 1902.0, 43.6119
30.375436413, 96.390, 1828.0, 42.7551
30.401696978, 96.390, 1754.0, 41.8808
30.427957543, 96.390, 1866.0, 43.1972
30.454218109, 96.390, 1832.0, 42.8019
30.480478674, 96.390, 1860.0, 43.1277
30.506739239, 96.390, 1846.0, 42.9651
30.532999805, 96.390, 1756.0, 41.9047
30.559260370, 96.390, 1727.0, 41.5572
30.585520935, 96.390, 1796.0, 42.3792
30.611781501, 96.390, 1750.0, 41.8330
30.638042066, 96.390, 1832.0, 42.8019
30.664302631, 96.390, 1768.0, 42.0476
30.690563197, 96.390, 1716.0, 41.4246
30.716823762, 96.390, 1735.0, 41.6533
30.743084328, 96.390, 1685.0, 41.0488
30.769344893, 96.390, 1728.0, 41.5692
30.795605458, 96.390, 1691.0, 41.1218
30.821866024, 96.390, 1692.0, 41.1339
30.848126589, 96.390, 1713.0, 41.3884
30.874387154, 96.390, 1659.0, 40.7308
30.900647720, 96.390, 1672.0, 40.8901
30.926908285, 96.390, 1648.0, 40.5956
30.953168850, 96.390, 1701.0, 41.2432
30.979429416, 96.390, 1683.0, 41.0244
31.005689981, 96.390, 1630.0, 40.3733
31.031950546, 96.390, 1628.0, 40.3485
31.058211112, 96.390, 1639.0, 40.4846
31.084471677, 96.390, 1662.0, 40.7676
31.110732243, 96.390, 1660.0, 40.7431
31.136992808, 96.390, 1642.0, 40.5216
31.163253373, 96.390, 1584.0, 39.7995
31.189513939, 96.390, 1556.0, 39.4462
31.215774504, 96.390, 1653.0, 40.6571
31.242035069, 96.390, 1578.0, 39.7240
31.268295635, 96.390, 1590.0, 39.8748
31.294556200, 96.390, 1511.0, 38.8716
31.320816765, 96.390, 1615.0, 40.1871
31.347077331, 96.390, 1627.0, 40.3361
31.373337896, 96.390, 1529.0, 39.1024
31.399598461, 96.390, 1524.0, 39.0384
31.425859027, 96.390, 1595.0, 39.9375
31.452119592, 96.390, 1621.0, 40.2616
31.478380157, 96.390, 1556.0, 39.4462
31.504640723, 96.390, 1517.0, 38.9487
31.530901288, 96.390, 1580.0, 39.7492
31.557161854, 96.390, 1609.0, 40.1123
31.583422419, 96.390, 1541.0, 39.2556
31.609682984, 96.390, 1664.0, 40.7922
31.635943550, 96.390, 1567.0, 39.5854
31.662204115, 96.390, 1525.0, 39.0512
31.688464680, 96.390, 1618.0, 40.2244
31.714725246, 96.390, 1497.0, 38.6911
31.740985811, 96.390, 1566.0, 39.5727
31.767246376, 96.390, 1598.0, 39.9750
31.793506942, 96.390, 1544.0, 39.2938
31.819767507, 96.390, 1573.0, 39.6611
31.846028072, 96.390, 1568.0, 39.5980
31.872288638, 96.390, 1570.0, 39.6232
31.898549203, 96.390, 1580.0, 39.7492
31.924809769, 96.390, 1521.0, 39.0000
31.951070334, 96.390, 1444.0, 38.0000
31.977330899, 96.390, 1543.0, 39.2810
32.003591465, 96.390, 1536.0, 39.1918
32.029852030, 96.390, 1592.0, 39.8999
32.056112595, 96.390, 1533.0, 39.1535
32.082373161, 96.390, 1495.0, 38.6652
32.108633726, 96.390, 1586.0, 39.8246
32.134894291, 96.390, 1540.0, 39.2428
32.161154857, 96.390, 1487.0, 38.5616
32.187415422, 96.390, 1623.0, 40.2865
32.213675987, 96.390, 1513.0, 38.8973
32.239936553, 96.390, 1584.0, 39.7995
32.266197118, 96.390, 1560.0, 39.4968
32.292457683, 96.390, 1548.0, 39.3446
32.318718249, 96.390, 1497.0, 38.6911
32.344978814, 96.390, 1482.0, 38.4968
32.371239380, 96.390, 1547.0, 39.3319
32.397499945, 96.390, 1549.0, 39.3573
32.423760510, 96.390, 1507.0, 38.8201
32.450021076, 96.390, 1453.0, 38.1182
32.476281641, 96.390, 1495.0, 38.6652
32.502542206, 96.390, 1477.0, 38.4318
32.528802772, 96.390, 1554.0, 39.4208
32.555063337, 96.390, 1481.0, 38.4838
32.581323902, 96.390, 1454.0, 38.1314
32.607584468, 96.390, 1518.0, 38.9615
32.633845033, 96.390, 1515.0, 38.9230
32.660105598, 96.390, 1515.0, 38.9230
32.686366164, 96.390, 1506.0, 38.8072
32.712626729, 96.390, 1481.0, 38.4838
32.738887295, 96.390, 1477.0, 38.4318
32.765147860, 96.390, 1506.0, 38.8072
32.791408425, 96.390, 1443.0, 37.9868
32.817668991, 96.390, 1450.0, 38.0789
32.843929556, 96.390, 1501.0, 38.7427
32.870190121, 96.390, 1487.0, 38.5616
32.896450687, 96.390, 1479.0, 38.4578
32.922711252, 96.390, 1489.0, 38.5876
32.948971817, 96.390, 1484.0, 38.5227
32.975232383, 96.390, 1491.0, 38.6135
33.001492948, 96.390, 1517.0, 38.9487
33.027753513, 96.390, 1486.0, 38.5487
33.054014079, 96.390, 1485.0, 38.5357
33.080274644, 96.390, 1560.0, 39.4968
33.106535209, 96.390, 1449.0, 38.0657
33.132795775, 96.390, 1538.0, 39.2173
33.159056340, 96.390, 1485.0, 38.5357
33.185316906, 96.390, 1468.0, 38.3145
33.211577471, 96.390, 1544.0, 39.2938
33.237838036, 96.390, 1505.0, 38.7943
33.264098602, 96.390, 1447.0, 38.0395
33.290359167, 96.390, 1553.0, 39.4081
33.316619732, 96.390, 1460.0, 38.2099
33.342880298, 96.390, 1494.0, 38.6523
33.369140863, 96.390, 1451.0, 38.0920
33.395401428, 96.390, 1479.0, 38.4578
33.421661994, 96.390, 1495.0, 38.6652
33.447922559, 96.390, 1506.0, 38.8072
33.474183124, 96.390, 1590.0, 39.8748
33.500443690, 96.390, 1495.0, 38.6652
33.526704255, 96.390, 1527.0, 39.0768
33.552964820, 96.390, 1531.0, 39.1280
33.579225386, 96.390, 1539.0, 39.2301
33.605485951, 96.390, 1484.0, 38.5227
33.631746517, 96.390, 1452.0, 38.1051
33.658007082, 96.390, 1486.0, 38.5487
33.684267647, 96.390, 1500.0, 38.7298
33.710528213, 96.390, 1508.0, 38.8330
33.736788778, 96.390, 1557.0, 39.4588
33.763049343, 96.390, 1502.0, 38.7556
33.789309909, 96.390, 1571.0, 39.6358
33.815570474, 96.390, 1587.0, 39.8372
33.841831039, 96.390, 1553.0, 39.4081
33.868091605, 96.390, 1624.0, 40.2989
33.894352170, 96.390, 1530.0, 39.1152
33.920612735, 96.390, 1729.0, 41.5812
33.946873301, 96.390, 1610.0, 40.1248
33.973133866, 96.390, 1623.0, 40.2865
33.999394432, 96.390, 1580.0, 39.7492
34.025654997, 96.390, 1644.0, 40.5463
34.051915562, 96.390, 1679.0, 40.9756
34.078176128, 96.390, 1728.0, 41.5692
34.104436693, 96.390, 1728.0, 41.5692
34.130697258, 96.390, 1798.0, 42.4028
34.156957824, 96.390, 1800.0, 42.4264
34.183218389, 96.390, 1715.0, 41.4126
34.209478954, 96.390, 1912.0, 43.7264
34.235739520, 96.390, 1858.0, 43.1045
34.262000085, 96.390, 1936.0, 44.0000
34.288260650, 96.390, 1996.0, 44.6766
34.314521216, 96.390, 2032.0, 45.0777
34.340781781, 96.390, 1965.0, 44.3283
34.367042346, 96.390, 2131.0, 46.1628
34.393302912, 96.390, 2153.0, 46.4004
34.419563477, 96.390, 2107.0, 45.9021
34.445824043, 96.390, 2237.0, 47.2969
34.472084608, 96.390, 2283.0, 47.7807
34.498345173, 96.390, 2260.0, 47.5395
34.524605739, 96.390, 2297.0, 47.9270
34.550866304, 96.390, 2317.0, 48.1352
34.577126869, 96.390, 2386.0, 48.8467
34.603387435, 96.390, 2346.0, 48.4355
34.629648000, 96.390, 2391.0, 48.8979
34.655908565, 96.390, 2395.0, 48.9387
34.682169131, 96.390, 2357.0, 48.5489
34.708429696, 96.390, 2379.0, 48.7750
34.734690261, 96.390, 2370.0, 48.6826
34.760950827, 96.390, 2417.0, 49.1630
34.787211392, 96.390, 2399.0, 48.9796
34.813471958, 96.390, 2423.0, 49.2240
34.839732523, 96.390, 2370.0, 48.6826
34.865993088, 96.390, 2357.0, 48.5489
34.892253654, 96.390, 2371.0, 48.6929
34.918514219, 96.390, 2397.0, 48.9592
34.944774784, 96.390, 2413.0, 49.1223
34.971035350, 96.390, 2267.0, 47.6130
34.997295915, 96.390, 2247.0, 47.4025
35.023556480, 96.390, 2345.0, 48.4252
35.049817046, 96.390, 2134.0, 46.1952
35.076077611, 96.390, 2237.0, 47.2969
35.102338176, 96.390, 2248.0, 47.4131
35.128598742, 96.390, 2143.0, 46.2925
35.154859307, 96.390, 2159.0, 46.4650
35.181119872, 96.390, 2168.0, 46.5618
35.207380438, 96.390, 2049.0, 45.2659
35.233641003, 96.390, 2086.0, 45.6727
35.259901569, 96.390, 2117.0, 46.0109
35.286162134, 96.390, 2026.0, 45.0111
35.312422699, 96.390, 1992.0, 44.6318
35.338683265, 96.390, 1987.0, 44.5758
35.364943830, 96.390, 2023.0, 44.9778
35.391204395, 96.390, 2016.0, 44.8999
35.417464961, 96.390, 1901.0, 43.6005
35.443725526, 96.390, 2027.0, 45.0222
35.469986091, 96.390, 1969.0, 44.3734
35.496246657, 96.390, 1953.0, 44.1928
35.522507222, 96.390, 1859.0, 43.1161
35.548767787, 96.390, 1892.0, 43.4971
35.575028353, 96.390, 1851.0, 43.0232
35.601288918, 96.390, 1869.0, 43.2319
35.627549484, 96.390, 1859.0, 43.1161
35.653810049, 96.390, 1947.0, 44.1248
35.680070614, 96.390, 1846.0, 42.9651
35.706331180, 96.390, 1897.0, 43.5546
35.732591745, 96.390, 1893.0, 43.5086
35.758852310, 96.390, 1921.0, 43.8292
35.785112876, 96.390, 1832.0, 42.8019
35.811373441, 96.390, 1857.0, 43.0929
35.837634006, 96.390, 1852.0, 43.0349
35.863894572, 96.390, 1790.0, 42.3084
35.890155137, 96.390, 1876.0, 43.3128
35.916415702, 96.390, 1816.0, 42.6146
35.942676268, 96.390, 1770.0, 42.0714
35.968936833, 96.390, 1860.0, 43.1277
35.995197398, 96.390, 1832.0, 42.8019
36.021457964, 96.390, 1756.0, 41.9047
36.047718529, 96.390, 1859.0, 43.1161
36.073979095, 96.390, 1783.0, 42.2256
36.100239660, 96.390, 1823.0, 42.6966
36.126500225, 96.390, 1719.0, 41.4608
36.152760791, 96.390, 1759.0, 41.9404
36.179021356, 96.390, 1672.0, 40.8901
36.205281921, 96.390, 1798.0, 42.4028
36.231542487, 96.390, 1667.0, 40.8289
36.257803052, 96.390, 1658.0, 40.7185
36.284063617, 96.390, 1828.0, 42.7551
36.310324183, 96.390, 1692.0, 41.1339
36.336584748, 96.390, 1708.0, 41.3280
36.362845313, 96.390, 1678.0, 40.9634
36.389105879, 96.390, 1669.0, 40.8534
36.415366444, 96.390, 1793.0, 42.3438
36.441627010, 96.390, 1689.0, 41.0974
36.467887575, 96.390, 1719.0, 41.4608
36.494148140, 96.390, 1741.0, 41.7253
36.520408706, 96.390, 1748.0, 41.8091
36.546669271, 96.390, 1659.0, 40.7308
36.572929836, 96.390, 1693.0, 41.1461
36.599190402, 96.390, 1756.0, 41.9047
36.625450967, 96.390, 1767.0, 42.0357
36.651711532, 96.390, 1685.0, 41.0488
36.677972098, 96.390, 1687.0, 41.0731
36.704232663, 96.390, 1715.0, 41.4126
36.730493228, 96.390, 1719.0, 41.4608
36.756753794, 96.390, 1760.0, 41.9524
36.783014359, 96.390, 1712.0, 41.3763
36.809274924, 96.390, 1732.0, 41.6173
36.835535490, 96.390, 1729.0, 41.5812
36.861796055, 96.390, 1687.0, 41.0731
36.888056621, 96.390, 1707.0, 41.3159
36.914317186, 96.390, 1645.0, 40.5586
36.940577751, 96.390, 1715.0, 41.4126
36.966838317, 96.390, 1704.0, 41.2795
36.993098882, 96.390, 1723.0, 41.5090
37.019359447, 96.390, 1687.0, 41.0731
37.045620013, 96.390, 1596.0, 39.9500
37.071880578, 96.390, 1614.0, 40.1746
37.098141143, 96.390, 1590.0, 39.8748
37.124401709, 96.390, 1557.0, 39.4588
37.150662274, 96.390, 1601.0, 40.0125
37.176922839, 96.390, 1584.0, 39.7995
37.203183405, 96.390, 1537.0, 39.2046
37.229443970, 96.390, 1622.0, 40.2741
37.255704535, 96.390, 1566.0, 39.5727
37.281965101, 96.390, 1589.0, 39.8623
37.308225666, 96.390, 1605.0, 40.0625
37.334486232, 96.390, 1580.0, 39.7492
37.360746797, 96.390, 1538.0, 39.2173
37.387007362, 96.390, 1527.0, 39.0768
37.413267928, 96.390, 1523.0, 39.0256
37.439528493, 96.390, 1479.0, 38.4578
37.465789058, 96.390, 1572.0, 39.6485
37.492049624, 96.390, 1456.0, 38.1576
37.518310189, 96.390, 1468.0, 38.3145
37.544570754, 96.390, 1453.0, 38.1182
37.570831320, 96.390, 1425.0, 37.7492
37.597091885, 96.390, 1356.0, 36.8239
37.623352450, 96.390, 1405.0, 37.4833
37.649613016, 96.390, 1392.0, 37.3095
37.675873581, 96.390, 1442.0, 37.9737
37.702134147, 96.390, 1388.0, 37.2559
37.728394712, 96.390, 1408.0, 37.5233
37.754655277, 96.390, 1372.0, 37.0405
37.780915843, 96.390, 1415.0, 37.6165
37.807176408, 96.390, 1415.0, 37.6165
37.833436973, 96.390, 1410.0, 37.5500
37.859697539, 96.390, 1345.0, 36.6742
37.885958104, 96.390, 1403.0, 37.4566
37.912218669, 96.390, 1347.0, 36.7015
37.938479235, 96.390, 1457.0, 38.1707
37.964739800, 96.390, 1425.0, 37.7492
37.991000365, 96.390, 1440.0, 37.9473
38.017260931, 96.390, 1377.0, 37.1080
38.043521496, 96.390, 1370.0, 37.0135
38.069782061, 96.390, 1399.0, 37.4032
38.096042627, 96.390, 1433.0, 37.8550
38.122303192, 96.390, 1404.0, 37.4700
38.148563758, 96.390, 1446.0, 38.0263
38.174824323, 96.390, 1390.0, 37.2827
38.201084888, 96.390, 1325.0, 36.4005
38.227345454, 96.390, 1438.0, 37.9210
38.253606019, 96.390, 1306.0, 36.1386
38.279866584, 96.390, 1381.0, 37.1618
38.306127150, 96.390, 1344.0, 36.6606
38.332387715, 96.390, 1311.0, 36.2077
38.358648280, 96.390, 1378.0, 37.1214
38.384908846, 96.390, 1357.0, 36.8375
38.411169411, 96.390, 1401.0, 37.4299
38.437429976, 96.390, 1382.0, 37.1753
38.463690542, 96.390, 1399.0, 37.4032
38.489951107, 96.390, 1354.0, 36.7967
38.516211673, 96.390, 1352.0, 36.7696
38.542472238, 96.390, 1334.0, 36.5240
38.568732803, 96.390, 1335.0, 36.5377
38.594993369, 96.390, 1342.0, 36.6333
38.621253934, 96.390, 1328.0, 36.4417
38.647514499, 96.390, 1291.0, 35.9305
38.673775065, 96.390, 1264.0, 35.5528
38.700035630, 96.390, 1296.0, 36.0000
38.726296195, 96.390, 1378.0, 37.1214
38.752556761, 96.390, 1212.0, 34.8138
38.778817326, 96.390, 1271.0, 35.6511
38.805077891, 96.390, 1237.0, 35.1710
38.831338457, 96.390, 1317.0, 36.2905
38.857599022, 96.390, 1295.0, 35.9861
38.883859587, 96.390, 1229.0, 35.0571
38.910120153, 96.390, 1208.0, 34.7563
38.936380718, 96.390, 1215.0, 34.8569
38.962641284, 96.390, 1301.0, 36.0694
38.988901849, 96.390, 1202.0, 34.6699
39.015162414, 96.390, 1282.0, 35.8050
39.041422980, 96.390, 1304.0, 36.1109
39.067683545, 96.390, 1230.0, 35.0714
39.093944110, 96.390, 1229.0, 35.0571
39.120204676, 96.390, 1237.0, 35.1710
39.146465241, 96.390, 1242.0, 35.2420
39.172725806, 96.390, 1210.0, 34.7851
39.198986372, 96.390, 1178.0, 34.3220
39.225246937, 96.390, 1174.0, 34.2637
39.251507502, 96.390, 1196.0, 34.5832
39.277768068, 96.390, 1241.0, 35.2278
39.304028633, 96.390, 1260.0, 35.4965
39.330289199, 96.390, 1204.0, 34.6987
39.356549764, 96.390, 1211.0, 34.7994
39.382810329, 96.390, 1212.0, 34.8138
39.409070895, 96.390, 1252.0, 35.3836
39.435331460, 96.390, 1190.0, 34.4964
39.461592025, 96.390, 1232.0, 35.0999
39.487852591, 96.390, 1215.0, 34.8569
39.514113156, 96.390, 1220.0, 34.9285
39.540373721, 96.390, 1249.0, 35.3412
39.566634287, 96.390, 1247.0, 35.3129
39.592894852, 96.390, 1189.0, 34.4819
39.619155417, 96.390, 1225.0, 35.0000
39.645415983, 96.390, 1193.0, 34.5398
39.671676548, 96.390, 1229.0, 35.0571
39.697937113, 96.390, 1226.0, 35.0143
39.724197679, 96.390, 1167.0, 34.1614
39.750458244, 96.390, 1238.0, 35.1852
39.776718810, 96.390, 1203.0, 34.6843
39.802979375, 96.390, 1167.0, 34.1614
39.829239940, 96.390, 1212.0, 34.8138
39.855500506, 96.390, 1203.0, 34.6843
39.881761071, 96.390, 1169.0, 34.1906
39.908021636, 96.390, 1138.0, 33.7343
39.934282202, 96.390, 1170.0, 34.2053
39.960542767, 96.390, 1178.0, 34.3220
39.986803332, 96.390, 1137.0, 33.7194
40.013063898, 96.390, 1112.0, 33.3467
40.039324463, 96.390, 1150.0, 33.9116
40.065585028, 96.390, 1137.0, 33.7194
40.091845594, 96.390, 1104.0, 33.2265
40.118106159, 96.390, 1151.0, 33.9264
40.144366725, 96.390, 1096.0, 33.1059
40.170627290, 96.390, 1093.0, 33.0606
40.196887855, 96.390, 1138.0, 33.7343
40.223148421, 96.390, 1056.0, 32.4962
40.249408986, 96.390, 1097.0, 33.1210
40.275669551, 96.390, 1076.0, 32.8024
40.301930117, 96.390, 1112.0, 33.3467
40.328190682, 96.390, 1190.0, 34.4964
40.354451247, 96.390, 1081.0, 32.8786
40.380711813, 96.390, 1184.0, 34.4093
40.406972378, 96.390, 1178.0, 34.3220
40.433232943, 96.390, 1136.0, 33.7046
40.459493509, 96.390, 1131.0, 33.6303
40.485754074, 96.390, 1103.0, 33.2114
40.512014639, 96.390, 1196.0, 34.5832
40.538275205, 96.390, 1114.0, 33.3766
40.564535770, 96.390, 1164.0, 34.1174
40.590796336, 96.390, 1149.0, 33.8969
40.617056901, 96.390, 1180.0, 34.3511
40.643317466, 96.390, 1118.0, 33.4365
40.669578032, 96.390, 1162.0, 34.0881
40.695838597, 96.390, 1129.0, 33.6006
40.722099162, 96.390, 1154.0, 33.9706
40.748359728, 96.390, 1133.0, 33.6601
40.774620293, 96.390, 1130.0, 33.6155
40.800880858, 96.390, 1064.0, 32.6190
40.827141424, 96.390, 1079.0, 32.8481
40.853401989, 96.390, 1090.0, 33.0151
40.879662554, 96.390, 1091.0, 33.0303
40.905923120, 96.390, 1071.0, 32.7261
40.932183685, 96.390, 1063.0, 32.6037
40.958444251, 96.390, 1192.0, 34.5254
40.984704816, 96.390, 1097.0, 33.1210
41.010965381, 96.390, 1046.0, 32.3419
41.037225947, 96.390, 1087.0, 32.9697
41.063486512, 96.390, 1055.0, 32.4808
41.089747077, 96.390, 1089.0, 33.0000
41.116007643, 96.390, 1075.0, 32.7872
41.142268208, 96.390, 1011.0, 31.7962
41.168528773, 96.390, 1020.0, 31.9374
41.194789339, 96.390, 1050.0, 32.4037
41.221049904, 96.390, 1043.0, 32.2955
41.247310469, 96.390, 1050.0, 32.4037
41.273571035, 96.390, 1118.0, 33.4365
41.299831600, 96.390, 1090.0, 33.0151
41.326092165, 96.390, 1073.0, 32.7567
41.352352731, 96.390, 992.0, 31.4960
41.378613296, 96.390, 1021.0, 31.9531
41.404873862, 96.390, 1052.0, 32.4345
41.431134427, 96.390, 1045.0, 32.3265
41.457394992, 96.390, 1058.0, 32.5269
41.483655558, 96.390, 1045.0, 32.3265
41.509916123, 96.390, 1085.0, 32.9393
41.536176688, 96.390, 1080.0, 32.8634
41.562437254, 96.390, 1068.0, 32.6803
41.588697819, 96.390, 1053.0, 32.4500
41.614958384, 96.390, 1052.0, 32.4345
41.641218950, 96.390, 1041.0, 32.2645
41.667479515, 96.390, 1080.0, 32.8634
41.693740080, 96.390, 1000.0, 31.6228
41.720000646, 96.390, 1016.0, 31.8748
41.746261211, 96.390, 1075.0, 32.7872
41.772521776, 96.390, 1020.0, 31.9374
41.798782342, 96.390, 1081.0, 32.8786
41.825042907, 96.390, 1039.0, 32.2335
41.851303473, 96.390, 1016.0, 31.8748
41.877564038, 96.390, 1024.0, 32.0000
41.903824603, 96.390, 977.0, 31.2570
41.930085169, 96.390, 952.0, 30.8545
41.956345734, 96.390, 955.0, 30.9031
41.982606299, 96.390, 1021.0, 31.9531
42.008866865, 96.390, 980.0, 31.3050
42.035127430, 96.390, 980.0, 31.3050
42.061387995, 96.390, 947.0, 30.7734
42.087648561, 96.390, 1010.0, 31.7805
42.113909126, 96.390, 1015.0, 31.8591
42.140169691, 96.390, 976.0, 31.2410
42.166430257, 96.390, 965.0, 31.0644
42.192690822, 96.390, 1021.0, 31.9531
42.218951388, 96.390, 993.0, 31.5119
42.245211953, 96.390, 1001.0, 31.6386
42.271472518, 96.390, 943.0, 30.7083
42.297733084, 96.390, 971.0, 31.1609
42.323993649, 96.390, 948.0, 30.7896
42.350254214, 96.390, 943.0, 30.7083
42.376514780, 96.390, 1006.0, 31.7175
42.402775345, 96.390, 955.0, 30.9031
42.429035910, 96.390, 965.0, 31.0644
42.455296476, 96.390, 944.0, 30.7246
42.481557041, 96.390, 991.0, 31.4802
42.507817606, 96.390, 987.0, 31.4166
42.534078172, 96.390, 1032.0, 32.1248
42.560338737, 96.390, 982.0, 31.3369
42.586599302, 96.390, 928.0, 30.4631
42.612859868, 96.390, 962.0, 31.0161
42.639120433, 96.390, 955.0, 30.9031
42.665380999, 96.390, 916.0, 30.2655
42.691641564, 96.390, 965.0, 31.0644
42.717902129, 96.390, 981.0, 31.3209
42.744162695, 96.390, 946.0, 30.7571
42.770423260, 96.390, 926.0, 30.4302
42.796683825, 96.390, 980.0, 31.3050
42.822944391, 96.390, 992.0, 31.4960
42.849204956, 96.390, 914.0, 30.2324
42.875465521, 96.390, 957.0, 30.9354
42.901726087, 96.390, 914.0, 30.2324
42.927986652, 96.390, 918.0, 30.2985
42.954247217, 96.390, 932.0, 30.5287
42.980507783, 96.390, 976.0, 31.2410
43.006768348, 96.390, 977.0, 31.2570
43.033028914, 96.390, 986.0, 31.4006
43.059289479, 96.390, 972.0, 31.1769
43.085550044, 96.390, 957.0, 30.9354
43.111810610, 96.390, 949.0, 30.8058
43.138071175, 96.390, 970.0, 31.1448
43.164331740, 96.390, 997.0, 31.5753
43.190592306, 96.390, 967.0, 31.0966
43.216852871, 96.390, 943.0, 30.7083
43.243113436, 96.390, 962.0, 31.0161
43.269374002, 96.390, 962.0, 31.0161
43.295634567, 96.390, 999.0, 31.6070
43.321895132, 96.390, 944.0, 30.7246
43.348155698, 96.390, 973.0, 31.1929
43.374416263, 96.390, 971.0, 31.1609
43.400676828, 96.390, 906.0, 30.0998
43.426937394, 96.390, 995.0, 31.5436
43.453197959, 96.390, 900.0, 30.0000
43.479458525, 96.390, 943.0, 30.7083
43.505719090, 96.390, 959.0, 30.9677
43.531979655, 96.390, 989.0, 31.4484
43.558240221, 96.390, 955.0, 30.9031
43.584500786, 96.390, 961.0, 31.0000
43.610761351, 96.390, 942.0, 30.6920
43.637021917, 96.390, 982.0, 31.3369
43.663282482, 96.390, 998.0, 31.5911
43.689543047, 96.390, 957.0, 30.9354
43.715803613, 96.390, 963.0, 31.0322
43.742064178, 96.390, 952.0, 30.8545
43.768324743, 96.390, 977.0, 31.2570
43.794585309, 96.390, 980.0, 31.3050
43.820845874, 96.390, 992.0, 31.4960
43.847106440, 96.390, 986.0, 31.4006
43.873367005, 96.390, 1022.0, 31.9687
43.899627570, 96.390, 999.0, 31.6070
43.925888136, 96.390, 979.0, 31.2890
43.952148701, 96.390, 1017.0, 31.8904
43.978409266, 96.390, 990.0, 31.4643
44.004669832, 96.390, 934.0, 30.5614
44.030930397, 96.390, 926.0, 30.4302
44.057190962, 96.390, 970.0, 31.1448
44.083451528, 96.390, 968.0, 31.1127
44.109712093, 96.390, 946.0, 30.7571
44.135972658, 96.390, 983.0, 31.3528
44.162233224, 96.390, 1032.0, 32.1248
44.188493789, 96.390, 969.0, 31.1288
44.214754354, 96.390, 993.0, 31.5119
44.241014920, 96.390, 991.0, 31.4802
44.267275485, 96.390, 935.0, 30.5778
44.293536051, 96.390, 1026.0, 32.0312
44.319796616, 96.390, 995.0, 31.5436
44.346057181, 96.390, 994.0, 31.5278
44.372317747, 96.390, 981.0, 31.3209
44.398578312, 96.390, 1006.0, 31.7175
44.424838877, 96.390, 1032.0, 32.1248
44.451099443, 96.390, 1011.0, 31.7962
44.477360008, 96.390, 1039.0, 32.2335
44.503620573, 96.390, 1045.0, 32.3265
44.529881139, 96.390, 966.0, 31.0805
44.556141704, 96.390, 1041.0, 32.2645
44.582402269, 96.390, 969.0, 31.1288
44.608662835, 96.390, 1036.0, 32.1870
44.634923400, 96.390, 975.0, 31.2250
44.661183966, 96.390, 1026.0, 32.0312
44.687444531, 96.390, 1022.0, 31.9687
44.713705096, 96.390, 980.0, 31.3050
44.739965662, 96.390, 1041.0, 32.2645
44.766226227, 96.390, 1054.0, 32.4654
44.792486792, 96.390, 1075.0, 32.7872
44.818747358, 96.390, 1028.0, 32.0624
44.845007923, 96.390, 1016.0, 31.8748
44.871268488, 96.390, 1019.0, 31.9218
44.897529054, 96.390, 1118.0, 33.4365
44.923789619, 96.390, 1124.0, 33.5261
44.950050184, 96.390, 1051.0, 32.4191
44.976310750, 96.390, 1070.0, 32.7109
45.002571315, 96.390, 1074.0, 32.7719
45.028831880, 96.390, 1086.0, 32.9545
45.055092446, 96.390, 1080.0, 32.8634
45.081353011, 96.390, 1055.0, 32.4808
45.107613577, 96.390, 1083.0, 32.9090
45.133874142, 96.390, 1081.0, 32.8786
45.160134707, 96.390, 1071.0, 32.7261
45.186395273, 96.390, 1002.0, 31.6544
45.212655838, 96.390, 1009.0, 31.7648
45.238916403, 96.390, 1044.0, 32.3110
45.265176969, 96.390, 1067.0, 32.6650
45.291437534, 96.390, 1057.0, 32.5115
45.317698099, 96.390, 1056.0, 32.4962
45.343958665, 96.390, 1041.0, 32.2645
45.370219230, 96.390, 1114.0, 33.3766
45.396479795, 96.390, 1062.0, 32.5883
45.422740361, 96.390, 1099.0, 33.1512
45.449000926, 96.390, 1083.0, 32.9090
45.475261492, 96.390, 1103.0, 33.2114
45.501522057, 96.390, 1078.0, 32.8329
45.527782622, 96.390, 1105.0, 33.2415
45.554043188, 96.390, 1032.0, 32.1248
45.580303753, 96.390, 1094.0, 33.0757
45.606564318, 96.390, 1079.0, 32.8481
45.632824884, 96.390, 1100.0, 33.1662
45.659085449, 96.390, 1056.0, 32.4962
45.685346014, 96.390, 1119.0, 33.4515
45.711606580, 96.390, 1102.0, 33.1964
45.737867145, 96.390, 1177.0, 34.3074
45.764127710, 96.390, 1096.0, 33.1059
45.790388276, 96.390, 1105.0, 33.2415
45.816648841, 96.390, 1166.0, 34.1467
45.842909406, 96.390, 1161.0, 34.0735
45.869169972, 96.390, 1097.0, 33.1210
45.895430537, 96.390, 1178.0, 34.3220
45.921691103, 96.390, 1160.0, 34.0588
45.947951668, 96.390, 1158.0, 34.0294
45.974212233, 96.390, 1153.0, 33.9559
46.000472799, 96.390, 1111.0, 33.3317
46.026733364, 96.390, 1182.0, 34.3802
46.052993929, 96.390, 1154.0, 33.9706
46.079254495, 96.390, 1178.0, 34.3220
46.105515060, 96.390, 1196.0, 34.5832
46.131775625, 96.390, 1179.0, 34.3366
46.158036191, 96.390, 1229.0, 35.0571
46.184296756, 96.390, 1221.0, 34.9428
46.210557321, 96.390, 1273.0, 35.6791
46.236817887, 96.390, 1256.0, 35.4401
46.263078452, 96.390, 1225.0, 35.0000
46.289339017, 96.390, 1223.0, 34.9714
46.315599583, 96.390, 1324.0, 36.3868
46.341860148, 96.390, 1284.0, 35.8329
46.368120714, 96.390, 1205.0, 34.7131
46.394381279, 96.390, 1300.0, 36.0555
46.420641844, 96.390, 1236.0, 35.1568
46.446902410, 96.390, 1264.0, 35.5528
46.473162975, 96.390, 1283.0, 35.8190
46.499423540, 96.390, 1200.0, 34.6410
46.525684106, 96.390, 1330.0, 36.4692
46.551944671, 96.390, 1249.0, 35.3412
46.578205236, 96.390, 1277.0, 35.7351
46.604465802, 96.390, 1223.0, 34.9714
46.630726367, 96.390, 1262.0, 35.5246
46.656986932, 96.390, 1235.0, 35.1426
46.683247498, 96.390, 1165.0, 34.1321
46.709508063, 96.390, 1206.0, 34.7275
46.735768629, 96.390, 1222.0, 34.9571
46.762029194, 96.390, 1193.0, 34.5398
46.788289759, 96.390, 1224.0, 34.9857
46.814550325, 96.390, 1203.0, 34.6843
46.840810890, 96.390, 1221.0, 34.9428
46.867071455, 96.390, 1205.0, 34.7131
46.893332021, 96.390, 1153.0, 33.9559
46.919592586, 96.390, 1162.0, 34.0881
46.945853151, 96.390, 1148.0, 33.8821
46.972113717, 96.390, 1209.0, 34.7707
46.998374282, 96.390, 1240.0, 35.2136
47.024634847, 96.390, 1159.0, 34.0441
47.050895413, 96.390, 1195.0, 34.5688
47.077155978, 96.390, 1213.0, 34.8281
47.103416543, 96.390, 1131.0, 33.6303
47.129677109, 96.390, 1178.0, 34.3220
47.155937674, 96.390, 1164.0, 34.1174
47.182198240, 96.390, 1174.0, 34.2637
47.208458805, 96.390, 1127.0, 33.5708
47.234719370, 96.390, 1148.0, 33.8821
47.260979936, 96.390, 1126.0, 33.5559
47.287240501, 96.390, 1148.0, 33.8821
47.313501066, 96.390, 1150.0, 33.9116
47.339761632, 96.390, 1180.0, 34.3511
47.366022197, 96.390, 1180.0, 34.3511
47.392282762, 96.390, 1230.0, 35.0714
47.418543328, 96.390, 1108.0, 33.2866
47.444803893, 96.390, 1114.0, 33.3766
47.471064458, 96.390, 1146.0, 33.8526
47.497325024, 96.390, 1107.0, 33.2716
47.523585589, 96.390, 1110.0, 33.3167
47.549846155, 96.390, 1085.0, 32.9393
47.576106720, 96.390, 1065.0, 32.6343
47.602367285, 96.390, 1037.0, 32.2025
47.628627851, 96.390, 1057.0, 32.5115
47.654888416, 96.390, 1066.0, 32.6497
47.681148981, 96.390, 1072.0, 32.7414
47.707409547, 96.390, 1033.0, 32.1403
47.733670112, 96.390, 1038.0, 32.2180
47.759930677, 96.390, 1041.0, 32.2645
47.786191243, 96.390, 1078.0, 32.8329
47.812451808, 96.390, 1041.0, 32.2645
47.838712373, 96.390, 1003.0, 31.6702
47.864972939, 96.390, 1023.0, 31.9844
47.891233504, 96.390, 1091.0, 33.0303
47.917494069, 96.390, 1032.0, 32.1248
47.943754635, 96.390, 1039.0, 32.2335
47.970015200, 96.390, 1092.0, 33.0454
47.996275766, 96.390, 1001.0, 31.6386
48.022536331, 96.390, 1080.0, 32.8634
48.048796896, 96.390, 1070.0, 32.7109
48.075057462, 96.390, 975.0, 31.2250
48.101318027, 96.390, 1039.0, 32.2335
48.127578592, 96.390, 1003.0, 31.6702
48.153839158, 96.390, 1023.0, 31.9844
48.180099723, 96.390, 999.0, 31.6070
48.206360288, 96.390, 996.0, 31.5595
48.232620854, 96.390, 1007.0, 31.7333
48.258881419, 96.390, 955.0, 30.9031
48.285141984, 96.390, 968.0, 31.1127
48.311402550, 96.390, 959.0, 30.9677
48.337663115, 96.390, 1014.0, 31.8434
48.363923681, 96.390, 988.0, 31.4325
48.390184246, 96.390, 993.0, 31.5119
48.416444811, 96.390, 1018.0, 31.9061
48.442705377, 96.390, 959.0, 30.9677
48.468965942, 96.390, 954.0, 30.8869
48.495226507, 96.390, 951.0, 30.8383
48.521487073, 96.390, 986.0, 31.4006
48.547747638, 96.390, 946.0, 30.7571
48.574008203, 96.390, 953.0, 30.8707
48.600268769, 96.390, 892.0, 29.8664
48.626529334, 96.390, 991.0, 31.4802
48.652789899, 96.390, 995.0, 31.5436
48.679050465, 96.390, 883.0, 29.7153
48.705311030, 96.390, 877.0, 29.6142
48.731571595, 96.390, 939.0, 30.6431
48.757832161, 96.390, 958.0, 30.9516
48.784092726, 96.390, 917.0, 30.2820
48.810353292, 96.390, 917.0, 30.2820
48.836613857, 96.390, 923.0, 30.3809
48.862874422, 96.390, 896.0, 29.9333
48.889134988, 96.390, 896.0, 29.9333
48.915395553, 96.390, 924.0, 30.3974
48.941656118, 96.390, 897.0, 29.9500
48.967916684, 96.390, 889.0, 29.8161
48.994177249, 96.390, 891.0, 29.8496
49.020437814, 96.390, 890.0, 29.8329
49.046698380, 96.390, 904.0, 30.0666
49.072958945, 96.390, 857.0, 29.2746
49.099219510, 96.390, 890.0, 29.8329
49.125480076, 96.390, 859.0, 29.3087
49.151740641, 96.390, 863.0, 29.3769
49.178001207, 96.390, 881.0, 29.6816
49.204261772, 96.390, 842.0, 29.0172
49.230522337, 96.390, 906.0, 30.0998
49.256782903, 96.390, 922.0, 30.3645
49.283043468, 96.390, 871.0, 29.5127
49.309304033, 96.390, 861.0, 29.3428
49.335564599, 96.390, 856.0, 29.2575
49.361825164, 96.390, 847.0, 29.1033
49.388085729, 96.390, 845.0, 29.0689
49.414346295, 96.390, 834.0, 28.8791
49.440606860, 96.390, 839.0, 28.9655
49.466867425, 96.390, 914.0, 30.2324
49.493127991, 96.390, 794.0, 28.1780
49.519388556, 96.390, 842.0, 29.0172
49.545649121, 96.390, 789.0, 28.0891
49.571909687, 96.390, 870.0, 29.4958
49.598170252, 96.390, 838.0, 28.9482
49.624430818, 96.390, 822.0, 28.6705
49.650691383, 96.390, 844.0, 29.0517
49.676951948, 96.390, 870.0, 29.4958
49.703212514, 96.390, 837.0, 28.9310
49.729473079, 96.390, 838.0, 28.9482
49.755733644, 96.390, 805.0, 28.3725
49.781994210, 96.390, 806.0, 28.3901
49.808254775, 96.390, 795.0, 28.1957
49.834515340, 96.390, 778.0, 27.8927
49.860775906, 96.390, 813.0, 28.5132
49.887036471, 96.390, 851.0, 29.1719
49.913297036, 96.390, 796.0, 28.2135
49.939557602, 96.390, 836.0, 28.9137
49.965818167, 96.390, 826.0, 28.7402
49.992078733, 96.390, 802.0, 28.3196
50.018339298, 96.390, 871.0, 29.5127
50.044599863, 96.390, 912.0, 30.1993
50.070860429, 96.390, 847.0, 29.1033
50.097120994, 96.390, 868.0, 29.4618
50.123381559, 96.390, 847.0, 29.1033
50.149642125, 96.390, 846.0, 29.0861
50.175902690, 96.390, 806.0, 28.3901
50.202163255, 96.390, 779.0, 27.9106
50.228423821, 96.390, 786.0, 28.0357
50.254684386, 96.390, 807.0, 28.4077
50.280944951, 96.390, 809.0, 28.4429
50.307205517, 96.390, 822.0, 28.6705
50.333466082, 96.390, 857.0, 29.2746
50.359726647, 96.390, 826.0, 28.7402
50.385987213, 96.390, 831.0, 28.8271
50.412247778, 96.390, 864.0, 29.3939
50.438508344, 96.390, 877.0, 29.6142
50.464768909, 96.390, 872.0, 29.5296
50.491029474, 96.390, 842.0, 29.0172
50.517290040, 96.390, 860.0, 29.3258
50.543550605, 96.390, 858.0, 29.2916
50.569811170, 96.390, 823.0, 28.6880
50.596071736, 96.390, 844.0, 29.0517
50.622332301, 96.390, 897.0, 29.9500
50.648592866, 96.390, 851.0, 29.1719
50.674853432, 96.390, 829.0, 28.7924
50.701113997, 96.390, 895.0, 29.9166
50.727374562, 96.390, 839.0, 28.9655
50.753635128, 96.390, 835.0, 28.8964
50.779895693, 96.390, 817.0, 28.5832
50.806156258, 96.390, 802.0, 28.3196
50.832416824, 96.390, 838.0, 28.9482
50.858677389, 96.390, 828.0, 28.7750
50.884937955, 96.390, 862.0, 29.3598
50.911198520, 96.390, 788.0, 28.0713
50.937459085, 96.390, 803.0, 28.3373
50.963719651, 96.390, 769.0, 27.7308
50.989980216, 96.390, 837.0, 28.9310
51.016240781, 96.390, 857.0, 29.2746
51.042501347, 96.390, 769.0, 27.7308
51.068761912, 96.390, 755.0, 27.4773
51.095022477, 96.390, 817.0, 28.5832
51.121283043, 96.390, 844.0, 29.0517
51.147543608, 96.390, 843.0, 29.0345
51.173804173, 96.390, 829.0, 28.7924
51.200064739, 96.390, 771.0, 27.7669
51.226325304, 96.390, 854.0, 29.2233
51.252585870, 96.390, 800.0, 28.2843
51.278846435, 96.390, 810.0, 28.4605
51.305107000, 96.390, 835.0, 28.8964
51.331367566, 96.390, 797.0, 28.2312
51.357628131, 96.390, 816.0, 28.5657
51.383888696, 96.390, 786.0, 28.0357
51.410149262, 96.390, 822.0, 28.6705
51.436409827, 96.390, 827.0, 28.7576
51.462670392, 96.390, 813.0, 28.5132
51.488930958, 96.390, 810.0, 28.4605
51.515191523, 96.390, 821.0, 28.6531
51.541452088, 96.390, 822.0, 28.6705
51.567712654, 96.390, 819.0, 28.6182
51.593973219, 96.390, 817.0, 28.5832
51.620233784, 96.390, 809.0, 28.4429
51.646494350, 96.390, 814.0, 28.5307
51.672754915, 96.390, 795.0, 28.1957
51.699015481, 96.390, 761.0, 27.5862
51.725276046, 96.390, 825.0, 28.7228
51.751536611, 96.390, 807.0, 28.4077
51.777797177, 96.390, 793.0, 28.1603
51.804057742, 96.390, 828.0, 28.7750
51.830318307, 96.390, 788.0, 28.0713
51.856578873, 96.390, 859.0, 29.3087
51.882839438, 96.390, 803.0, 28.3373
51.909100003, 96.390, 821.0, 28.6531
51.935360569, 96.390, 830.0, 28.8097
51.961621134, 96.390, 857.0, 29.2746
51.987881699, 96.390, 823.0, 28.6880
52.014142265, 96.390, 767.0, 27.6948
52.040402830, 96.390, 831.0, 28.8271
52.066663396, 96.390, 789.0, 28.0891
52.092923961, 96.390, 782.0, 27.9643
52.119184526, 96.390, 846.0, 29.0861
52.145445092, 96.390, 760.0, 27.5681
52.171705657, 96.390, 750.0, 27.3861
52.197966222, 96.390, 817.0, 28.5832
52.224226788, 96.390, 830.0, 28.8097
52.250487353, 96.390, 796.0, 28.2135
52.276747918, 96.390, 864.0, 29.3939
52.303008484, 96.390, 827.0, 28.7576
52.329269049, 96.390, 838.0, 28.9482
52.355529614, 96.390, 797.0, 28.2312
52.381790180, 96.390, 769.0, 27.7308
52.408050745, 96.390, 774.0, 27.8209
52.434311310, 96.390, 861.0, 29.3428
52.460571876, 96.390, 815.0, 28.5482
52.486832441, 96.390, 867.0, 29.4449
52.513093007, 96.390, 817.0, 28.5832
52.539353572, 96.390, 864.0, 29.3939
52.565614137, 96.390, 861.0, 29.3428
52.591874703, 96.390, 882.0, 29.6985
52.618135268, 96.390, 929.0, 30.4795
52.644395833, 96.390, 837.0, 28.9310
52.670656399, 96.390, 872.0, 29.5296
52.696916964, 96.390, 833.0, 28.8617
52.723177529, 96.390, 883.0, 29.7153
52.749438095, 96.390, 829.0, 28.7924
52.775698660, 96.390, 843.0, 29.0345
52.801959225, 96.390, 828.0, 28.7750
52.828219791, 96.390, 827.0, 28.7576
52.854480356, 96.390, 865.0, 29.4109
52.880740922, 96.390, 866.0, 29.4279
52.907001487, 96.390, 891.0, 29.8496
52.933262052, 96.390, 825.0, 28.7228
52.959522618, 96.390, 826.0, 28.7402
52.985783183, 96.390, 791.0, 28.1247
53.012043748, 96.390, 896.0, 29.9333
53.038304314, 96.390, 836.0, 28.9137
53.064564879, 96.390, 887.0, 29.7825
53.090825444, 96.390, 879.0, 29.6479
53.117086010, 96.390, 858.0, 29.2916
53.143346575, 96.390, 888.0, 29.7993
53.169607140, 96.390, 849.0, 29.1376
53.195867706, 96.390, 810.0, 28.4605
53.222128271, 96.390, 877.0, 29.6142
53.248388836, 96.390, 857.0, 29.2746
53.274649402, 96.390, 854.0, 29.2233
53.300909967, 96.390, 860.0, 29.3258
53.327170533, 96.390, 883.0, 29.7153
53.353431098, 96.390, 876.0, 29.5973
53.379691663, 96.390, 906.0, 30.0998
53.405952229, 96.390, 873.0, 29.5466
53.432212794, 96.390, 873.0, 29.5466
53.458473359, 96.390, 907.0, 30.1164
53.484733925, 96.390, 887.0, 29.7825
53.510994490, 96.390, 843.0, 29.0345
53.537255055, 96.390, 892.0, 29.8664
53.563515621, 96.390, 887.0, 29.7825
53.589776186, 96.390, 832.0, 28.8444
53.616036751, 96.390, 851.0, 29.1719
53.642297317, 96.390, 864.0, 29.3939
53.668557882, 96.390, 893.0, 29.8831
53.694818448, 96.390, 899.0, 29.9833
53.721079013, 96.390, 873.0, 29.5466
53.747339578, 96.390, 839.0, 28.9655
53.773600144, 96.390, 859.0, 29.3087
53.799860709, 96.390, 890.0, 29.8329
53.826121274, 96.390, 859.0, 29.3087
53.852381840, 96.390, 908.0, 30.1330
53.878642405, 96.390, 892.0, 29.8664
53.904902970, 96.390, 882.0, 29.6985
53.931163536, 96.390, 945.0, 30.7409
53.957424101, 96.390, 866.0, 29.4279
53.983684666, 96.390, 903.0, 30.0500
54.009945232, 96.390, 830.0, 28.8097
54.036205797, 96.390, 852.0, 29.1890
54.062466362, 96.390, 845.0, 29.0689
54.088726928, 96.390, 890.0, 29.8329
54.114987493, 96.390, 848.0, 29.1204
54.141248059, 96.390, 873.0, 29.5466
54.167508624, 96.390, 842.0, 29.0172
54.193769189, 96.390, 869.0, 29.4788
54.220029755, 96.390, 813.0, 28.5132
54.246290320, 96.390, 836.0, 28.9137
54.272550885, 96.390, 800.0, 28.2843
54.298811451, 96.390, 868.0, 29.4618
54.325072016, 96.390, 777.0, 27.8747
54.351332581, 96.390, 801.0, 28.3019
54.377593147, 96.390, 836.0, 28.9137
54.403853712, 96.390, 831.0, 28.8271
54.430114277, 96.390, 833.0, 28.8617
54.456374843, 96.390, 771.0, 27.7669
54.482635408, 96.390, 815.0, 28.5482
54.508895973, 96.390, 818.0, 28.6007
54.535156539, 96.390, 766.0, 27.6767
54.561417104, 96.390, 766.0, 27.6767
54.587677670, 96.390, 823.0, 28.6880
54.613938235, 96.390, 790.0, 28.1069
54.640198800, 96.390, 749.0, 27.3679
54.666459366, 96.390, 783.0, 27.9821
54.692719931, 96.390, 820.0, 28.6356
54.718980496, 96.390, 789.0, 28.0891
54.745241062, 96.390, 749.0, 27.3679
54.771501627, 96.390, 790.0, 28.1069
54.797762192, 96.390, 763.0, 27.6225
54.824022758, 96.390, 785.0, 28.0179
54.850283323, 96.390, 796.0, 28.2135
54.876543888, 96.390, 776.0, 27.8568
54.902804454, 96.390, 744.0, 27.2764
54.929065019, 96.390, 779.0, 27.9106
54.955325585, 96.390, 773.0, 27.8029
54.981586150, 96.390, 831.0, 28.8271
55.007846715, 96.390, 748.0, 27.3496
55.034107281, 96.390, 756.0, 27.4955
55.060367846, 96.390, 758.0, 27.5318
55.086628411, 96.390, 769.0, 27.7308
55.112888977, 96.390, 769.0, 27.7308
55.139149542, 96.390, 826.0, 28.7402
55.165410107, 96.390, 769.0, 27.7308
55.191670673, 96.390, 779.0, 27.9106
55.217931238, 96.390, 778.0, 27.8927
55.244191803, 96.390, 818.0, 28.6007
55.270452369, 96.390, 818.0, 28.6007
55.296712934, 96.390, 757.0, 27.5136
55.322973499, 96.390, 805.0, 28.3725
55.349234065, 96.390, 817.0, 28.5832
55.375494630, 96.390, 794.0, 28.1780
55.401755196, 96.390, 799.0, 28.2666
55.428015761, 96.390, 787.0, 28.0535
55.454276326, 96.390, 797.0, 28.2312
55.480536892, 96.390, 754.0, 27.4591
55.506797457, 96.390, 773.0, 27.8029
55.533058022, 96.390, 768.0, 27.7128
55.559318588, 96.390, 821.0, 28.6531
55.585579153, 96.390, 762.0, 27.6043
55.611839718, 96.390, 750.0, 27.3861
55.638100284, 96.390, 781.0, 27.9464
55.664360849, 96.390, 735.0, 27.1109
55.690621414, 96.390, 761.0, 27.5862
55.716881980, 96.390, 788.0, 28.0713
55.743142545, 96.390, 792.0, 28.1425
55.769403111, 96.390, 794.0, 28.1780
55.795663676, 96.390, 814.0, 28.5307
55.821924241, 96.390, 755.0, 27.4773
55.848184807, 96.390, 827.0, 28.7576
55.874445372, 96.390, 834.0, 28.8791
55.900705937, 96.390, 743.0, 27.2580
55.926966503, 96.390, 788.0, 28.0713
55.953227068, 96.390, 786.0, 28.0357
55.979487633, 96.390, 805.0, 28.3725
56.005748199, 96.390, 702.0, 26.4953
56.032008764, 96.390, 774.0, 27.8209
56.058269329, 96.390, 776.0, 27.8568
56.084529895, 96.390, 754.0, 27.4591
56.110790460, 96.390, 722.0, 26.8701
56.137051025, 96.390, 777.0, 27.8747
56.163311591, 96.390, 798.0, 28.2489
56.189572156, 96.390, 762.0, 27.6043
56.215832722, 96.390, 773.0, 27.8029
56.242093287, 96.390, 796.0, 28.2135
56.268353852, 96.390, 801.0, 28.3019
56.294614418, 96.390, 811.0, 28.4781
56.320874983, 96.390, 774.0, 27.8209
56.347135548, 96.390, 762.0, 27.6043
56.373396114, 96.390, 750.0, 27.3861
56.399656679, 96.390, 733.0, 27.0740
56.425917244, 96.390, 826.0, 28.7402
56.452177810, 96.390, 759.0, 27.5500
56.478438375, 96.390, 709.0, 26.6271
56.504698940, 96.390, 745.0, 27.2947
56.530959506, 96.390, 738.0, 27.1662
56.557220071, 96.390, 733.0, 27.0740
56.583480637, 96.390, 759.0, 27.5500
56.609741202, 96.390, 695.0, 26.3629
56.636001767, 96.390, 724.0, 26.9072
56.662262333, 96.390, 730.0, 27.0185
56.688522898, 96.390, 775.0, 27.8388
56.714783463, 96.390, 772.0, 27.7849
56.741044029, 96.390, 719.0, 26.8142
56.767304594, 96.390, 715.0, 26.7395
56.793565159, 96.390, 750.0, 27.3861
56.819825725, 96.390, 727.0, 26.9629
56.846086290, 96.390, 723.0, 26.8887
56.872346855, 96.390, 767.0, 27.6948
56.898607421, 96.390, 780.0, 27.9285
56.924867986, 96.390, 656.0, 25.6125
56.951128551, 96.390, 719.0, 26.8142
56.977389117, 96.390, 781.0, 27.9464
57.003649682, 96.390, 716.0, 26.7582
57.029910248, 96.390, 747.0, 27.3313
57.056170813, 96.390, 720.0, 26.8328
57.082431378, 96.390, 722.0, 26.8701
57.108691944, 96.390, 659.0, 25.6710
57.134952509, 96.390, 687.0, 26.2107
57.161213074, 96.390, 700.0, 26.4575
57.187473640, 96.390, 689.0, 26.2488
57.213734205, 96.390, 755.0, 27.4773
57.239994770, 96.390, 713.0, 26.7021
57.266255336, 96.390, 715.0, 26.7395
57.292515901, 96.390, 722.0, 26.8701
57.318776466, 96.390, 731.0, 27.0370
57.345037032, 96.390, 730.0, 27.0185
57.371297597, 96.390, 738.0, 27.1662
57.397558163, 96.390, 713.0, 26.7021
57.423818728, 96.390, 719.0, 26.8142
57.450079293, 96.390, 692.0, 26.3059
57.476339859, 96.390, 702.0, 26.4953
57.502600424, 96.390, 734.0, 27.0924
57.528860989, 96.390, 732.0, 27.0555
57.555121555, 96.390, 702.0, 26.4953
57.581382120, 96.390, 746.0, 27.3130
57.607642685, 96.390, 746.0, 27.3130
57.633903251, 96.390, 698.0, 26.4197
57.660163816, 96.390, 687.0, 26.2107
57.686424381, 96.390, 721.0, 26.8514
57.712684947, 96.390, 726.0, 26.9444
57.738945512, 96.390, 714.0, 26.7208
57.765206077, 96.390, 721.0, 26.8514
57.791466643, 96.390, 750.0, 27.3861
57.817727208, 96.390, 724.0, 26.9072
57.843987774, 96.390, 669.0, 25.8650
57.870248339, 96.390, 760.0, 27.5681
57.896508904, 96.390, 705.0, 26.5518
57.922769470, 96.390, 742.0, 27.2397
57.949030035, 96.390, 721.0, 26.8514
57.975290600, 96.390, 730.0, 27.0185
58.001551166, 96.390, 706.0, 26.5707
58.027811731, 96.390, 749.0, 27.3679
58.054072296, 96.390, 763.0, 27.6225
58.080332862, 96.390, 728.0, 26.9815
58.106593427, 96.390, 727.0, 26.9629
58.132853992, 96.390, 767.0, 27.6948
58.159114558, 96.390, 732.0, 27.0555
58.185375123, 96.390, 747.0, 27.3313
58.211635689, 96.390, 782.0, 27.9643
58.237896254, 96.390, 705.0, 26.5518
58.264156819, 96.390, 747.0, 27.3313
58.290417385, 96.390, 729.0, 27.0000
58.316677950, 96.390, 705.0, 26.5518
58.342938515, 96.390, 750.0, 27.3861
58.369199081, 96.390, 703.0, 26.5141
58.395459646, 96.390, 728.0, 26.9815
58.421720211, 96.390, 738.0, 27.1662
58.447980777, 96.390, 723.0, 26.8887
58.474241342, 96.390, 738.0, 27.1662
58.500501907, 96.390, 757.0, 27.5136
58.526762473, 96.390, 686.0, 26.1916
58.553023038, 96.390, 726.0, 26.9444
58.579283603, 96.390, 752.0, 27.4226
58.605544169, 96.390, 682.0, 26.1151
58.631804734, 96.390, 703.0, 26.5141
58.658065300, 96.390, 689.0, 26.2488
58.684325865, 96.390, 740.0, 27.2029
58.710586430, 96.390, 747.0, 27.3313
58.736846996, 96.390, 684.0, 26.1534
58.763107561, 96.390, 727.0, 26.9629
58.789368126, 96.390, 707.0, 26.5895
58.815628692, 96.390, 734.0, 27.0924
58.841889257, 96.390, 742.0, 27.2397
58.868149822, 96.390, 745.0, 27.2947
58.894410388, 96.390, 733.0, 27.0740
58.920670953, 96.390, 735.0, 27.1109
58.946931518, 96.390, 720.0, 26.8328
58.973192084, 96.390, 719.0, 26.8142
58.999452649, 96.390, 740.0, 27.2029
59.025713214, 96.390, 736.0, 27.1293
59.051973780, 96.390, 706.0, 26.5707
59.078234345, 96.390, 724.0, 26.9072
59.104494911, 96.390, 704.0, 26.5330
59.130755476, 96.390, 766.0, 27.6767
59.157016041, 96.390, 685.0, 26.1725
59.183276607, 96.390, 718.0, 26.7955
59.209537172, 96.390, 770.0, 27.7489
59.235797737, 96.390, 692.0, 26.3059
59.262058303, 96.390, 713.0, 26.7021
59.288318868, 96.390, 802.0, 28.3196
59.314579433, 96.390, 691.0, 26.2869
59.340839999, 96.390, 706.0, 26.5707
59.367100564, 96.390, 696.0, 26.3818
59.393361129, 96.390, 728.0, 26.9815
59.419621695, 96.390, 738.0, 27.1662
59.445882260, 96.390, 699.0, 26.4386
59.472142826, 96.390, 733.0, 27.0740
59.498403391, 96.390, 690.0, 26.2679
59.524663956, 96.390, 761.0, 27.5862
59.550924522, 96.390, 738.0, 27.1662
59.577185087, 96.390, 689.0, 26.2488
59.603445652, 96.390, 728.0, 26.9815
59.629706218, 96.390, 735.0, 27.1109
59.655966783, 96.390, 742.0, 27.2397
59.682227348, 96.390, 710.0, 26.6458
59.708487914, 96.390, 694.0, 26.3439
59.734748479, 96.390, 733.0, 27.0740
59.761009044, 96.390, 751.0, 27.4044
59.787269610, 96.390, 788.0, 28.0713
59.813530175, 96.390, 690.0, 26.2679
59.839790740, 96.390, 717.0, 26.7769
59.866051306, 96.390, 754.0, 27.4591
59.892311871, 96.390, 759.0, 27.5500
59.918572437, 96.390, 742.0, 27.2397
59.944833002, 96.390, 711.0, 26.6646
59.971093567, 96.390, 764.0, 27.6405
59.997354133, 96.390, 691.0, 26.2869
60.023614698, 96.390, 754.0, 27.4591
60.049875263, 96.390, 743.0, 27.2580
60.076135829, 96.390, 783.0, 27.9821
60.102396394, 96.390, 773.0, 27.8029
60.128656959, 96.390, 755.0, 27.4773
60.154917525, 96.390, 737.0, 27.1477
60.181178090, 96.390, 703.0, 26.5141
60.207438655, 96.390, 763.0, 27.6225
60.233699221, 96.390, 844.0, 29.0517
60.259959786, 96.390, 788.0, 28.0713
60.286220352, 96.390, 789.0, 28.0891
60.312480917, 96.390, 812.0, 28.4956
60.338741482, 96.390, 792.0, 28.1425
60.365002048, 96.390, 782.0, 27.9643
60.391262613, 96.390, 775.0, 27.8388
60.417523178, 96.390, 787.0, 28.0535
60.443783744, 96.390, 879.0, 29.6479
60.470044309, 96.390, 826.0, 28.7402
60.496304874, 96.390, 831.0, 28.8271
60.522565440, 96.390, 808.0, 28.4253
60.548826005, 96.390, 829.0, 28.7924
60.575086570, 96.390, 826.0, 28.7402
60.601347136, 96.390, 866.0, 29.4279
60.627607701, 96.390, 897.0, 29.9500
60.653868266, 96.390, 861.0, 29.3428
60.680128832, 96.390, 854.0, 29.2233
60.706389397, 96.390, 894.0, 29.8998
60.732649963, 96.390, 927.0, 30.4467
60.758910528, 96.390, 863.0, 29.3769
60.785171093, 96.390, 868.0, 29.4618
60.811431659, 96.390, 905.0, 30.0832
60.837692224, 96.390, 871.0, 29.5127
60.863952789, 96.390, 897.0, 29.9500
60.890213355, 96.390, 917.0, 30.2820
60.916473920, 96.390, 916.0, 30.2655
60.942734485, 96.390, 936.0, 30.5941
60.968995051, 96.390, 904.0, 30.0666
60.995255616, 96.390, 935.0, 30.5778
61.021516181, 96.390, 923.0, 30.3809
61.047776747, 96.390, 934.0, 30.5614
61.074037312, 96.390, 877.0, 29.6142
61.100297878, 96.390, 931.0, 30.5123
61.126558443, 96.390, 921.0, 30.3480
61.152819008, 96.390, 906.0, 30.0998
61.179079574, 96.390, 929.0, 30.4795
61.205340139, 96.390, 887.0, 29.7825
61.231600704, 96.390, 950.0, 30.8221
61.257861270, 96.390, 922.0, 30.3645
61.284121835, 96.390, 935.0, 30.5778
61.310382400, 96.390, 945.0, 30.7409
61.336642966, 96.390, 927.0, 30.4467
61.362903531, 96.390, 928.0, 30.4631
61.389164096, 96.390, 936.0, 30.5941
61.415424662, 96.390, 929.0, 30.4795
61.441685227, 96.390, 866.0, 29.4279
61.467945792, 96.390, 915.0, 30.2490
61.494206358, 96.390, 889.0, 29.8161
61.520466923, 96.390, 912.0, 30.1993
61.546727489, 96.390, 929.0, 30.4795
61.572988054, 96.390, 913.0, 30.2159
61.599248619, 96.390, 976.0, 31.2410
61.625509185, 96.390, 935.0, 30.5778
61.651769750, 96.390, 918.0, 30.2985
61.678030315, 96.390, 878.0, 29.6311
61.704290881, 96.390, 964.0, 31.0483
61.730551446, 96.390, 865.0, 29.4109
61.756812011, 96.390, 900.0, 30.0000
61.783072577, 96.390, 868.0, 29.4618
61.809333142, 96.390, 890.0, 29.8329
61.835593707, 96.390, 872.0, 29.5296
61.861854273, 96.390, 913.0, 30.2159
61.888114838, 96.390, 881.0, 29.6816
61.914375404, 96.390, 885.0, 29.7489
61.940635969, 96.390, 890.0, 29.8329
61.966896534, 96.390, 870.0, 29.4958
61.993157100, 96.390, 839.0, 28.9655
62.019417665, 96.390, 901.0, 30.0167
62.045678230, 96.390, 890.0, 29.8329
62.071938796, 96.390, 880.0, 29.6648
62.098199361, 96.390, 904.0, 30.0666
62.124459926, 96.390, 860.0, 29.3258
62.150720492, 96.390, 849.0, 29.1376
62.176981057, 96.390, 892.0, 29.8664
62.203241622, 96.390, 899.0, 29.9833
62.229502188, 96.390, 895.0, 29.9166
62.255762753, 96.390, 869.0, 29.4788
62.282023318, 96.390, 841.0, 29.0000
62.308283884, 96.390, 867.0, 29.4449
62.334544449, 96.390, 811.0, 28.4781
62.360805015, 96.390, 849.0, 29.1376
62.387065580, 96.390, 865.0, 29.4109
62.413326145, 96.390, 849.0, 29.1376
62.439586711, 96.390, 841.0, 29.0000
62.465847276, 96.390, 873.0, 29.5466
62.492107841, 96.390, 877.0, 29.6142
62.518368407, 96.390, 775.0, 27.8388
62.544628972, 96.390, 829.0, 28.7924
62.570889537, 96.390, 874.0, 29.5635
62.597150103, 96.390, 838.0, 28.9482
62.623410668, 96.390, 801.0, 28.3019
62.649671233, 96.390, 806.0, 28.3901
62.675931799, 96.390, 861.0, 29.3428
62.702192364, 96.390, 804.0, 28.3549
62.728452930, 96.390, 860.0, 29.3258
62.754713495, 96.390, 769.0, 27.7308
62.780974060, 96.390, 826.0, 28.7402
62.807234626, 96.390, 791.0, 28.1247
62.833495191, 96.390, 820.0, 28.6356
62.859755756, 96.390, 753.0, 27.4408
62.886016322, 96.390, 795.0, 28.1957
62.912276887, 96.390, 789.0, 28.0891
62.938537452, 96.390, 801.0, 28.3019
62.964798018, 96.390, 778.0, 27.8927
62.991058583, 96.390, 760.0, 27.5681
63.017319148, 96.390, 762.0, 27.6043
63.043579714, 96.390, 788.0, 28.0713
63.069840279, 96.390, 770.0, 27.7489
63.096100844, 96.390, 797.0, 28.2312
63.122361410, 96.390, 770.0, 27.7489
63.148621975, 96.390, 739.0, 27.1846
63.174882541, 96.390, 739.0, 27.1846
63.201143106, 96.390, 725.0, 26.9258
63.227403671, 96.390, 760.0, 27.5681
63.253664237, 96.390, 778.0, 27.8927
63.279924802, 96.390, 790.0, 28.1069
63.306185367, 96.390, 747.0, 27.3313
63.332445933, 96.390, 709.0, 26.6271
63.358706498, 96.390, 731.0, 27.0370
63.384967063, 96.390, 722.0, 26.8701
63.411227629, 96.390, 764.0, 27.6405
63.437488194, 96.390, 712.0, 26.6833
63.463748759, 96.390, 753.0, 27.4408
63.490009325, 96.390, 736.0, 27.1293
63.516269890, 96.390, 756.0, 27.4955
63.542530455, 96.390, 755.0, 27.4773
63.568791021, 96.390, 732.0, 27.0555
63.595051586, 96.390, 703.0, 26.5141
63.621312152, 96.390, 698.0, 26.4197
63.647572717, 96.390, 739.0, 27.1846
63.673833282, 96.390, 724.0, 26.9072
63.700093848, 96.390, 728.0, 26.9815
63.726354413, 96.390, 735.0, 27.1109
63.752614978, 96.390, 685.0, 26.1725
63.778875544, 96.390, 730.0, 27.0185
63.805136109, 96.390, 750.0, 27.3861
63.831396674, 96.390, 752.0, 27.4226
63.857657240, 96.390, 772.0, 27.7849
63.883917805, 96.390, 739.0, 27.1846
63.910178370, 96.390, 753.0, 27.4408
63.936438936, 96.390, 694.0, 26.3439
63.962699501, 96.390, 717.0, 26.7769
63.988960067, 96.390, 698.0, 26.4197
64.015220632, 96.390, 716.0, 26.7582
64.041481197, 96.390, 764.0, 27.6405
64.067741763, 96.390, 702.0, 26.4953
64.094002328, 96.390, 700.0, 26.4575
64.120262893, 96.390, 677.0, 26.0192
64.146523459, 96.390, 680.0, 26.0768
64.172784024, 96.390, 693.0, 26.3249
64.199044589, 96.390, 714.0, 26.7208
64.225305155, 96.390, 690.0, 26.2679
64.251565720, 96.390, 760.0, 27.5681
64.277826285, 96.390, 662.0, 25.7294
64.304086851, 96.390, 721.0, 26.8514
64.330347416, 96.390, 682.0, 26.1151
64.356607981, 96.390, 681.0, 26.0960
64.382868547, 96.390, 673.0, 25.9422
64.409129112, 96.390, 655.0, 25.5930
64.435389678, 96.390, 681.0, 26.0960
64.461650243, 96.390, 710.0, 26.6458
64.487910808, 96.390, 694.0, 26.3439
64.514171374, 96.390, 724.0, 26.9072
64.540431939, 96.390, 630.0, 25.0998
64.566692504, 96.390, 660.0, 25.6905
64.592953070, 96.390, 664.0, 25.7682
64.619213635, 96.390, 664.0, 25.7682
64.645474200, 96.390, 693.0, 26.3249
64.671734766, 96.390, 703.0, 26.5141
64.697995331, 96.390, 654.0, 25.5734
64.724255896, 96.390, 717.0, 26.7769
64.750516462, 96.390, 739.0, 27.1846
64.776777027, 96.390, 700.0, 26.4575
64.803037593, 96.390, 724.0, 26.9072
64.829298158, 96.390, 688.0, 26.2298
64.855558723, 96.390, 715.0, 26.7395
64.881819289, 96.390, 705.0, 26.5518
64.908079854, 96.390, 644.0, 25.3772
64.934340419, 96.390, 682.0, 26.1151
64.960600985, 96.390, 724.0, 26.9072
64.986861550, 96.390, 669.0, 25.8650
