[Measurement conditions]
Sample identification,136_MgCorner11May22_Act16Nov22_B1_0714M_NaOH_LS0173
Comment - 1,"Configuration=Stage for Flat Samples/Holders, Owner=User-1, Creation date=7/1/2020 9:53:24 AM"
Comment - 2,"Goniometer=Theta/Theta; Minimum step size 2Theta:0.0001; Minimum step size Omega:0.0001"
Comment - 3,"Sample stage=Stage for flat samples/holders"
Comment - 4,"Diffractometer system=EMPYREAN"
Comment - 5,"Measurement program=C:\Users\tmr79\OneDrive - The Pennsylvania State University\Documents\NEUP\XRD\Cement\Zerobackground scan.xrdmp, Identifier={98A3B11C-88F9-4AA6-982C-73314A311EF5}"
Anode material,Cu
K-Alpha1 wavelength,1.5405980
K-Alpha2 wavelength,1.5444260
Ratio K-Alpha2/K-Alpha1,0.500
Divergence slit,Fixed,0.25
Monochromator used,NO
Generator voltage, 45
Tube current, 40
File date and time,03/Apr/2023 10:02
Unit cell,
h k l, 0 0 0
Scan axis,Gonio
Scan range,4.994599997,64.999991833
Scan step size,0.0262606
No. of points, 2285
Scan type,CONTINUOUS
Time per step,96.390
[Scan points]
Angle, TimePerStep, Intensity, ESD
5.007730280, 96.390, 4719.0, 68.6950
5.033990845, 96.390, 4679.0, 68.4032
5.060251411, 96.390, 4580.0, 67.6757
5.086511976, 96.390, 4631.0, 68.0515
5.112772541, 96.390, 4627.0, 68.0221
5.139033107, 96.390, 4650.0, 68.1909
5.165293672, 96.390, 4636.0, 68.0882
5.191554237, 96.390, 4488.0, 66.9925
5.217814803, 96.390, 4624.0, 68.0000
5.244075368, 96.390, 4527.0, 67.2830
5.270335934, 96.390, 4497.0, 67.0597
5.296596499, 96.390, 4648.0, 68.1762
5.322857064, 96.390, 4449.0, 66.7008
5.349117630, 96.390, 4584.0, 67.7052
5.375378195, 96.390, 4659.0, 68.2569
5.401638760, 96.390, 4453.0, 66.7308
5.427899326, 96.390, 4491.0, 67.0149
5.454159891, 96.390, 4647.0, 68.1689
5.480420456, 96.390, 4462.0, 66.7982
5.506681022, 96.390, 4341.0, 65.8863
5.532941587, 96.390, 4413.0, 66.4304
5.559202152, 96.390, 4540.0, 67.3795
5.585462718, 96.390, 4356.0, 66.0000
5.611723283, 96.390, 4557.0, 67.5056
5.637983849, 96.390, 4448.0, 66.6933
5.664244414, 96.390, 4360.0, 66.0303
5.690504979, 96.390, 4489.0, 67.0000
5.716765545, 96.390, 4394.0, 66.2873
5.743026110, 96.390, 4380.0, 66.1816
5.769286675, 96.390, 4391.0, 66.2646
5.795547241, 96.390, 4404.0, 66.3626
5.821807806, 96.390, 4503.0, 67.1044
5.848068371, 96.390, 4358.0, 66.0151
5.874328937, 96.390, 4374.0, 66.1362
5.900589502, 96.390, 4398.0, 66.3174
5.926850067, 96.390, 4481.0, 66.9403
5.953110633, 96.390, 4291.0, 65.5057
5.979371198, 96.390, 4382.0, 66.1967
6.005631763, 96.390, 4242.0, 65.1306
6.031892329, 96.390, 4464.0, 66.8132
6.058152894, 96.390, 4358.0, 66.0151
6.084413460, 96.390, 4356.0, 66.0000
6.110674025, 96.390, 4245.0, 65.1537
6.136934590, 96.390, 4349.0, 65.9469
6.163195156, 96.390, 4258.0, 65.2534
6.189455721, 96.390, 4359.0, 66.0227
6.215716286, 96.390, 4482.0, 66.9477
6.241976852, 96.390, 4206.0, 64.8537
6.268237417, 96.390, 4402.0, 66.3476
6.294497982, 96.390, 4358.0, 66.0151
6.320758548, 96.390, 4310.0, 65.6506
6.347019113, 96.390, 4282.0, 65.4370
6.373279678, 96.390, 4153.0, 64.4438
6.399540244, 96.390, 4191.0, 64.7379
6.425800809, 96.390, 4121.0, 64.1950
6.452061375, 96.390, 4187.0, 64.7070
6.478321940, 96.390, 4358.0, 66.0151
6.504582505, 96.390, 4323.0, 65.7495
6.530843071, 96.390, 4306.0, 65.6201
6.557103636, 96.390, 4206.0, 64.8537
6.583364201, 96.390, 4277.0, 65.3988
6.609624767, 96.390, 4106.0, 64.0781
6.635885332, 96.390, 4181.0, 64.6607
6.662145897, 96.390, 4165.0, 64.5368
6.688406463, 96.390, 4276.0, 65.3911
6.714667028, 96.390, 4296.0, 65.5439
6.740927593, 96.390, 4233.0, 65.0615
6.767188159, 96.390, 4211.0, 64.8922
6.793448724, 96.390, 4147.0, 64.3972
6.819709289, 96.390, 4106.0, 64.0781
6.845969855, 96.390, 4133.0, 64.2884
6.872230420, 96.390, 4110.0, 64.1093
6.898490986, 96.390, 4131.0, 64.2729
6.924751551, 96.390, 4107.0, 64.0859
6.951012116, 96.390, 4032.0, 63.4980
6.977272682, 96.390, 4076.0, 63.8436
7.003533247, 96.390, 4063.0, 63.7417
7.029793812, 96.390, 4000.0, 63.2456
7.056054378, 96.390, 4089.0, 63.9453
7.082314943, 96.390, 4105.0, 64.0703
7.108575508, 96.390, 4091.0, 63.9609
7.134836074, 96.390, 4071.0, 63.8044
7.161096639, 96.390, 4160.0, 64.4981
7.187357204, 96.390, 3994.0, 63.1981
7.213617770, 96.390, 3989.0, 63.1585
7.239878335, 96.390, 4028.0, 63.4665
7.266138900, 96.390, 4048.0, 63.6239
7.292399466, 96.390, 3945.0, 62.8092
7.318660031, 96.390, 4017.0, 63.3798
7.344920597, 96.390, 3989.0, 63.1585
7.371181162, 96.390, 3933.0, 62.7136
7.397441727, 96.390, 3972.0, 63.0238
7.423702293, 96.390, 3960.0, 62.9285
7.449962858, 96.390, 4083.0, 63.8984
7.476223423, 96.390, 3951.0, 62.8570
7.502483989, 96.390, 3871.0, 62.2174
7.528744554, 96.390, 3960.0, 62.9285
7.555005119, 96.390, 3918.0, 62.5939
7.581265685, 96.390, 3932.0, 62.7057
7.607526250, 96.390, 4011.0, 63.3325
7.633786815, 96.390, 4047.0, 63.6160
7.660047381, 96.390, 3859.0, 62.1208
7.686307946, 96.390, 3830.0, 61.8870
7.712568512, 96.390, 3816.0, 61.7738
7.738829077, 96.390, 3923.0, 62.6339
7.765089642, 96.390, 3845.0, 62.0081
7.791350208, 96.390, 3886.0, 62.3378
7.817610773, 96.390, 3949.0, 62.8411
7.843871338, 96.390, 3758.0, 61.3025
7.870131904, 96.390, 3812.0, 61.7414
7.896392469, 96.390, 3843.0, 61.9919
7.922653034, 96.390, 3919.0, 62.6019
7.948913600, 96.390, 3830.0, 61.8870
7.975174165, 96.390, 3792.0, 61.5792
8.001434730, 96.390, 3995.0, 63.2060
8.027695296, 96.390, 3802.0, 61.6604
8.053955861, 96.390, 3832.0, 61.9032
8.080216426, 96.390, 3820.0, 61.8061
8.106476992, 96.390, 3762.0, 61.3351
8.132737557, 96.390, 3906.0, 62.4980
8.158998123, 96.390, 3895.0, 62.4099
8.185258688, 96.390, 3892.0, 62.3859
8.211519253, 96.390, 3950.0, 62.8490
8.237779819, 96.390, 3769.0, 61.3922
8.264040384, 96.390, 3941.0, 62.7774
8.290300949, 96.390, 3861.0, 62.1369
8.316561515, 96.390, 4097.0, 64.0078
8.342822080, 96.390, 4006.0, 63.2930
8.369082645, 96.390, 4178.0, 64.6375
8.395343211, 96.390, 4293.0, 65.5210
8.421603776, 96.390, 4386.0, 66.2269
8.447864341, 96.390, 4604.0, 67.8528
8.474124907, 96.390, 4644.0, 68.1469
8.500385472, 96.390, 4400.0, 66.3325
8.526646038, 96.390, 4061.0, 63.7260
8.552906603, 96.390, 3878.0, 62.2736
8.579167168, 96.390, 3797.0, 61.6198
8.605427734, 96.390, 3706.0, 60.8769
8.631688299, 96.390, 3762.0, 61.3351
8.657948864, 96.390, 3673.0, 60.6053
8.684209430, 96.390, 3661.0, 60.5062
8.710469995, 96.390, 3570.0, 59.7495
8.736730560, 96.390, 3610.0, 60.0833
8.762991126, 96.390, 3658.0, 60.4814
8.789251691, 96.390, 3608.0, 60.0666
8.815512256, 96.390, 3509.0, 59.2368
8.841772822, 96.390, 3782.0, 61.4980
8.868033387, 96.390, 3712.0, 60.9262
8.894293952, 96.390, 3594.0, 59.9500
8.920554518, 96.390, 3615.0, 60.1249
8.946815083, 96.390, 3557.0, 59.6406
8.973075649, 96.390, 3622.0, 60.1831
8.999336214, 96.390, 3647.0, 60.3904
9.025596779, 96.390, 3543.0, 59.5231
9.051857345, 96.390, 3612.0, 60.0999
9.078117910, 96.390, 3512.0, 59.2621
9.104378475, 96.390, 3624.0, 60.1997
9.130639041, 96.390, 3573.0, 59.7746
9.156899606, 96.390, 3594.0, 59.9500
9.183160171, 96.390, 3579.0, 59.8247
9.209420737, 96.390, 3641.0, 60.3407
9.235681302, 96.390, 3569.0, 59.7411
9.261941867, 96.390, 3653.0, 60.4401
9.288202433, 96.390, 3665.0, 60.5392
9.314462998, 96.390, 3648.0, 60.3987
9.340723564, 96.390, 3569.0, 59.7411
9.366984129, 96.390, 3556.0, 59.6322
9.393244694, 96.390, 3668.0, 60.5640
9.419505260, 96.390, 3661.0, 60.5062
9.445765825, 96.390, 3630.0, 60.2495
9.472026390, 96.390, 3691.0, 60.7536
9.498286956, 96.390, 3674.0, 60.6135
9.524547521, 96.390, 3689.0, 60.7371
9.550808086, 96.390, 3593.0, 59.9416
9.577068652, 96.390, 3638.0, 60.3158
9.603329217, 96.390, 3591.0, 59.9250
9.629589782, 96.390, 3605.0, 60.0417
9.655850348, 96.390, 3731.0, 61.0819
9.682110913, 96.390, 3660.0, 60.4979
9.708371478, 96.390, 3825.0, 61.8466
9.734632044, 96.390, 3765.0, 61.3596
9.760892609, 96.390, 3747.0, 61.2127
9.787153175, 96.390, 3749.0, 61.2291
9.813413740, 96.390, 3807.0, 61.7009
9.839674305, 96.390, 3739.0, 61.1474
9.865934871, 96.390, 3785.0, 61.5224
9.892195436, 96.390, 3719.0, 60.9836
9.918456001, 96.390, 3761.0, 61.3270
9.944716567, 96.390, 3834.0, 61.9193
9.970977132, 96.390, 3734.0, 61.1065
9.997237697, 96.390, 3908.0, 62.5140
10.023498263, 96.390, 3907.0, 62.5060
10.049758828, 96.390, 3948.0, 62.8331
10.076019393, 96.390, 3917.0, 62.5859
10.102279959, 96.390, 3959.0, 62.9206
10.128540524, 96.390, 3999.0, 63.2376
10.154801090, 96.390, 4020.0, 63.4035
10.181061655, 96.390, 3892.0, 62.3859
10.207322220, 96.390, 3967.0, 62.9841
10.233582786, 96.390, 3917.0, 62.5859
10.259843351, 96.390, 4099.0, 64.0234
10.286103916, 96.390, 4065.0, 63.7574
10.312364482, 96.390, 4071.0, 63.8044
10.338625047, 96.390, 4082.0, 63.8905
10.364885612, 96.390, 4070.0, 63.7966
10.391146178, 96.390, 4112.0, 64.1249
10.417406743, 96.390, 4074.0, 63.8279
10.443667308, 96.390, 4187.0, 64.7070
10.469927874, 96.390, 4234.0, 65.0692
10.496188439, 96.390, 4210.0, 64.8845
10.522449004, 96.390, 4235.0, 65.0769
10.548709570, 96.390, 4044.0, 63.5925
10.574970135, 96.390, 4178.0, 64.6375
10.601230701, 96.390, 4279.0, 65.4141
10.627491266, 96.390, 4133.0, 64.2884
10.653751831, 96.390, 4229.0, 65.0308
10.680012397, 96.390, 4440.0, 66.6333
10.706272962, 96.390, 4222.0, 64.9769
10.732533527, 96.390, 4196.0, 64.7765
10.758794093, 96.390, 4502.0, 67.0969
10.785054658, 96.390, 4578.0, 67.6609
10.811315223, 96.390, 4498.0, 67.0671
10.837575789, 96.390, 4577.0, 67.6535
10.863836354, 96.390, 4617.0, 67.9485
10.890096919, 96.390, 4589.0, 67.7422
10.916357485, 96.390, 4663.0, 68.2862
10.942618050, 96.390, 4548.0, 67.4389
10.968878616, 96.390, 4627.0, 68.0221
10.995139181, 96.390, 4577.0, 67.6535
11.021399746, 96.390, 4511.0, 67.1640
11.047660312, 96.390, 4561.0, 67.5352
11.073920877, 96.390, 4547.0, 67.4314
11.100181442, 96.390, 4547.0, 67.4314
11.126442008, 96.390, 4469.0, 66.8506
11.152702573, 96.390, 4676.0, 68.3813
11.178963138, 96.390, 4563.0, 67.5500
11.205223704, 96.390, 4550.0, 67.4537
11.231484269, 96.390, 4607.0, 67.8749
11.257744834, 96.390, 4500.0, 67.0820
11.284005400, 96.390, 4599.0, 67.8159
11.310265965, 96.390, 4381.0, 66.1891
11.336526530, 96.390, 4439.0, 66.6258
11.362787096, 96.390, 4596.0, 67.7938
11.389047661, 96.390, 4534.0, 67.3350
11.415308227, 96.390, 4394.0, 66.2873
11.441568792, 96.390, 4334.0, 65.8331
11.467829357, 96.390, 4206.0, 64.8537
11.494089923, 96.390, 4183.0, 64.6761
11.520350488, 96.390, 4234.0, 65.0692
11.546611053, 96.390, 4058.0, 63.7024
11.572871619, 96.390, 4048.0, 63.6239
11.599132184, 96.390, 3928.0, 62.6738
11.625392749, 96.390, 3866.0, 62.1772
11.651653315, 96.390, 3919.0, 62.6019
11.677913880, 96.390, 3903.0, 62.4740
11.704174445, 96.390, 3756.0, 61.2862
11.730435011, 96.390, 3659.0, 60.4897
11.756695576, 96.390, 3709.0, 60.9016
11.782956141, 96.390, 3630.0, 60.2495
11.809216707, 96.390, 3566.0, 59.7160
11.835477272, 96.390, 3475.0, 58.9491
11.861737838, 96.390, 3509.0, 59.2368
11.887998403, 96.390, 3378.0, 58.1206
11.914258968, 96.390, 3303.0, 57.4717
11.940519534, 96.390, 3421.0, 58.4893
11.966780099, 96.390, 3274.0, 57.2189
11.993040664, 96.390, 3191.0, 56.4889
12.019301230, 96.390, 3283.0, 57.2975
12.045561795, 96.390, 3180.0, 56.3915
12.071822360, 96.390, 3146.0, 56.0892
12.098082926, 96.390, 3097.0, 55.6507
12.124343491, 96.390, 2989.0, 54.6717
12.150604056, 96.390, 3020.0, 54.9545
12.176864622, 96.390, 3115.0, 55.8122
12.203125187, 96.390, 3014.0, 54.8999
12.229385753, 96.390, 3011.0, 54.8726
12.255646318, 96.390, 2949.0, 54.3047
12.281906883, 96.390, 2974.0, 54.5344
12.308167449, 96.390, 2935.0, 54.1756
12.334428014, 96.390, 2763.0, 52.5642
12.360688579, 96.390, 2852.0, 53.4041
12.386949145, 96.390, 2914.0, 53.9815
12.413209710, 96.390, 2747.0, 52.4118
12.439470275, 96.390, 2701.0, 51.9711
12.465730841, 96.390, 2735.0, 52.2972
12.491991406, 96.390, 2708.0, 52.0384
12.518251971, 96.390, 2649.0, 51.4684
12.544512537, 96.390, 2668.0, 51.6527
12.570773102, 96.390, 2596.0, 50.9510
12.597033667, 96.390, 2656.0, 51.5364
12.623294233, 96.390, 2540.0, 50.3984
12.649554798, 96.390, 2697.0, 51.9326
12.675815364, 96.390, 2655.0, 51.5267
12.702075929, 96.390, 2556.0, 50.5569
12.728336494, 96.390, 2489.0, 49.8899
12.754597060, 96.390, 2426.0, 49.2544
12.780857625, 96.390, 2520.0, 50.1996
12.807118190, 96.390, 2469.0, 49.6890
12.833378756, 96.390, 2487.0, 49.8698
12.859639321, 96.390, 2358.0, 48.5592
12.885899886, 96.390, 2469.0, 49.6890
12.912160452, 96.390, 2432.0, 49.3153
12.938421017, 96.390, 2415.0, 49.1426
12.964681582, 96.390, 2275.0, 47.6970
12.990942148, 96.390, 2394.0, 48.9285
13.017202713, 96.390, 2282.0, 47.7703
13.043463279, 96.390, 2317.0, 48.1352
13.069723844, 96.390, 2342.0, 48.3942
13.095984409, 96.390, 2311.0, 48.0729
13.122244975, 96.390, 2411.0, 49.1019
13.148505540, 96.390, 2263.0, 47.5710
13.174766105, 96.390, 2226.0, 47.1805
13.201026671, 96.390, 2282.0, 47.7703
13.227287236, 96.390, 2231.0, 47.2335
13.253547801, 96.390, 2234.0, 47.2652
13.279808367, 96.390, 2243.0, 47.3603
13.306068932, 96.390, 2129.0, 46.1411
13.332329497, 96.390, 2210.0, 47.0106
13.358590063, 96.390, 2180.0, 46.6905
13.384850628, 96.390, 2136.0, 46.2169
13.411111193, 96.390, 2187.0, 46.7654
13.437371759, 96.390, 2245.0, 47.3814
13.463632324, 96.390, 2140.0, 46.2601
13.489892890, 96.390, 2114.0, 45.9783
13.516153455, 96.390, 2163.0, 46.5081
13.542414020, 96.390, 2122.0, 46.0652
13.568674586, 96.390, 2109.0, 45.9239
13.594935151, 96.390, 2079.0, 45.5961
13.621195716, 96.390, 2133.0, 46.1844
13.647456282, 96.390, 2151.0, 46.3789
13.673716847, 96.390, 2144.0, 46.3033
13.699977412, 96.390, 2157.0, 46.4435
13.726237978, 96.390, 2178.0, 46.6690
13.752498543, 96.390, 2171.0, 46.5940
13.778759108, 96.390, 2191.0, 46.8081
13.805019674, 96.390, 2232.0, 47.2440
13.831280239, 96.390, 2064.0, 45.4313
13.857540805, 96.390, 1973.0, 44.4185
13.883801370, 96.390, 1976.0, 44.4522
13.910061935, 96.390, 1911.0, 43.7150
13.936322501, 96.390, 1981.0, 44.5084
13.962583066, 96.390, 2003.0, 44.7549
13.988843631, 96.390, 2004.0, 44.7661
14.015104197, 96.390, 2005.0, 44.7772
14.041364762, 96.390, 1987.0, 44.5758
14.067625327, 96.390, 2105.0, 45.8803
14.093885893, 96.390, 1981.0, 44.5084
14.120146458, 96.390, 1968.0, 44.3621
14.146407023, 96.390, 2066.0, 45.4533
14.172667589, 96.390, 1942.0, 44.0681
14.198928154, 96.390, 2171.0, 46.5940
14.225188719, 96.390, 2134.0, 46.1952
14.251449285, 96.390, 2068.0, 45.4753
14.277709850, 96.390, 2073.0, 45.5302
14.303970416, 96.390, 2008.0, 44.8107
14.330230981, 96.390, 1989.0, 44.5982
14.356491546, 96.390, 1884.0, 43.4051
14.382752112, 96.390, 1918.0, 43.7950
14.409012677, 96.390, 1975.0, 44.4410
14.435273242, 96.390, 1884.0, 43.4051
14.461533808, 96.390, 1891.0, 43.4856
14.487794373, 96.390, 1816.0, 42.6146
14.514054938, 96.390, 1867.0, 43.2088
14.540315504, 96.390, 1829.0, 42.7668
14.566576069, 96.390, 1853.0, 43.0465
14.592836634, 96.390, 1829.0, 42.7668
14.619097200, 96.390, 1904.0, 43.6348
14.645357765, 96.390, 1877.0, 43.3244
14.671618331, 96.390, 1898.0, 43.5660
14.697878896, 96.390, 1794.0, 42.3556
14.724139461, 96.390, 1790.0, 42.3084
14.750400027, 96.390, 1777.0, 42.1545
14.776660592, 96.390, 1821.0, 42.6732
14.802921157, 96.390, 1892.0, 43.4971
14.829181723, 96.390, 1819.0, 42.6497
14.855442288, 96.390, 1780.0, 42.1900
14.881702853, 96.390, 1840.0, 42.8952
14.907963419, 96.390, 1833.0, 42.8135
14.934223984, 96.390, 1738.0, 41.6893
14.960484549, 96.390, 1767.0, 42.0357
14.986745115, 96.390, 1776.0, 42.1426
15.013005680, 96.390, 1851.0, 43.0232
15.039266245, 96.390, 1808.0, 42.5206
15.065526811, 96.390, 1853.0, 43.0465
15.091787376, 96.390, 1814.0, 42.5911
15.118047942, 96.390, 1832.0, 42.8019
15.144308507, 96.390, 1875.0, 43.3013
15.170569072, 96.390, 1917.0, 43.7836
15.196829638, 96.390, 1935.0, 43.9886
15.223090203, 96.390, 1875.0, 43.3013
15.249350768, 96.390, 1901.0, 43.6005
15.275611334, 96.390, 1809.0, 42.5323
15.301871899, 96.390, 1864.0, 43.1741
15.328132464, 96.390, 1896.0, 43.5431
15.354393030, 96.390, 1818.0, 42.6380
15.380653595, 96.390, 1855.0, 43.0697
15.406914160, 96.390, 1811.0, 42.5558
15.433174726, 96.390, 1757.0, 41.9166
15.459435291, 96.390, 1749.0, 41.8210
15.485695857, 96.390, 1768.0, 42.0476
15.511956422, 96.390, 1661.0, 40.7554
15.538216987, 96.390, 1687.0, 41.0731
15.564477553, 96.390, 1791.0, 42.3202
15.590738118, 96.390, 1654.0, 40.6694
15.616998683, 96.390, 1716.0, 41.4246
15.643259249, 96.390, 1705.0, 41.2916
15.669519814, 96.390, 1647.0, 40.5832
15.695780379, 96.390, 1679.0, 40.9756
15.722040945, 96.390, 1712.0, 41.3763
15.748301510, 96.390, 1608.0, 40.0999
15.774562075, 96.390, 1666.0, 40.8167
15.800822641, 96.390, 1678.0, 40.9634
15.827083206, 96.390, 1721.0, 41.4849
15.853343771, 96.390, 1702.0, 41.2553
15.879604337, 96.390, 1669.0, 40.8534
15.905864902, 96.390, 1708.0, 41.3280
15.932125468, 96.390, 1593.0, 39.9124
15.958386033, 96.390, 1666.0, 40.8167
15.984646598, 96.390, 1658.0, 40.7185
16.010907164, 96.390, 1669.0, 40.8534
16.037167729, 96.390, 1656.0, 40.6940
16.063428294, 96.390, 1605.0, 40.0625
16.089688860, 96.390, 1599.0, 39.9875
16.115949425, 96.390, 1710.0, 41.3521
16.142209990, 96.390, 1660.0, 40.7431
16.168470556, 96.390, 1635.0, 40.4351
16.194731121, 96.390, 1648.0, 40.5956
16.220991686, 96.390, 1577.0, 39.7115
16.247252252, 96.390, 1609.0, 40.1123
16.273512817, 96.390, 1692.0, 41.1339
16.299773382, 96.390, 1633.0, 40.4104
16.326033948, 96.390, 1680.0, 40.9878
16.352294513, 96.390, 1656.0, 40.6940
16.378555079, 96.390, 1744.0, 41.7612
16.404815644, 96.390, 1645.0, 40.5586
16.431076209, 96.390, 1609.0, 40.1123
16.457336775, 96.390, 1521.0, 39.0000
16.483597340, 96.390, 1663.0, 40.7799
16.509857905, 96.390, 1642.0, 40.5216
16.536118471, 96.390, 1670.0, 40.8656
16.562379036, 96.390, 1562.0, 39.5221
16.588639601, 96.390, 1624.0, 40.2989
16.614900167, 96.390, 1700.0, 41.2311
16.641160732, 96.390, 1679.0, 40.9756
16.667421297, 96.390, 1626.0, 40.3237
16.693681863, 96.390, 1603.0, 40.0375
16.719942428, 96.390, 1645.0, 40.5586
16.746202994, 96.390, 1702.0, 41.2553
16.772463559, 96.390, 1598.0, 39.9750
16.798724124, 96.390, 1618.0, 40.2244
16.824984690, 96.390, 1608.0, 40.0999
16.851245255, 96.390, 1658.0, 40.7185
16.877505820, 96.390, 1657.0, 40.7063
16.903766386, 96.390, 1598.0, 39.9750
16.930026951, 96.390, 1695.0, 41.1704
16.956287516, 96.390, 1713.0, 41.3884
16.982548082, 96.390, 1651.0, 40.6325
17.008808647, 96.390, 1669.0, 40.8534
17.035069212, 96.390, 1615.0, 40.1871
17.061329778, 96.390, 1574.0, 39.6737
17.087590343, 96.390, 1609.0, 40.1123
17.113850908, 96.390, 1634.0, 40.4228
17.140111474, 96.390, 1639.0, 40.4846
17.166372039, 96.390, 1608.0, 40.0999
17.192632605, 96.390, 1630.0, 40.3733
17.218893170, 96.390, 1619.0, 40.2368
17.245153735, 96.390, 1601.0, 40.0125
17.271414301, 96.390, 1721.0, 41.4849
17.297674866, 96.390, 1676.0, 40.9390
17.323935431, 96.390, 1669.0, 40.8534
17.350195997, 96.390, 1726.0, 41.5452
17.376456562, 96.390, 1727.0, 41.5572
17.402717127, 96.390, 1662.0, 40.7676
17.428977693, 96.390, 1665.0, 40.8044
17.455238258, 96.390, 1535.0, 39.1791
17.481498823, 96.390, 1707.0, 41.3159
17.507759389, 96.390, 1621.0, 40.2616
17.534019954, 96.390, 1614.0, 40.1746
17.560280520, 96.390, 1585.0, 39.8121
17.586541085, 96.390, 1708.0, 41.3280
17.612801650, 96.390, 1590.0, 39.8748
17.639062216, 96.390, 1582.0, 39.7744
17.665322781, 96.390, 1600.0, 40.0000
17.691583346, 96.390, 1528.0, 39.0896
17.717843912, 96.390, 1557.0, 39.4588
17.744104477, 96.390, 1598.0, 39.9750
17.770365042, 96.390, 1596.0, 39.9500
17.796625608, 96.390, 1643.0, 40.5339
17.822886173, 96.390, 1612.0, 40.1497
17.849146738, 96.390, 1673.0, 40.9023
17.875407304, 96.390, 1615.0, 40.1871
17.901667869, 96.390, 1661.0, 40.7554
17.927928434, 96.390, 1605.0, 40.0625
17.954189000, 96.390, 1580.0, 39.7492
17.980449565, 96.390, 1648.0, 40.5956
18.006710131, 96.390, 1661.0, 40.7554
18.032970696, 96.390, 1601.0, 40.0125
18.059231261, 96.390, 1697.0, 41.1947
18.085491827, 96.390, 1595.0, 39.9375
18.111752392, 96.390, 1631.0, 40.3856
18.138012957, 96.390, 1651.0, 40.6325
18.164273523, 96.390, 1633.0, 40.4104
18.190534088, 96.390, 1665.0, 40.8044
18.216794653, 96.390, 1752.0, 41.8569
18.243055219, 96.390, 1714.0, 41.4005
18.269315784, 96.390, 1772.0, 42.0951
18.295576349, 96.390, 1783.0, 42.2256
18.321836915, 96.390, 1714.0, 41.4005
18.348097480, 96.390, 1705.0, 41.2916
18.374358046, 96.390, 1741.0, 41.7253
18.400618611, 96.390, 1662.0, 40.7676
18.426879176, 96.390, 1734.0, 41.6413
18.453139742, 96.390, 1782.0, 42.2137
18.479400307, 96.390, 1604.0, 40.0500
18.505660872, 96.390, 1589.0, 39.8623
18.531921438, 96.390, 1664.0, 40.7922
18.558182003, 96.390, 1650.0, 40.6202
18.584442568, 96.390, 1642.0, 40.5216
18.610703134, 96.390, 1652.0, 40.6448
18.636963699, 96.390, 1628.0, 40.3485
18.663224264, 96.390, 1652.0, 40.6448
18.689484830, 96.390, 1601.0, 40.0125
18.715745395, 96.390, 1634.0, 40.4228
18.742005960, 96.390, 1561.0, 39.5095
18.768266526, 96.390, 1625.0, 40.3113
18.794527091, 96.390, 1611.0, 40.1373
18.820787657, 96.390, 1605.0, 40.0625
18.847048222, 96.390, 1689.0, 41.0974
18.873308787, 96.390, 1605.0, 40.0625
18.899569353, 96.390, 1588.0, 39.8497
18.925829918, 96.390, 1703.0, 41.2674
18.952090483, 96.390, 1684.0, 41.0366
18.978351049, 96.390, 1671.0, 40.8779
19.004611614, 96.390, 1672.0, 40.8901
19.030872179, 96.390, 1758.0, 41.9285
19.057132745, 96.390, 1712.0, 41.3763
19.083393310, 96.390, 1665.0, 40.8044
19.109653875, 96.390, 1698.0, 41.2068
19.135914441, 96.390, 1746.0, 41.7852
19.162175006, 96.390, 1702.0, 41.2553
19.188435572, 96.390, 1695.0, 41.1704
19.214696137, 96.390, 1688.0, 41.0853
19.240956702, 96.390, 1661.0, 40.7554
19.267217268, 96.390, 1740.0, 41.7133
19.293477833, 96.390, 1732.0, 41.6173
19.319738398, 96.390, 1699.0, 41.2189
19.345998964, 96.390, 1658.0, 40.7185
19.372259529, 96.390, 1720.0, 41.4729
19.398520094, 96.390, 1778.0, 42.1663
19.424780660, 96.390, 1756.0, 41.9047
19.451041225, 96.390, 1758.0, 41.9285
19.477301790, 96.390, 1858.0, 43.1045
19.503562356, 96.390, 1820.0, 42.6615
19.529822921, 96.390, 1812.0, 42.5676
19.556083486, 96.390, 1744.0, 41.7612
19.582344052, 96.390, 1758.0, 41.9285
19.608604617, 96.390, 1789.0, 42.2966
19.634865183, 96.390, 1813.0, 42.5793
19.661125748, 96.390, 1794.0, 42.3556
19.687386313, 96.390, 1764.0, 42.0000
19.713646879, 96.390, 1899.0, 43.5775
19.739907444, 96.390, 2034.0, 45.0999
19.766168009, 96.390, 2038.0, 45.1442
19.792428575, 96.390, 2033.0, 45.0888
19.818689140, 96.390, 1816.0, 42.6146
19.844949705, 96.390, 1890.0, 43.4741
19.871210271, 96.390, 1845.0, 42.9535
19.897470836, 96.390, 1817.0, 42.6263
19.923731401, 96.390, 1860.0, 43.1277
19.949991967, 96.390, 2084.0, 45.6508
19.976252532, 96.390, 2246.0, 47.3920
20.002513098, 96.390, 2178.0, 46.6690
20.028773663, 96.390, 1947.0, 44.1248
20.055034228, 96.390, 1896.0, 43.5431
20.081294794, 96.390, 1789.0, 42.2966
20.107555359, 96.390, 1780.0, 42.1900
20.133815924, 96.390, 1807.0, 42.5088
20.160076490, 96.390, 1819.0, 42.6497
20.186337055, 96.390, 1709.0, 41.3401
20.212597620, 96.390, 1812.0, 42.5676
20.238858186, 96.390, 1776.0, 42.1426
20.265118751, 96.390, 1868.0, 43.2204
20.291379316, 96.390, 1882.0, 43.3820
20.317639882, 96.390, 1846.0, 42.9651
20.343900447, 96.390, 2001.0, 44.7325
20.370161012, 96.390, 2083.0, 45.6399
20.396421578, 96.390, 2219.0, 47.1063
20.422682143, 96.390, 2096.0, 45.7821
20.448942709, 96.390, 1965.0, 44.3283
20.475203274, 96.390, 2075.0, 45.5522
20.501463839, 96.390, 2039.0, 45.1553
20.527724405, 96.390, 2098.0, 45.8039
20.553984970, 96.390, 2218.0, 47.0956
20.580245535, 96.390, 2158.0, 46.4543
20.606506101, 96.390, 2015.0, 44.8888
20.632766666, 96.390, 1995.0, 44.6654
20.659027231, 96.390, 1833.0, 42.8135
20.685287797, 96.390, 1909.0, 43.6921
20.711548362, 96.390, 1894.0, 43.5201
20.737808927, 96.390, 1826.0, 42.7317
20.764069493, 96.390, 1875.0, 43.3013
20.790330058, 96.390, 1831.0, 42.7902
20.816590623, 96.390, 1926.0, 43.8862
20.842851189, 96.390, 1893.0, 43.5086
20.869111754, 96.390, 1832.0, 42.8019
20.895372320, 96.390, 1893.0, 43.5086
20.921632885, 96.390, 1840.0, 42.8952
20.947893450, 96.390, 1881.0, 43.3705
20.974154016, 96.390, 1929.0, 43.9204
21.000414581, 96.390, 1924.0, 43.8634
21.026675146, 96.390, 1931.0, 43.9431
21.052935712, 96.390, 1885.0, 43.4166
21.079196277, 96.390, 1920.0, 43.8178
21.105456842, 96.390, 1936.0, 44.0000
21.131717408, 96.390, 2021.0, 44.9555
21.157977973, 96.390, 1961.0, 44.2832
21.184238538, 96.390, 1908.0, 43.6807
21.210499104, 96.390, 1956.0, 44.2267
21.236759669, 96.390, 1956.0, 44.2267
21.263020235, 96.390, 1970.0, 44.3847
21.289280800, 96.390, 2024.0, 44.9889
21.315541365, 96.390, 1995.0, 44.6654
21.341801931, 96.390, 1911.0, 43.7150
21.368062496, 96.390, 1936.0, 44.0000
21.394323061, 96.390, 1993.0, 44.6430
21.420583627, 96.390, 1988.0, 44.5870
21.446844192, 96.390, 2070.0, 45.4973
21.473104757, 96.390, 1989.0, 44.5982
21.499365323, 96.390, 1992.0, 44.6318
21.525625888, 96.390, 2073.0, 45.5302
21.551886453, 96.390, 2091.0, 45.7275
21.578147019, 96.390, 2076.0, 45.5631
21.604407584, 96.390, 2126.0, 46.1086
21.630668149, 96.390, 2107.0, 45.9021
21.656928715, 96.390, 1940.0, 44.0454
21.683189280, 96.390, 2092.0, 45.7384
21.709449846, 96.390, 2101.0, 45.8367
21.735710411, 96.390, 2034.0, 45.0999
21.761970976, 96.390, 2053.0, 45.3100
21.788231542, 96.390, 2090.0, 45.7165
21.814492107, 96.390, 2166.0, 46.5403
21.840752672, 96.390, 2110.0, 45.9347
21.867013238, 96.390, 2196.0, 46.8615
21.893273803, 96.390, 2160.0, 46.4758
21.919534368, 96.390, 2158.0, 46.4543
21.945794934, 96.390, 2136.0, 46.2169
21.972055499, 96.390, 2134.0, 46.1952
21.998316064, 96.390, 2231.0, 47.2335
22.024576630, 96.390, 2229.0, 47.2123
22.050837195, 96.390, 2233.0, 47.2546
22.077097761, 96.390, 2295.0, 47.9062
22.103358326, 96.390, 2339.0, 48.3632
22.129618891, 96.390, 2143.0, 46.2925
22.155879457, 96.390, 2268.0, 47.6235
22.182140022, 96.390, 2200.0, 46.9042
22.208400587, 96.390, 2206.0, 46.9681
22.234661153, 96.390, 2288.0, 47.8330
22.260921718, 96.390, 2215.0, 47.0638
22.287182283, 96.390, 2206.0, 46.9681
22.313442849, 96.390, 2307.0, 48.0312
22.339703414, 96.390, 2337.0, 48.3425
22.365963979, 96.390, 2216.0, 47.0744
22.392224545, 96.390, 2236.0, 47.2864
22.418485110, 96.390, 2374.0, 48.7237
22.444745675, 96.390, 2379.0, 48.7750
22.471006241, 96.390, 2383.0, 48.8160
22.497266806, 96.390, 2230.0, 47.2229
22.523527372, 96.390, 2296.0, 47.9166
22.549787937, 96.390, 2354.0, 48.5180
22.576048502, 96.390, 2353.0, 48.5077
22.602309068, 96.390, 2357.0, 48.5489
22.628569633, 96.390, 2312.0, 48.0833
22.654830198, 96.390, 2394.0, 48.9285
22.681090764, 96.390, 2331.0, 48.2804
22.707351329, 96.390, 2399.0, 48.9796
22.733611894, 96.390, 2367.0, 48.6518
22.759872460, 96.390, 2443.0, 49.4267
22.786133025, 96.390, 2379.0, 48.7750
22.812393590, 96.390, 2418.0, 49.1732
22.838654156, 96.390, 2375.0, 48.7340
22.864914721, 96.390, 2401.0, 49.0000
22.891175287, 96.390, 2403.0, 49.0204
22.917435852, 96.390, 2291.0, 47.8644
22.943696417, 96.390, 2311.0, 48.0729
22.969956983, 96.390, 2350.0, 48.4768
22.996217548, 96.390, 2295.0, 47.9062
23.022478113, 96.390, 2287.0, 47.8226
23.048738679, 96.390, 2229.0, 47.2123
23.074999244, 96.390, 2228.0, 47.2017
23.101259809, 96.390, 2177.0, 46.6583
23.127520375, 96.390, 2168.0, 46.5618
23.153780940, 96.390, 2207.0, 46.9787
23.180041505, 96.390, 2199.0, 46.8935
23.206302071, 96.390, 2145.0, 46.3141
23.232562636, 96.390, 2148.0, 46.3465
23.258823201, 96.390, 2096.0, 45.7821
23.285083767, 96.390, 2113.0, 45.9674
23.311344332, 96.390, 2026.0, 45.0111
23.337604898, 96.390, 2053.0, 45.3100
23.363865463, 96.390, 1954.0, 44.2041
23.390126028, 96.390, 2068.0, 45.4753
23.416386594, 96.390, 2079.0, 45.5961
23.442647159, 96.390, 2175.0, 46.6369
23.468907724, 96.390, 2127.0, 46.1194
23.495168290, 96.390, 2168.0, 46.5618
23.521428855, 96.390, 2248.0, 47.4131
23.547689420, 96.390, 1975.0, 44.4410
23.573949986, 96.390, 2040.0, 45.1664
23.600210551, 96.390, 1978.0, 44.4747
23.626471116, 96.390, 1908.0, 43.6807
23.652731682, 96.390, 1975.0, 44.4410
23.678992247, 96.390, 1923.0, 43.8520
23.705252813, 96.390, 1929.0, 43.9204
23.731513378, 96.390, 1869.0, 43.2319
23.757773943, 96.390, 1943.0, 44.0795
23.784034509, 96.390, 1961.0, 44.2832
23.810295074, 96.390, 1854.0, 43.0581
23.836555639, 96.390, 1867.0, 43.2088
23.862816205, 96.390, 1858.0, 43.1045
23.889076770, 96.390, 1902.0, 43.6119
23.915337335, 96.390, 1847.0, 42.9767
23.941597901, 96.390, 1873.0, 43.2782
23.967858466, 96.390, 1860.0, 43.1277
23.994119031, 96.390, 1914.0, 43.7493
24.020379597, 96.390, 1844.0, 42.9418
24.046640162, 96.390, 1808.0, 42.5206
24.072900727, 96.390, 1846.0, 42.9651
24.099161293, 96.390, 1797.0, 42.3910
24.125421858, 96.390, 1824.0, 42.7083
24.151682424, 96.390, 1804.0, 42.4735
24.177942989, 96.390, 1908.0, 43.6807
24.204203554, 96.390, 1892.0, 43.4971
24.230464120, 96.390, 1915.0, 43.7607
24.256724685, 96.390, 1819.0, 42.6497
24.282985250, 96.390, 1842.0, 42.9185
24.309245816, 96.390, 1862.0, 43.1509
24.335506381, 96.390, 1778.0, 42.1663
24.361766946, 96.390, 1827.0, 42.7434
24.388027512, 96.390, 1690.0, 41.1096
24.414288077, 96.390, 1768.0, 42.0476
24.440548642, 96.390, 1658.0, 40.7185
24.466809208, 96.390, 1782.0, 42.2137
24.493069773, 96.390, 1736.0, 41.6653
24.519330338, 96.390, 1789.0, 42.2966
24.545590904, 96.390, 1691.0, 41.1218
24.571851469, 96.390, 1684.0, 41.0366
24.598112035, 96.390, 1670.0, 40.8656
24.624372600, 96.390, 1587.0, 39.8372
24.650633165, 96.390, 1630.0, 40.3733
24.676893731, 96.390, 1615.0, 40.1871
24.703154296, 96.390, 1666.0, 40.8167
24.729414861, 96.390, 1660.0, 40.7431
24.755675427, 96.390, 1712.0, 41.3763
24.781935992, 96.390, 1638.0, 40.4722
24.808196557, 96.390, 1710.0, 41.3521
24.834457123, 96.390, 1687.0, 41.0731
24.860717688, 96.390, 1643.0, 40.5339
24.886978253, 96.390, 1613.0, 40.1622
24.913238819, 96.390, 1609.0, 40.1123
24.939499384, 96.390, 1585.0, 39.8121
24.965759950, 96.390, 1663.0, 40.7799
24.992020515, 96.390, 1596.0, 39.9500
25.018281080, 96.390, 1553.0, 39.4081
25.044541646, 96.390, 1591.0, 39.8873
25.070802211, 96.390, 1570.0, 39.6232
25.097062776, 96.390, 1529.0, 39.1024
25.123323342, 96.390, 1565.0, 39.5601
25.149583907, 96.390, 1614.0, 40.1746
25.175844472, 96.390, 1660.0, 40.7431
25.202105038, 96.390, 1628.0, 40.3485
25.228365603, 96.390, 1597.0, 39.9625
25.254626168, 96.390, 1592.0, 39.8999
25.280886734, 96.390, 1618.0, 40.2244
25.307147299, 96.390, 1529.0, 39.1024
25.333407864, 96.390, 1643.0, 40.5339
25.359668430, 96.390, 1755.0, 41.8927
25.385928995, 96.390, 1675.0, 40.9268
25.412189561, 96.390, 1628.0, 40.3485
25.438450126, 96.390, 1596.0, 39.9500
25.464710691, 96.390, 1577.0, 39.7115
25.490971257, 96.390, 1558.0, 39.4715
25.517231822, 96.390, 1488.0, 38.5746
25.543492387, 96.390, 1637.0, 40.4599
25.569752953, 96.390, 1638.0, 40.4722
25.596013518, 96.390, 1664.0, 40.7922
25.622274083, 96.390, 1548.0, 39.3446
25.648534649, 96.390, 1639.0, 40.4846
25.674795214, 96.390, 1526.0, 39.0640
25.701055779, 96.390, 1553.0, 39.4081
25.727316345, 96.390, 1577.0, 39.7115
25.753576910, 96.390, 1471.0, 38.3536
25.779837476, 96.390, 1594.0, 39.9249
25.806098041, 96.390, 1573.0, 39.6611
25.832358606, 96.390, 1612.0, 40.1497
25.858619172, 96.390, 1513.0, 38.8973
25.884879737, 96.390, 1609.0, 40.1123
25.911140302, 96.390, 1619.0, 40.2368
25.937400868, 96.390, 1573.0, 39.6611
25.963661433, 96.390, 1544.0, 39.2938
25.989921998, 96.390, 1485.0, 38.5357
26.016182564, 96.390, 1529.0, 39.1024
26.042443129, 96.390, 1492.0, 38.6264
26.068703694, 96.390, 1539.0, 39.2301
26.094964260, 96.390, 1563.0, 39.5348
26.121224825, 96.390, 1525.0, 39.0512
26.147485390, 96.390, 1503.0, 38.7685
26.173745956, 96.390, 1545.0, 39.3065
26.200006521, 96.390, 1567.0, 39.5854
26.226267087, 96.390, 1432.0, 37.8418
26.252527652, 96.390, 1420.0, 37.6829
26.278788217, 96.390, 1557.0, 39.4588
26.305048783, 96.390, 1464.0, 38.2623
26.331309348, 96.390, 1548.0, 39.3446
26.357569913, 96.390, 1483.0, 38.5097
26.383830479, 96.390, 1512.0, 38.8844
26.410091044, 96.390, 1575.0, 39.6863
26.436351609, 96.390, 1572.0, 39.6485
26.462612175, 96.390, 1478.0, 38.4448
26.488872740, 96.390, 1482.0, 38.4968
26.515133305, 96.390, 1517.0, 38.9487
26.541393871, 96.390, 1546.0, 39.3192
26.567654436, 96.390, 1508.0, 38.8330
26.593915002, 96.390, 1450.0, 38.0789
26.620175567, 96.390, 1502.0, 38.7556
26.646436132, 96.390, 1543.0, 39.2810
26.672696698, 96.390, 1493.0, 38.6394
26.698957263, 96.390, 1535.0, 39.1791
26.725217828, 96.390, 1541.0, 39.2556
26.751478394, 96.390, 1546.0, 39.3192
26.777738959, 96.390, 1512.0, 38.8844
26.803999524, 96.390, 1571.0, 39.6358
26.830260090, 96.390, 1536.0, 39.1918
26.856520655, 96.390, 1541.0, 39.2556
26.882781220, 96.390, 1563.0, 39.5348
26.909041786, 96.390, 1527.0, 39.0768
26.935302351, 96.390, 1461.0, 38.2230
26.961562916, 96.390, 1536.0, 39.1918
26.987823482, 96.390, 1599.0, 39.9875
27.014084047, 96.390, 1489.0, 38.5876
27.040344613, 96.390, 1507.0, 38.8201
27.066605178, 96.390, 1528.0, 39.0896
27.092865743, 96.390, 1465.0, 38.2753
27.119126309, 96.390, 1455.0, 38.1445
27.145386874, 96.390, 1496.0, 38.6782
27.171647439, 96.390, 1473.0, 38.3797
27.197908005, 96.390, 1472.0, 38.3667
27.224168570, 96.390, 1459.0, 38.1969
27.250429135, 96.390, 1513.0, 38.8973
27.276689701, 96.390, 1522.0, 39.0128
27.302950266, 96.390, 1624.0, 40.2989
27.329210831, 96.390, 1527.0, 39.0768
27.355471397, 96.390, 1581.0, 39.7618
27.381731962, 96.390, 1538.0, 39.2173
27.407992528, 96.390, 1518.0, 38.9615
27.434253093, 96.390, 1464.0, 38.2623
27.460513658, 96.390, 1463.0, 38.2492
27.486774224, 96.390, 1481.0, 38.4838
27.513034789, 96.390, 1457.0, 38.1707
27.539295354, 96.390, 1534.0, 39.1663
27.565555920, 96.390, 1497.0, 38.6911
27.591816485, 96.390, 1514.0, 38.9102
27.618077050, 96.390, 1518.0, 38.9615
27.644337616, 96.390, 1482.0, 38.4968
27.670598181, 96.390, 1505.0, 38.7943
27.696858746, 96.390, 1547.0, 39.3319
27.723119312, 96.390, 1534.0, 39.1663
27.749379877, 96.390, 1475.0, 38.4057
27.775640442, 96.390, 1417.0, 37.6431
27.801901008, 96.390, 1427.0, 37.7757
27.828161573, 96.390, 1477.0, 38.4318
27.854422139, 96.390, 1407.0, 37.5100
27.880682704, 96.390, 1381.0, 37.1618
27.906943269, 96.390, 1428.0, 37.7889
27.933203835, 96.390, 1456.0, 38.1576
27.959464400, 96.390, 1438.0, 37.9210
27.985724965, 96.390, 1448.0, 38.0526
28.011985531, 96.390, 1430.0, 37.8153
28.038246096, 96.390, 1393.0, 37.3229
28.064506661, 96.390, 1393.0, 37.3229
28.090767227, 96.390, 1433.0, 37.8550
28.117027792, 96.390, 1415.0, 37.6165
28.143288357, 96.390, 1450.0, 38.0789
28.169548923, 96.390, 1531.0, 39.1280
28.195809488, 96.390, 1461.0, 38.2230
28.222070054, 96.390, 1507.0, 38.8201
28.248330619, 96.390, 1498.0, 38.7040
28.274591184, 96.390, 1496.0, 38.6782
28.300851750, 96.390, 1459.0, 38.1969
28.327112315, 96.390, 1428.0, 37.7889
28.353372880, 96.390, 1486.0, 38.5487
28.379633446, 96.390, 1508.0, 38.8330
28.405894011, 96.390, 1386.0, 37.2290
28.432154576, 96.390, 1492.0, 38.6264
28.458415142, 96.390, 1459.0, 38.1969
28.484675707, 96.390, 1365.0, 36.9459
28.510936272, 96.390, 1447.0, 38.0395
28.537196838, 96.390, 1392.0, 37.3095
28.563457403, 96.390, 1404.0, 37.4700
28.589717968, 96.390, 1385.0, 37.2156
28.615978534, 96.390, 1407.0, 37.5100
28.642239099, 96.390, 1382.0, 37.1753
28.668499665, 96.390, 1341.0, 36.6197
28.694760230, 96.390, 1407.0, 37.5100
28.721020795, 96.390, 1450.0, 38.0789
28.747281361, 96.390, 1410.0, 37.5500
28.773541926, 96.390, 1448.0, 38.0526
28.799802491, 96.390, 1386.0, 37.2290
28.826063057, 96.390, 1379.0, 37.1349
28.852323622, 96.390, 1404.0, 37.4700
28.878584187, 96.390, 1395.0, 37.3497
28.904844753, 96.390, 1428.0, 37.7889
28.931105318, 96.390, 1532.0, 39.1408
28.957365883, 96.390, 1436.0, 37.8946
28.983626449, 96.390, 1414.0, 37.6032
29.009887014, 96.390, 1511.0, 38.8716
29.036147579, 96.390, 1455.0, 38.1445
29.062408145, 96.390, 1451.0, 38.0920
29.088668710, 96.390, 1440.0, 37.9473
29.114929276, 96.390, 1415.0, 37.6165
29.141189841, 96.390, 1440.0, 37.9473
29.167450406, 96.390, 1476.0, 38.4187
29.193710972, 96.390, 1412.0, 37.5766
29.219971537, 96.390, 1510.0, 38.8587
29.246232102, 96.390, 1424.0, 37.7359
29.272492668, 96.390, 1471.0, 38.3536
29.298753233, 96.390, 1409.0, 37.5366
29.325013798, 96.390, 1339.0, 36.5923
29.351274364, 96.390, 1372.0, 37.0405
29.377534929, 96.390, 1443.0, 37.9868
29.403795494, 96.390, 1366.0, 36.9594
29.430056060, 96.390, 1453.0, 38.1182
29.456316625, 96.390, 1440.0, 37.9473
29.482577191, 96.390, 1373.0, 37.0540
29.508837756, 96.390, 1374.0, 37.0675
29.535098321, 96.390, 1420.0, 37.6829
29.561358887, 96.390, 1343.0, 36.6470
29.587619452, 96.390, 1380.0, 37.1484
29.613880017, 96.390, 1399.0, 37.4032
29.640140583, 96.390, 1396.0, 37.3631
29.666401148, 96.390, 1368.0, 36.9865
29.692661713, 96.390, 1384.0, 37.2022
29.718922279, 96.390, 1430.0, 37.8153
29.745182844, 96.390, 1389.0, 37.2693
29.771443409, 96.390, 1341.0, 36.6197
29.797703975, 96.390, 1492.0, 38.6264
29.823964540, 96.390, 1389.0, 37.2693
29.850225105, 96.390, 1408.0, 37.5233
29.876485671, 96.390, 1333.0, 36.5103
29.902746236, 96.390, 1381.0, 37.1618
29.929006802, 96.390, 1351.0, 36.7560
29.955267367, 96.390, 1418.0, 37.6563
29.981527932, 96.390, 1409.0, 37.5366
30.007788498, 96.390, 1419.0, 37.6696
30.034049063, 96.390, 1403.0, 37.4566
30.060309628, 96.390, 1385.0, 37.2156
30.086570194, 96.390, 1399.0, 37.4032
30.112830759, 96.390, 1371.0, 37.0270
30.139091324, 96.390, 1377.0, 37.1080
30.165351890, 96.390, 1390.0, 37.2827
30.191612455, 96.390, 1389.0, 37.2693
30.217873020, 96.390, 1436.0, 37.8946
30.244133586, 96.390, 1402.0, 37.4433
30.270394151, 96.390, 1422.0, 37.7094
30.296654717, 96.390, 1401.0, 37.4299
30.322915282, 96.390, 1444.0, 38.0000
30.349175847, 96.390, 1453.0, 38.1182
30.375436413, 96.390, 1408.0, 37.5233
30.401696978, 96.390, 1425.0, 37.7492
30.427957543, 96.390, 1448.0, 38.0526
30.454218109, 96.390, 1476.0, 38.4187
30.480478674, 96.390, 1482.0, 38.4968
30.506739239, 96.390, 1459.0, 38.1969
30.532999805, 96.390, 1422.0, 37.7094
30.559260370, 96.390, 1442.0, 37.9737
30.585520935, 96.390, 1465.0, 38.2753
30.611781501, 96.390, 1451.0, 38.0920
30.638042066, 96.390, 1487.0, 38.5616
30.664302631, 96.390, 1649.0, 40.6079
30.690563197, 96.390, 1703.0, 41.2674
30.716823762, 96.390, 1684.0, 41.0366
30.743084328, 96.390, 1540.0, 39.2428
30.769344893, 96.390, 1551.0, 39.3827
30.795605458, 96.390, 1499.0, 38.7169
30.821866024, 96.390, 1474.0, 38.3927
30.848126589, 96.390, 1452.0, 38.1051
30.874387154, 96.390, 1387.0, 37.2424
30.900647720, 96.390, 1399.0, 37.4032
30.926908285, 96.390, 1525.0, 39.0512
30.953168850, 96.390, 1497.0, 38.6911
30.979429416, 96.390, 1468.0, 38.3145
31.005689981, 96.390, 1478.0, 38.4448
31.031950546, 96.390, 1475.0, 38.4057
31.058211112, 96.390, 1590.0, 39.8748
31.084471677, 96.390, 1614.0, 40.1746
31.110732243, 96.390, 1636.0, 40.4475
31.136992808, 96.390, 1555.0, 39.4335
31.163253373, 96.390, 1591.0, 39.8873
31.189513939, 96.390, 1566.0, 39.5727
31.215774504, 96.390, 1492.0, 38.6264
31.242035069, 96.390, 1540.0, 39.2428
31.268295635, 96.390, 1452.0, 38.1051
31.294556200, 96.390, 1379.0, 37.1349
31.320816765, 96.390, 1378.0, 37.1214
31.347077331, 96.390, 1404.0, 37.4700
31.373337896, 96.390, 1461.0, 38.2230
31.399598461, 96.390, 1415.0, 37.6165
31.425859027, 96.390, 1441.0, 37.9605
31.452119592, 96.390, 1454.0, 38.1314
31.478380157, 96.390, 1407.0, 37.5100
31.504640723, 96.390, 1500.0, 38.7298
31.530901288, 96.390, 1356.0, 36.8239
31.557161854, 96.390, 1428.0, 37.7889
31.583422419, 96.390, 1437.0, 37.9078
31.609682984, 96.390, 1399.0, 37.4032
31.635943550, 96.390, 1476.0, 38.4187
31.662204115, 96.390, 1627.0, 40.3361
31.688464680, 96.390, 1545.0, 39.3065
31.714725246, 96.390, 1525.0, 39.0512
31.740985811, 96.390, 1452.0, 38.1051
31.767246376, 96.390, 1453.0, 38.1182
31.793506942, 96.390, 1392.0, 37.3095
31.819767507, 96.390, 1371.0, 37.0270
31.846028072, 96.390, 1405.0, 37.4833
31.872288638, 96.390, 1425.0, 37.7492
31.898549203, 96.390, 1457.0, 38.1707
31.924809769, 96.390, 1430.0, 37.8153
31.951070334, 96.390, 1405.0, 37.4833
31.977330899, 96.390, 1437.0, 37.9078
32.003591465, 96.390, 1413.0, 37.5899
32.029852030, 96.390, 1418.0, 37.6563
32.056112595, 96.390, 1402.0, 37.4433
32.082373161, 96.390, 1357.0, 36.8375
32.108633726, 96.390, 1429.0, 37.8021
32.134894291, 96.390, 1366.0, 36.9594
32.161154857, 96.390, 1347.0, 36.7015
32.187415422, 96.390, 1380.0, 37.1484
32.213675987, 96.390, 1394.0, 37.3363
32.239936553, 96.390, 1352.0, 36.7696
32.266197118, 96.390, 1402.0, 37.4433
32.292457683, 96.390, 1412.0, 37.5766
32.318718249, 96.390, 1385.0, 37.2156
32.344978814, 96.390, 1411.0, 37.5633
32.371239380, 96.390, 1394.0, 37.3363
32.397499945, 96.390, 1414.0, 37.6032
32.423760510, 96.390, 1440.0, 37.9473
32.450021076, 96.390, 1359.0, 36.8646
32.476281641, 96.390, 1477.0, 38.4318
32.502542206, 96.390, 1380.0, 37.1484
32.528802772, 96.390, 1443.0, 37.9868
32.555063337, 96.390, 1423.0, 37.7227
32.581323902, 96.390, 1369.0, 37.0000
32.607584468, 96.390, 1425.0, 37.7492
32.633845033, 96.390, 1417.0, 37.6431
32.660105598, 96.390, 1474.0, 38.3927
32.686366164, 96.390, 1432.0, 37.8418
32.712626729, 96.390, 1373.0, 37.0540
32.738887295, 96.390, 1461.0, 38.2230
32.765147860, 96.390, 1469.0, 38.3275
32.791408425, 96.390, 1420.0, 37.6829
32.817668991, 96.390, 1419.0, 37.6696
32.843929556, 96.390, 1409.0, 37.5366
32.870190121, 96.390, 1489.0, 38.5876
32.896450687, 96.390, 1454.0, 38.1314
32.922711252, 96.390, 1603.0, 40.0375
32.948971817, 96.390, 1585.0, 39.8121
32.975232383, 96.390, 1505.0, 38.7943
33.001492948, 96.390, 1594.0, 39.9249
33.027753513, 96.390, 1620.0, 40.2492
33.054014079, 96.390, 1646.0, 40.5709
33.080274644, 96.390, 1648.0, 40.5956
33.106535209, 96.390, 1777.0, 42.1545
33.132795775, 96.390, 1578.0, 39.7240
33.159056340, 96.390, 1626.0, 40.3237
33.185316906, 96.390, 1702.0, 41.2553
33.211577471, 96.390, 1632.0, 40.3980
33.237838036, 96.390, 1641.0, 40.5093
33.264098602, 96.390, 1690.0, 41.1096
33.290359167, 96.390, 1679.0, 40.9756
33.316619732, 96.390, 1695.0, 41.1704
33.342880298, 96.390, 1751.0, 41.8450
33.369140863, 96.390, 1750.0, 41.8330
33.395401428, 96.390, 1888.0, 43.4511
33.421661994, 96.390, 2032.0, 45.0777
33.447922559, 96.390, 2064.0, 45.4313
33.474183124, 96.390, 1941.0, 44.0568
33.500443690, 96.390, 1775.0, 42.1307
33.526704255, 96.390, 1869.0, 43.2319
33.552964820, 96.390, 1750.0, 41.8330
33.579225386, 96.390, 1781.0, 42.2019
33.605485951, 96.390, 1798.0, 42.4028
33.631746517, 96.390, 1707.0, 41.3159
33.658007082, 96.390, 1863.0, 43.1625
33.684267647, 96.390, 1824.0, 42.7083
33.710528213, 96.390, 1944.0, 44.0908
33.736788778, 96.390, 1835.0, 42.8369
33.763049343, 96.390, 1950.0, 44.1588
33.789309909, 96.390, 1978.0, 44.4747
33.815570474, 96.390, 2049.0, 45.2659
33.841831039, 96.390, 1984.0, 44.5421
33.868091605, 96.390, 2094.0, 45.7602
33.894352170, 96.390, 2109.0, 45.9239
33.920612735, 96.390, 2112.0, 45.9565
33.946873301, 96.390, 2132.0, 46.1736
33.973133866, 96.390, 2242.0, 47.3498
33.999394432, 96.390, 2195.0, 46.8508
34.025654997, 96.390, 2181.0, 46.7012
34.051915562, 96.390, 2206.0, 46.9681
34.078176128, 96.390, 2203.0, 46.9361
34.104436693, 96.390, 2229.0, 47.2123
34.130697258, 96.390, 2160.0, 46.4758
34.156957824, 96.390, 2279.0, 47.7389
34.183218389, 96.390, 2319.0, 48.1560
34.209478954, 96.390, 2280.0, 47.7493
34.235739520, 96.390, 2259.0, 47.5289
34.262000085, 96.390, 2251.0, 47.4447
34.288260650, 96.390, 2479.0, 49.7896
34.314521216, 96.390, 2503.0, 50.0300
34.340781781, 96.390, 2386.0, 48.8467
34.367042346, 96.390, 2423.0, 49.2240
34.393302912, 96.390, 2481.0, 49.8096
34.419563477, 96.390, 2550.0, 50.4975
34.445824043, 96.390, 2442.0, 49.4166
34.472084608, 96.390, 2498.0, 49.9800
34.498345173, 96.390, 2589.0, 50.8822
34.524605739, 96.390, 2548.0, 50.4777
34.550866304, 96.390, 2627.0, 51.2543
34.577126869, 96.390, 2612.0, 51.1077
34.603387435, 96.390, 2571.0, 50.7050
34.629648000, 96.390, 2599.0, 50.9804
34.655908565, 96.390, 2773.0, 52.6593
34.682169131, 96.390, 2591.0, 50.9019
34.708429696, 96.390, 2666.0, 51.6333
34.734690261, 96.390, 2646.0, 51.4393
34.760950827, 96.390, 2491.0, 49.9099
34.787211392, 96.390, 2562.0, 50.6162
34.813471958, 96.390, 2565.0, 50.6458
34.839732523, 96.390, 2494.0, 49.9400
34.865993088, 96.390, 2409.0, 49.0816
34.892253654, 96.390, 2519.0, 50.1896
34.918514219, 96.390, 2497.0, 49.9700
34.944774784, 96.390, 2508.0, 50.0799
34.971035350, 96.390, 2576.0, 50.7543
34.997295915, 96.390, 2617.0, 51.1566
35.023556480, 96.390, 2463.0, 49.6286
35.049817046, 96.390, 2417.0, 49.1630
35.076077611, 96.390, 2570.0, 50.6952
35.102338176, 96.390, 2356.0, 48.5386
35.128598742, 96.390, 2348.0, 48.4562
35.154859307, 96.390, 2401.0, 49.0000
35.181119872, 96.390, 2489.0, 49.8899
35.207380438, 96.390, 2354.0, 48.5180
35.233641003, 96.390, 2381.0, 48.7955
35.259901569, 96.390, 2312.0, 48.0833
35.286162134, 96.390, 2280.0, 47.7493
35.312422699, 96.390, 2225.0, 47.1699
35.338683265, 96.390, 2268.0, 47.6235
35.364943830, 96.390, 2226.0, 47.1805
35.391204395, 96.390, 2216.0, 47.0744
35.417464961, 96.390, 2216.0, 47.0744
35.443725526, 96.390, 2109.0, 45.9239
35.469986091, 96.390, 2198.0, 46.8828
35.496246657, 96.390, 2152.0, 46.3897
35.522507222, 96.390, 2148.0, 46.3465
35.548767787, 96.390, 2123.0, 46.0760
35.575028353, 96.390, 2112.0, 45.9565
35.601288918, 96.390, 2130.0, 46.1519
35.627549484, 96.390, 2138.0, 46.2385
35.653810049, 96.390, 2070.0, 45.4973
35.680070614, 96.390, 2198.0, 46.8828
35.706331180, 96.390, 2230.0, 47.2229
35.732591745, 96.390, 2114.0, 45.9783
35.758852310, 96.390, 2112.0, 45.9565
35.785112876, 96.390, 2076.0, 45.5631
35.811373441, 96.390, 2150.0, 46.3681
35.837634006, 96.390, 2085.0, 45.6618
35.863894572, 96.390, 2086.0, 45.6727
35.890155137, 96.390, 2096.0, 45.7821
35.916415702, 96.390, 2056.0, 45.3431
35.942676268, 96.390, 2160.0, 46.4758
35.968936833, 96.390, 2059.0, 45.3762
35.995197398, 96.390, 2183.0, 46.7226
36.021457964, 96.390, 2073.0, 45.5302
36.047718529, 96.390, 2046.0, 45.2327
36.073979095, 96.390, 2018.0, 44.9222
36.100239660, 96.390, 2003.0, 44.7549
36.126500225, 96.390, 2128.0, 46.1303
36.152760791, 96.390, 1970.0, 44.3847
36.179021356, 96.390, 2012.0, 44.8553
36.205281921, 96.390, 1969.0, 44.3734
36.231542487, 96.390, 2042.0, 45.1885
36.257803052, 96.390, 1963.0, 44.3058
36.284063617, 96.390, 1980.0, 44.4972
36.310324183, 96.390, 2004.0, 44.7661
36.336584748, 96.390, 2083.0, 45.6399
36.362845313, 96.390, 2138.0, 46.2385
36.389105879, 96.390, 1991.0, 44.6206
36.415366444, 96.390, 1946.0, 44.1135
36.441627010, 96.390, 1984.0, 44.5421
36.467887575, 96.390, 1913.0, 43.7379
36.494148140, 96.390, 1983.0, 44.5309
36.520408706, 96.390, 1983.0, 44.5309
36.546669271, 96.390, 1932.0, 43.9545
36.572929836, 96.390, 1915.0, 43.7607
36.599190402, 96.390, 1862.0, 43.1509
36.625450967, 96.390, 1972.0, 44.4072
36.651711532, 96.390, 1863.0, 43.1625
36.677972098, 96.390, 1865.0, 43.1856
36.704232663, 96.390, 1950.0, 44.1588
36.730493228, 96.390, 1872.0, 43.2666
36.756753794, 96.390, 1896.0, 43.5431
36.783014359, 96.390, 1880.0, 43.3590
36.809274924, 96.390, 1834.0, 42.8252
36.835535490, 96.390, 1793.0, 42.3438
36.861796055, 96.390, 1803.0, 42.4617
36.888056621, 96.390, 1873.0, 43.2782
36.914317186, 96.390, 1804.0, 42.4735
36.940577751, 96.390, 1867.0, 43.2088
36.966838317, 96.390, 1866.0, 43.1972
36.993098882, 96.390, 1838.0, 42.8719
37.019359447, 96.390, 1811.0, 42.5558
37.045620013, 96.390, 1812.0, 42.5676
37.071880578, 96.390, 1824.0, 42.7083
37.098141143, 96.390, 1798.0, 42.4028
37.124401709, 96.390, 1735.0, 41.6533
37.150662274, 96.390, 1748.0, 41.8091
37.176922839, 96.390, 1732.0, 41.6173
37.203183405, 96.390, 1812.0, 42.5676
37.229443970, 96.390, 1792.0, 42.3320
37.255704535, 96.390, 1717.0, 41.4367
37.281965101, 96.390, 1767.0, 42.0357
37.308225666, 96.390, 1767.0, 42.0357
37.334486232, 96.390, 1822.0, 42.6849
37.360746797, 96.390, 1781.0, 42.2019
37.387007362, 96.390, 1815.0, 42.6028
37.413267928, 96.390, 1807.0, 42.5088
37.439528493, 96.390, 1719.0, 41.4608
37.465789058, 96.390, 1717.0, 41.4367
37.492049624, 96.390, 1665.0, 40.8044
37.518310189, 96.390, 1732.0, 41.6173
37.544570754, 96.390, 1835.0, 42.8369
37.570831320, 96.390, 1638.0, 40.4722
37.597091885, 96.390, 1714.0, 41.4005
37.623352450, 96.390, 1750.0, 41.8330
37.649613016, 96.390, 1760.0, 41.9524
37.675873581, 96.390, 1781.0, 42.2019
37.702134147, 96.390, 1782.0, 42.2137
37.728394712, 96.390, 1784.0, 42.2374
37.754655277, 96.390, 1884.0, 43.4051
37.780915843, 96.390, 1884.0, 43.4051
37.807176408, 96.390, 1885.0, 43.4166
37.833436973, 96.390, 1789.0, 42.2966
37.859697539, 96.390, 1753.0, 41.8688
37.885958104, 96.390, 1687.0, 41.0731
37.912218669, 96.390, 1808.0, 42.5206
37.938479235, 96.390, 1743.0, 41.7493
37.964739800, 96.390, 1745.0, 41.7732
37.991000365, 96.390, 1731.0, 41.6053
38.017260931, 96.390, 1659.0, 40.7308
38.043521496, 96.390, 1662.0, 40.7676
38.069782061, 96.390, 1780.0, 42.1900
38.096042627, 96.390, 1744.0, 41.7612
38.122303192, 96.390, 1682.0, 41.0122
38.148563758, 96.390, 1681.0, 41.0000
38.174824323, 96.390, 1688.0, 41.0853
38.201084888, 96.390, 1710.0, 41.3521
38.227345454, 96.390, 1799.0, 42.4146
38.253606019, 96.390, 1701.0, 41.2432
38.279866584, 96.390, 1796.0, 42.3792
38.306127150, 96.390, 1780.0, 42.1900
38.332387715, 96.390, 1791.0, 42.3202
38.358648280, 96.390, 1730.0, 41.5933
38.384908846, 96.390, 1718.0, 41.4488
38.411169411, 96.390, 1709.0, 41.3401
38.437429976, 96.390, 1608.0, 40.0999
38.463690542, 96.390, 1691.0, 41.1218
38.489951107, 96.390, 1646.0, 40.5709
38.516211673, 96.390, 1571.0, 39.6358
38.542472238, 96.390, 1712.0, 41.3763
38.568732803, 96.390, 1642.0, 40.5216
38.594993369, 96.390, 1705.0, 41.2916
38.621253934, 96.390, 1650.0, 40.6202
38.647514499, 96.390, 1670.0, 40.8656
38.673775065, 96.390, 1688.0, 41.0853
38.700035630, 96.390, 1657.0, 40.7063
38.726296195, 96.390, 1657.0, 40.7063
38.752556761, 96.390, 1740.0, 41.7133
38.778817326, 96.390, 1626.0, 40.3237
38.805077891, 96.390, 1681.0, 41.0000
38.831338457, 96.390, 1704.0, 41.2795
38.857599022, 96.390, 1708.0, 41.3280
38.883859587, 96.390, 1751.0, 41.8450
38.910120153, 96.390, 1759.0, 41.9404
38.936380718, 96.390, 1743.0, 41.7493
38.962641284, 96.390, 1721.0, 41.4849
38.988901849, 96.390, 1707.0, 41.3159
39.015162414, 96.390, 1621.0, 40.2616
39.041422980, 96.390, 1690.0, 41.1096
39.067683545, 96.390, 1716.0, 41.4246
39.093944110, 96.390, 1614.0, 40.1746
39.120204676, 96.390, 1666.0, 40.8167
39.146465241, 96.390, 1696.0, 41.1825
39.172725806, 96.390, 1698.0, 41.2068
39.198986372, 96.390, 1698.0, 41.2068
39.225246937, 96.390, 1705.0, 41.2916
39.251507502, 96.390, 1701.0, 41.2432
39.277768068, 96.390, 1596.0, 39.9500
39.304028633, 96.390, 1611.0, 40.1373
39.330289199, 96.390, 1591.0, 39.8873
39.356549764, 96.390, 1559.0, 39.4842
39.382810329, 96.390, 1560.0, 39.4968
39.409070895, 96.390, 1569.0, 39.6106
39.435331460, 96.390, 1458.0, 38.1838
39.461592025, 96.390, 1517.0, 38.9487
39.487852591, 96.390, 1452.0, 38.1051
39.514113156, 96.390, 1503.0, 38.7685
39.540373721, 96.390, 1452.0, 38.1051
39.566634287, 96.390, 1454.0, 38.1314
39.592894852, 96.390, 1526.0, 39.0640
39.619155417, 96.390, 1523.0, 39.0256
39.645415983, 96.390, 1456.0, 38.1576
39.671676548, 96.390, 1488.0, 38.5746
39.697937113, 96.390, 1519.0, 38.9744
39.724197679, 96.390, 1462.0, 38.2361
39.750458244, 96.390, 1465.0, 38.2753
39.776718810, 96.390, 1446.0, 38.0263
39.802979375, 96.390, 1477.0, 38.4318
39.829239940, 96.390, 1426.0, 37.7624
39.855500506, 96.390, 1461.0, 38.2230
39.881761071, 96.390, 1396.0, 37.3631
39.908021636, 96.390, 1513.0, 38.8973
39.934282202, 96.390, 1434.0, 37.8682
39.960542767, 96.390, 1329.0, 36.4555
39.986803332, 96.390, 1350.0, 36.7423
40.013063898, 96.390, 1387.0, 37.2424
40.039324463, 96.390, 1405.0, 37.4833
40.065585028, 96.390, 1370.0, 37.0135
40.091845594, 96.390, 1450.0, 38.0789
40.118106159, 96.390, 1359.0, 36.8646
40.144366725, 96.390, 1392.0, 37.3095
40.170627290, 96.390, 1403.0, 37.4566
40.196887855, 96.390, 1341.0, 36.6197
40.223148421, 96.390, 1389.0, 37.2693
40.249408986, 96.390, 1352.0, 36.7696
40.275669551, 96.390, 1385.0, 37.2156
40.301930117, 96.390, 1412.0, 37.5766
40.328190682, 96.390, 1385.0, 37.2156
40.354451247, 96.390, 1343.0, 36.6470
40.380711813, 96.390, 1353.0, 36.7831
40.406972378, 96.390, 1340.0, 36.6060
40.433232943, 96.390, 1308.0, 36.1663
40.459493509, 96.390, 1301.0, 36.0694
40.485754074, 96.390, 1294.0, 35.9722
40.512014639, 96.390, 1289.0, 35.9026
40.538275205, 96.390, 1350.0, 36.7423
40.564535770, 96.390, 1342.0, 36.6333
40.590796336, 96.390, 1367.0, 36.9730
40.617056901, 96.390, 1346.0, 36.6879
40.643317466, 96.390, 1312.0, 36.2215
40.669578032, 96.390, 1309.0, 36.1801
40.695838597, 96.390, 1325.0, 36.4005
40.722099162, 96.390, 1326.0, 36.4143
40.748359728, 96.390, 1286.0, 35.8608
40.774620293, 96.390, 1266.0, 35.5809
40.800880858, 96.390, 1307.0, 36.1525
40.827141424, 96.390, 1278.0, 35.7491
40.853401989, 96.390, 1237.0, 35.1710
40.879662554, 96.390, 1261.0, 35.5106
40.905923120, 96.390, 1285.0, 35.8469
40.932183685, 96.390, 1241.0, 35.2278
40.958444251, 96.390, 1265.0, 35.5668
40.984704816, 96.390, 1283.0, 35.8190
41.010965381, 96.390, 1249.0, 35.3412
41.037225947, 96.390, 1293.0, 35.9583
41.063486512, 96.390, 1288.0, 35.8887
41.089747077, 96.390, 1263.0, 35.5387
41.116007643, 96.390, 1224.0, 34.9857
41.142268208, 96.390, 1222.0, 34.9571
41.168528773, 96.390, 1239.0, 35.1994
41.194789339, 96.390, 1246.0, 35.2987
41.221049904, 96.390, 1258.0, 35.4683
41.247310469, 96.390, 1224.0, 34.9857
41.273571035, 96.390, 1291.0, 35.9305
41.299831600, 96.390, 1290.0, 35.9166
41.326092165, 96.390, 1210.0, 34.7851
41.352352731, 96.390, 1219.0, 34.9142
41.378613296, 96.390, 1269.0, 35.6230
41.404873862, 96.390, 1221.0, 34.9428
41.431134427, 96.390, 1228.0, 35.0428
41.457394992, 96.390, 1182.0, 34.3802
41.483655558, 96.390, 1271.0, 35.6511
41.509916123, 96.390, 1236.0, 35.1568
41.536176688, 96.390, 1223.0, 34.9714
41.562437254, 96.390, 1265.0, 35.5668
41.588697819, 96.390, 1287.0, 35.8748
41.614958384, 96.390, 1221.0, 34.9428
41.641218950, 96.390, 1298.0, 36.0278
41.667479515, 96.390, 1178.0, 34.3220
41.693740080, 96.390, 1190.0, 34.4964
41.720000646, 96.390, 1213.0, 34.8281
41.746261211, 96.390, 1239.0, 35.1994
41.772521776, 96.390, 1206.0, 34.7275
41.798782342, 96.390, 1224.0, 34.9857
41.825042907, 96.390, 1212.0, 34.8138
41.851303473, 96.390, 1187.0, 34.4529
41.877564038, 96.390, 1214.0, 34.8425
41.903824603, 96.390, 1191.0, 34.5109
41.930085169, 96.390, 1180.0, 34.3511
41.956345734, 96.390, 1206.0, 34.7275
41.982606299, 96.390, 1222.0, 34.9571
42.008866865, 96.390, 1212.0, 34.8138
42.035127430, 96.390, 1207.0, 34.7419
42.061387995, 96.390, 1269.0, 35.6230
42.087648561, 96.390, 1226.0, 35.0143
42.113909126, 96.390, 1215.0, 34.8569
42.140169691, 96.390, 1278.0, 35.7491
42.166430257, 96.390, 1212.0, 34.8138
42.192690822, 96.390, 1353.0, 36.7831
42.218951388, 96.390, 1273.0, 35.6791
42.245211953, 96.390, 1273.0, 35.6791
42.271472518, 96.390, 1258.0, 35.4683
42.297733084, 96.390, 1213.0, 34.8281
42.323993649, 96.390, 1200.0, 34.6410
42.350254214, 96.390, 1194.0, 34.5543
42.376514780, 96.390, 1214.0, 34.8425
42.402775345, 96.390, 1231.0, 35.0856
42.429035910, 96.390, 1122.0, 33.4963
42.455296476, 96.390, 1259.0, 35.4824
42.481557041, 96.390, 1209.0, 34.7707
42.507817606, 96.390, 1194.0, 34.5543
42.534078172, 96.390, 1209.0, 34.7707
42.560338737, 96.390, 1167.0, 34.1614
42.586599302, 96.390, 1198.0, 34.6121
42.612859868, 96.390, 1148.0, 33.8821
42.639120433, 96.390, 1209.0, 34.7707
42.665380999, 96.390, 1167.0, 34.1614
42.691641564, 96.390, 1192.0, 34.5254
42.717902129, 96.390, 1144.0, 33.8231
42.744162695, 96.390, 1246.0, 35.2987
42.770423260, 96.390, 1229.0, 35.0571
42.796683825, 96.390, 1115.0, 33.3916
42.822944391, 96.390, 1193.0, 34.5398
42.849204956, 96.390, 1134.0, 33.6749
42.875465521, 96.390, 1166.0, 34.1467
42.901726087, 96.390, 1189.0, 34.4819
42.927986652, 96.390, 1151.0, 33.9264
42.954247217, 96.390, 1226.0, 35.0143
42.980507783, 96.390, 1170.0, 34.2053
43.006768348, 96.390, 1152.0, 33.9411
43.033028914, 96.390, 1146.0, 33.8526
43.059289479, 96.390, 1205.0, 34.7131
43.085550044, 96.390, 1146.0, 33.8526
43.111810610, 96.390, 1212.0, 34.8138
43.138071175, 96.390, 1171.0, 34.2199
43.164331740, 96.390, 1170.0, 34.2053
43.190592306, 96.390, 1156.0, 34.0000
43.216852871, 96.390, 1135.0, 33.6898
43.243113436, 96.390, 1130.0, 33.6155
43.269374002, 96.390, 1154.0, 33.9706
43.295634567, 96.390, 1205.0, 34.7131
43.321895132, 96.390, 1222.0, 34.9571
43.348155698, 96.390, 1195.0, 34.5688
43.374416263, 96.390, 1170.0, 34.2053
43.400676828, 96.390, 1136.0, 33.7046
43.426937394, 96.390, 1185.0, 34.4238
43.453197959, 96.390, 1213.0, 34.8281
43.479458525, 96.390, 1157.0, 34.0147
43.505719090, 96.390, 1105.0, 33.2415
43.531979655, 96.390, 1131.0, 33.6303
43.558240221, 96.390, 1146.0, 33.8526
43.584500786, 96.390, 1132.0, 33.6452
43.610761351, 96.390, 1131.0, 33.6303
43.637021917, 96.390, 1101.0, 33.1813
43.663282482, 96.390, 1197.0, 34.5977
43.689543047, 96.390, 1140.0, 33.7639
43.715803613, 96.390, 1098.0, 33.1361
43.742064178, 96.390, 1118.0, 33.4365
43.768324743, 96.390, 1132.0, 33.6452
43.794585309, 96.390, 1178.0, 34.3220
43.820845874, 96.390, 1154.0, 33.9706
43.847106440, 96.390, 1118.0, 33.4365
43.873367005, 96.390, 1155.0, 33.9853
43.899627570, 96.390, 1142.0, 33.7935
43.925888136, 96.390, 1149.0, 33.8969
43.952148701, 96.390, 1142.0, 33.7935
43.978409266, 96.390, 1174.0, 34.2637
44.004669832, 96.390, 1166.0, 34.1467
44.030930397, 96.390, 1132.0, 33.6452
44.057190962, 96.390, 1157.0, 34.0147
44.083451528, 96.390, 1121.0, 33.4813
44.109712093, 96.390, 1173.0, 34.2491
44.135972658, 96.390, 1164.0, 34.1174
44.162233224, 96.390, 1171.0, 34.2199
44.188493789, 96.390, 1092.0, 33.0454
44.214754354, 96.390, 1163.0, 34.1028
44.241014920, 96.390, 1142.0, 33.7935
44.267275485, 96.390, 1135.0, 33.6898
44.293536051, 96.390, 1147.0, 33.8674
44.319796616, 96.390, 1139.0, 33.7491
44.346057181, 96.390, 1118.0, 33.4365
44.372317747, 96.390, 1110.0, 33.3167
44.398578312, 96.390, 1138.0, 33.7343
44.424838877, 96.390, 1041.0, 32.2645
44.451099443, 96.390, 1069.0, 32.6956
44.477360008, 96.390, 1087.0, 32.9697
44.503620573, 96.390, 1149.0, 33.8969
44.529881139, 96.390, 1136.0, 33.7046
44.556141704, 96.390, 1131.0, 33.6303
44.582402269, 96.390, 1063.0, 32.6037
44.608662835, 96.390, 1218.0, 34.8999
44.634923400, 96.390, 1178.0, 34.3220
44.661183966, 96.390, 1225.0, 35.0000
44.687444531, 96.390, 1165.0, 34.1321
44.713705096, 96.390, 1188.0, 34.4674
44.739965662, 96.390, 1160.0, 34.0588
44.766226227, 96.390, 1188.0, 34.4674
44.792486792, 96.390, 1181.0, 34.3657
44.818747358, 96.390, 1144.0, 33.8231
44.845007923, 96.390, 1166.0, 34.1467
44.871268488, 96.390, 1142.0, 33.7935
44.897529054, 96.390, 1065.0, 32.6343
44.923789619, 96.390, 1072.0, 32.7414
44.950050184, 96.390, 1087.0, 32.9697
44.976310750, 96.390, 1072.0, 32.7414
45.002571315, 96.390, 1062.0, 32.5883
45.028831880, 96.390, 1111.0, 33.3317
45.055092446, 96.390, 1096.0, 33.1059
45.081353011, 96.390, 1048.0, 32.3728
45.107613577, 96.390, 1153.0, 33.9559
45.133874142, 96.390, 1115.0, 33.3916
45.160134707, 96.390, 1168.0, 34.1760
45.186395273, 96.390, 1162.0, 34.0881
45.212655838, 96.390, 1139.0, 33.7491
45.238916403, 96.390, 1060.0, 32.5576
45.265176969, 96.390, 1088.0, 32.9848
45.291437534, 96.390, 1134.0, 33.6749
45.317698099, 96.390, 1204.0, 34.6987
45.343958665, 96.390, 1142.0, 33.7935
45.370219230, 96.390, 1150.0, 33.9116
45.396479795, 96.390, 1192.0, 34.5254
45.422740361, 96.390, 1070.0, 32.7109
45.449000926, 96.390, 1114.0, 33.3766
45.475261492, 96.390, 1158.0, 34.0294
45.501522057, 96.390, 1086.0, 32.9545
45.527782622, 96.390, 1105.0, 33.2415
45.554043188, 96.390, 1089.0, 33.0000
45.580303753, 96.390, 1065.0, 32.6343
45.606564318, 96.390, 1187.0, 34.4529
45.632824884, 96.390, 1148.0, 33.8821
45.659085449, 96.390, 1139.0, 33.7491
45.685346014, 96.390, 1131.0, 33.6303
45.711606580, 96.390, 1119.0, 33.4515
45.737867145, 96.390, 1148.0, 33.8821
45.764127710, 96.390, 1126.0, 33.5559
45.790388276, 96.390, 1118.0, 33.4365
45.816648841, 96.390, 1106.0, 33.2566
45.842909406, 96.390, 1121.0, 33.4813
45.869169972, 96.390, 1134.0, 33.6749
45.895430537, 96.390, 1114.0, 33.3766
45.921691103, 96.390, 1178.0, 34.3220
45.947951668, 96.390, 1108.0, 33.2866
45.974212233, 96.390, 1130.0, 33.6155
46.000472799, 96.390, 1150.0, 33.9116
46.026733364, 96.390, 1156.0, 34.0000
46.052993929, 96.390, 1164.0, 34.1174
46.079254495, 96.390, 1161.0, 34.0735
46.105515060, 96.390, 1126.0, 33.5559
46.131775625, 96.390, 1195.0, 34.5688
46.158036191, 96.390, 1178.0, 34.3220
46.184296756, 96.390, 1214.0, 34.8425
46.210557321, 96.390, 1155.0, 33.9853
46.236817887, 96.390, 1137.0, 33.7194
46.263078452, 96.390, 1256.0, 35.4401
46.289339017, 96.390, 1143.0, 33.8083
46.315599583, 96.390, 1150.0, 33.9116
46.341860148, 96.390, 1152.0, 33.9411
46.368120714, 96.390, 1138.0, 33.7343
46.394381279, 96.390, 1118.0, 33.4365
46.420641844, 96.390, 1154.0, 33.9706
46.446902410, 96.390, 1032.0, 32.1248
46.473162975, 96.390, 1088.0, 32.9848
46.499423540, 96.390, 1106.0, 33.2566
46.525684106, 96.390, 1077.0, 32.8177
46.551944671, 96.390, 1107.0, 33.2716
46.578205236, 96.390, 1110.0, 33.3167
46.604465802, 96.390, 1093.0, 33.0606
46.630726367, 96.390, 1101.0, 33.1813
46.656986932, 96.390, 1134.0, 33.6749
46.683247498, 96.390, 1116.0, 33.4066
46.709508063, 96.390, 1090.0, 33.0151
46.735768629, 96.390, 1066.0, 32.6497
46.762029194, 96.390, 1114.0, 33.3766
46.788289759, 96.390, 1123.0, 33.5112
46.814550325, 96.390, 1056.0, 32.4962
46.840810890, 96.390, 1071.0, 32.7261
46.867071455, 96.390, 1012.0, 31.8119
46.893332021, 96.390, 1015.0, 31.8591
46.919592586, 96.390, 1040.0, 32.2490
46.945853151, 96.390, 1006.0, 31.7175
46.972113717, 96.390, 1016.0, 31.8748
46.998374282, 96.390, 1021.0, 31.9531
47.024634847, 96.390, 972.0, 31.1769
47.050895413, 96.390, 1055.0, 32.4808
47.077155978, 96.390, 997.0, 31.5753
47.103416543, 96.390, 955.0, 30.9031
47.129677109, 96.390, 961.0, 31.0000
47.155937674, 96.390, 956.0, 30.9192
47.182198240, 96.390, 1016.0, 31.8748
47.208458805, 96.390, 1000.0, 31.6228
47.234719370, 96.390, 986.0, 31.4006
47.260979936, 96.390, 986.0, 31.4006
47.287240501, 96.390, 976.0, 31.2410
47.313501066, 96.390, 967.0, 31.0966
47.339761632, 96.390, 928.0, 30.4631
47.366022197, 96.390, 934.0, 30.5614
47.392282762, 96.390, 963.0, 31.0322
47.418543328, 96.390, 977.0, 31.2570
47.444803893, 96.390, 923.0, 30.3809
47.471064458, 96.390, 931.0, 30.5123
47.497325024, 96.390, 940.0, 30.6594
47.523585589, 96.390, 905.0, 30.0832
47.549846155, 96.390, 939.0, 30.6431
47.576106720, 96.390, 979.0, 31.2890
47.602367285, 96.390, 914.0, 30.2324
47.628627851, 96.390, 915.0, 30.2490
47.654888416, 96.390, 948.0, 30.7896
47.681148981, 96.390, 962.0, 31.0161
47.707409547, 96.390, 881.0, 29.6816
47.733670112, 96.390, 964.0, 31.0483
47.759930677, 96.390, 940.0, 30.6594
47.786191243, 96.390, 940.0, 30.6594
47.812451808, 96.390, 939.0, 30.6431
47.838712373, 96.390, 919.0, 30.3150
47.864972939, 96.390, 946.0, 30.7571
47.891233504, 96.390, 962.0, 31.0161
47.917494069, 96.390, 880.0, 29.6648
47.943754635, 96.390, 896.0, 29.9333
47.970015200, 96.390, 966.0, 31.0805
47.996275766, 96.390, 880.0, 29.6648
48.022536331, 96.390, 932.0, 30.5287
48.048796896, 96.390, 887.0, 29.7825
48.075057462, 96.390, 883.0, 29.7153
48.101318027, 96.390, 916.0, 30.2655
48.127578592, 96.390, 876.0, 29.5973
48.153839158, 96.390, 951.0, 30.8383
48.180099723, 96.390, 942.0, 30.6920
48.206360288, 96.390, 874.0, 29.5635
48.232620854, 96.390, 901.0, 30.0167
48.258881419, 96.390, 910.0, 30.1662
48.285141984, 96.390, 836.0, 28.9137
48.311402550, 96.390, 903.0, 30.0500
48.337663115, 96.390, 891.0, 29.8496
48.363923681, 96.390, 870.0, 29.4958
48.390184246, 96.390, 901.0, 30.0167
48.416444811, 96.390, 892.0, 29.8664
48.442705377, 96.390, 954.0, 30.8869
48.468965942, 96.390, 939.0, 30.6431
48.495226507, 96.390, 878.0, 29.6311
48.521487073, 96.390, 904.0, 30.0666
48.547747638, 96.390, 921.0, 30.3480
48.574008203, 96.390, 892.0, 29.8664
48.600268769, 96.390, 862.0, 29.3598
48.626529334, 96.390, 844.0, 29.0517
48.652789899, 96.390, 855.0, 29.2404
48.679050465, 96.390, 874.0, 29.5635
48.705311030, 96.390, 875.0, 29.5804
48.731571595, 96.390, 852.0, 29.1890
48.757832161, 96.390, 908.0, 30.1330
48.784092726, 96.390, 856.0, 29.2575
48.810353292, 96.390, 855.0, 29.2404
48.836613857, 96.390, 816.0, 28.5657
48.862874422, 96.390, 814.0, 28.5307
48.889134988, 96.390, 851.0, 29.1719
48.915395553, 96.390, 856.0, 29.2575
48.941656118, 96.390, 880.0, 29.6648
48.967916684, 96.390, 857.0, 29.2746
48.994177249, 96.390, 839.0, 28.9655
49.020437814, 96.390, 870.0, 29.4958
49.046698380, 96.390, 890.0, 29.8329
49.072958945, 96.390, 900.0, 30.0000
49.099219510, 96.390, 868.0, 29.4618
49.125480076, 96.390, 779.0, 27.9106
49.151740641, 96.390, 857.0, 29.2746
49.178001207, 96.390, 842.0, 29.0172
49.204261772, 96.390, 866.0, 29.4279
49.230522337, 96.390, 875.0, 29.5804
49.256782903, 96.390, 858.0, 29.2916
49.283043468, 96.390, 815.0, 28.5482
49.309304033, 96.390, 881.0, 29.6816
49.335564599, 96.390, 885.0, 29.7489
49.361825164, 96.390, 854.0, 29.2233
49.388085729, 96.390, 866.0, 29.4279
49.414346295, 96.390, 858.0, 29.2916
49.440606860, 96.390, 868.0, 29.4618
49.466867425, 96.390, 874.0, 29.5635
49.493127991, 96.390, 822.0, 28.6705
49.519388556, 96.390, 889.0, 29.8161
49.545649121, 96.390, 849.0, 29.1376
49.571909687, 96.390, 775.0, 27.8388
49.598170252, 96.390, 844.0, 29.0517
49.624430818, 96.390, 840.0, 28.9828
49.650691383, 96.390, 873.0, 29.5466
49.676951948, 96.390, 850.0, 29.1548
49.703212514, 96.390, 842.0, 29.0172
49.729473079, 96.390, 900.0, 30.0000
49.755733644, 96.390, 850.0, 29.1548
49.781994210, 96.390, 854.0, 29.2233
49.808254775, 96.390, 807.0, 28.4077
49.834515340, 96.390, 802.0, 28.3196
49.860775906, 96.390, 808.0, 28.4253
49.887036471, 96.390, 823.0, 28.6880
49.913297036, 96.390, 797.0, 28.2312
49.939557602, 96.390, 789.0, 28.0891
49.965818167, 96.390, 757.0, 27.5136
49.992078733, 96.390, 818.0, 28.6007
50.018339298, 96.390, 794.0, 28.1780
50.044599863, 96.390, 808.0, 28.4253
50.070860429, 96.390, 837.0, 28.9310
50.097120994, 96.390, 796.0, 28.2135
50.123381559, 96.390, 817.0, 28.5832
50.149642125, 96.390, 849.0, 29.1376
50.175902690, 96.390, 845.0, 29.0689
50.202163255, 96.390, 842.0, 29.0172
50.228423821, 96.390, 776.0, 27.8568
50.254684386, 96.390, 840.0, 28.9828
50.280944951, 96.390, 798.0, 28.2489
50.307205517, 96.390, 757.0, 27.5136
50.333466082, 96.390, 856.0, 29.2575
50.359726647, 96.390, 755.0, 27.4773
50.385987213, 96.390, 808.0, 28.4253
50.412247778, 96.390, 804.0, 28.3549
50.438508344, 96.390, 783.0, 27.9821
50.464768909, 96.390, 777.0, 27.8747
50.491029474, 96.390, 783.0, 27.9821
50.517290040, 96.390, 775.0, 27.8388
50.543550605, 96.390, 754.0, 27.4591
50.569811170, 96.390, 779.0, 27.9106
50.596071736, 96.390, 774.0, 27.8209
50.622332301, 96.390, 724.0, 26.9072
50.648592866, 96.390, 762.0, 27.6043
50.674853432, 96.390, 783.0, 27.9821
50.701113997, 96.390, 792.0, 28.1425
50.727374562, 96.390, 794.0, 28.1780
50.753635128, 96.390, 822.0, 28.6705
50.779895693, 96.390, 761.0, 27.5862
50.806156258, 96.390, 823.0, 28.6880
50.832416824, 96.390, 826.0, 28.7402
50.858677389, 96.390, 842.0, 29.0172
50.884937955, 96.390, 813.0, 28.5132
50.911198520, 96.390, 752.0, 27.4226
50.937459085, 96.390, 768.0, 27.7128
50.963719651, 96.390, 761.0, 27.5862
50.989980216, 96.390, 830.0, 28.8097
51.016240781, 96.390, 807.0, 28.4077
51.042501347, 96.390, 769.0, 27.7308
51.068761912, 96.390, 785.0, 28.0179
51.095022477, 96.390, 861.0, 29.3428
51.121283043, 96.390, 748.0, 27.3496
51.147543608, 96.390, 730.0, 27.0185
51.173804173, 96.390, 803.0, 28.3373
51.200064739, 96.390, 786.0, 28.0357
51.226325304, 96.390, 762.0, 27.6043
51.252585870, 96.390, 776.0, 27.8568
51.278846435, 96.390, 737.0, 27.1477
51.305107000, 96.390, 772.0, 27.7849
51.331367566, 96.390, 749.0, 27.3679
51.357628131, 96.390, 742.0, 27.2397
51.383888696, 96.390, 753.0, 27.4408
51.410149262, 96.390, 806.0, 28.3901
51.436409827, 96.390, 753.0, 27.4408
51.462670392, 96.390, 788.0, 28.0713
51.488930958, 96.390, 778.0, 27.8927
51.515191523, 96.390, 759.0, 27.5500
51.541452088, 96.390, 772.0, 27.7849
51.567712654, 96.390, 789.0, 28.0891
51.593973219, 96.390, 780.0, 27.9285
51.620233784, 96.390, 767.0, 27.6948
51.646494350, 96.390, 784.0, 28.0000
51.672754915, 96.390, 757.0, 27.5136
51.699015481, 96.390, 774.0, 27.8209
51.725276046, 96.390, 728.0, 26.9815
51.751536611, 96.390, 746.0, 27.3130
51.777797177, 96.390, 740.0, 27.2029
51.804057742, 96.390, 760.0, 27.5681
51.830318307, 96.390, 714.0, 26.7208
51.856578873, 96.390, 776.0, 27.8568
51.882839438, 96.390, 796.0, 28.2135
51.909100003, 96.390, 743.0, 27.2580
51.935360569, 96.390, 798.0, 28.2489
51.961621134, 96.390, 817.0, 28.5832
51.987881699, 96.390, 746.0, 27.3130
52.014142265, 96.390, 742.0, 27.2397
52.040402830, 96.390, 739.0, 27.1846
52.066663396, 96.390, 702.0, 26.4953
52.092923961, 96.390, 761.0, 27.5862
52.119184526, 96.390, 821.0, 28.6531
52.145445092, 96.390, 780.0, 27.9285
52.171705657, 96.390, 792.0, 28.1425
52.197966222, 96.390, 753.0, 27.4408
52.224226788, 96.390, 770.0, 27.7489
52.250487353, 96.390, 794.0, 28.1780
52.276747918, 96.390, 798.0, 28.2489
52.303008484, 96.390, 777.0, 27.8747
52.329269049, 96.390, 792.0, 28.1425
52.355529614, 96.390, 746.0, 27.3130
52.381790180, 96.390, 769.0, 27.7308
52.408050745, 96.390, 758.0, 27.5318
52.434311310, 96.390, 812.0, 28.4956
52.460571876, 96.390, 795.0, 28.1957
52.486832441, 96.390, 821.0, 28.6531
52.513093007, 96.390, 818.0, 28.6007
52.539353572, 96.390, 819.0, 28.6182
52.565614137, 96.390, 792.0, 28.1425
52.591874703, 96.390, 779.0, 27.9106
52.618135268, 96.390, 778.0, 27.8927
52.644395833, 96.390, 821.0, 28.6531
52.670656399, 96.390, 896.0, 29.9333
52.696916964, 96.390, 793.0, 28.1603
52.723177529, 96.390, 818.0, 28.6007
52.749438095, 96.390, 810.0, 28.4605
52.775698660, 96.390, 798.0, 28.2489
52.801959225, 96.390, 759.0, 27.5500
52.828219791, 96.390, 783.0, 27.9821
52.854480356, 96.390, 805.0, 28.3725
52.880740922, 96.390, 818.0, 28.6007
52.907001487, 96.390, 744.0, 27.2764
52.933262052, 96.390, 765.0, 27.6586
52.959522618, 96.390, 770.0, 27.7489
52.985783183, 96.390, 795.0, 28.1957
53.012043748, 96.390, 724.0, 26.9072
53.038304314, 96.390, 762.0, 27.6043
53.064564879, 96.390, 754.0, 27.4591
53.090825444, 96.390, 810.0, 28.4605
53.117086010, 96.390, 802.0, 28.3196
53.143346575, 96.390, 768.0, 27.7128
53.169607140, 96.390, 779.0, 27.9106
53.195867706, 96.390, 824.0, 28.7054
53.222128271, 96.390, 754.0, 27.4591
53.248388836, 96.390, 783.0, 27.9821
53.274649402, 96.390, 769.0, 27.7308
53.300909967, 96.390, 809.0, 28.4429
53.327170533, 96.390, 817.0, 28.5832
53.353431098, 96.390, 790.0, 28.1069
53.379691663, 96.390, 772.0, 27.7849
53.405952229, 96.390, 765.0, 27.6586
53.432212794, 96.390, 719.0, 26.8142
53.458473359, 96.390, 731.0, 27.0370
53.484733925, 96.390, 703.0, 26.5141
53.510994490, 96.390, 722.0, 26.8701
53.537255055, 96.390, 795.0, 28.1957
53.563515621, 96.390, 775.0, 27.8388
53.589776186, 96.390, 712.0, 26.6833
53.616036751, 96.390, 700.0, 26.4575
53.642297317, 96.390, 806.0, 28.3901
53.668557882, 96.390, 760.0, 27.5681
53.694818448, 96.390, 692.0, 26.3059
53.721079013, 96.390, 712.0, 26.6833
53.747339578, 96.390, 769.0, 27.7308
53.773600144, 96.390, 779.0, 27.9106
53.799860709, 96.390, 736.0, 27.1293
53.826121274, 96.390, 790.0, 28.1069
53.852381840, 96.390, 713.0, 26.7021
53.878642405, 96.390, 762.0, 27.6043
53.904902970, 96.390, 793.0, 28.1603
53.931163536, 96.390, 735.0, 27.1109
53.957424101, 96.390, 721.0, 26.8514
53.983684666, 96.390, 765.0, 27.6586
54.009945232, 96.390, 763.0, 27.6225
54.036205797, 96.390, 785.0, 28.0179
54.062466362, 96.390, 810.0, 28.4605
54.088726928, 96.390, 782.0, 27.9643
54.114987493, 96.390, 764.0, 27.6405
54.141248059, 96.390, 787.0, 28.0535
54.167508624, 96.390, 714.0, 26.7208
54.193769189, 96.390, 757.0, 27.5136
54.220029755, 96.390, 769.0, 27.7308
54.246290320, 96.390, 743.0, 27.2580
54.272550885, 96.390, 798.0, 28.2489
54.298811451, 96.390, 745.0, 27.2947
54.325072016, 96.390, 727.0, 26.9629
54.351332581, 96.390, 739.0, 27.1846
54.377593147, 96.390, 701.0, 26.4764
54.403853712, 96.390, 744.0, 27.2764
54.430114277, 96.390, 740.0, 27.2029
54.456374843, 96.390, 706.0, 26.5707
54.482635408, 96.390, 710.0, 26.6458
54.508895973, 96.390, 730.0, 27.0185
54.535156539, 96.390, 741.0, 27.2213
54.561417104, 96.390, 651.0, 25.5147
54.587677670, 96.390, 760.0, 27.5681
54.613938235, 96.390, 746.0, 27.3130
54.640198800, 96.390, 735.0, 27.1109
54.666459366, 96.390, 740.0, 27.2029
54.692719931, 96.390, 745.0, 27.2947
54.718980496, 96.390, 748.0, 27.3496
54.745241062, 96.390, 695.0, 26.3629
54.771501627, 96.390, 723.0, 26.8887
54.797762192, 96.390, 751.0, 27.4044
54.824022758, 96.390, 735.0, 27.1109
54.850283323, 96.390, 754.0, 27.4591
54.876543888, 96.390, 715.0, 26.7395
54.902804454, 96.390, 761.0, 27.5862
54.929065019, 96.390, 719.0, 26.8142
54.955325585, 96.390, 719.0, 26.8142
54.981586150, 96.390, 703.0, 26.5141
55.007846715, 96.390, 753.0, 27.4408
55.034107281, 96.390, 778.0, 27.8927
55.060367846, 96.390, 712.0, 26.6833
55.086628411, 96.390, 741.0, 27.2213
55.112888977, 96.390, 699.0, 26.4386
55.139149542, 96.390, 661.0, 25.7099
55.165410107, 96.390, 735.0, 27.1109
55.191670673, 96.390, 747.0, 27.3313
55.217931238, 96.390, 709.0, 26.6271
55.244191803, 96.390, 711.0, 26.6646
55.270452369, 96.390, 758.0, 27.5318
55.296712934, 96.390, 664.0, 25.7682
55.322973499, 96.390, 752.0, 27.4226
55.349234065, 96.390, 702.0, 26.4953
55.375494630, 96.390, 781.0, 27.9464
55.401755196, 96.390, 754.0, 27.4591
55.428015761, 96.390, 718.0, 26.7955
55.454276326, 96.390, 724.0, 26.9072
55.480536892, 96.390, 739.0, 27.1846
55.506797457, 96.390, 719.0, 26.8142
55.533058022, 96.390, 692.0, 26.3059
55.559318588, 96.390, 678.0, 26.0384
55.585579153, 96.390, 712.0, 26.6833
55.611839718, 96.390, 715.0, 26.7395
55.638100284, 96.390, 711.0, 26.6646
55.664360849, 96.390, 709.0, 26.6271
55.690621414, 96.390, 717.0, 26.7769
55.716881980, 96.390, 728.0, 26.9815
55.743142545, 96.390, 692.0, 26.3059
55.769403111, 96.390, 716.0, 26.7582
55.795663676, 96.390, 738.0, 27.1662
55.821924241, 96.390, 717.0, 26.7769
55.848184807, 96.390, 689.0, 26.2488
55.874445372, 96.390, 723.0, 26.8887
55.900705937, 96.390, 705.0, 26.5518
55.926966503, 96.390, 681.0, 26.0960
55.953227068, 96.390, 698.0, 26.4197
55.979487633, 96.390, 662.0, 25.7294
56.005748199, 96.390, 681.0, 26.0960
56.032008764, 96.390, 694.0, 26.3439
56.058269329, 96.390, 742.0, 27.2397
56.084529895, 96.390, 732.0, 27.0555
56.110790460, 96.390, 671.0, 25.9037
56.137051025, 96.390, 736.0, 27.1293
56.163311591, 96.390, 655.0, 25.5930
56.189572156, 96.390, 744.0, 27.2764
56.215832722, 96.390, 703.0, 26.5141
56.242093287, 96.390, 655.0, 25.5930
56.268353852, 96.390, 707.0, 26.5895
56.294614418, 96.390, 672.0, 25.9230
56.320874983, 96.390, 691.0, 26.2869
56.347135548, 96.390, 717.0, 26.7769
56.373396114, 96.390, 678.0, 26.0384
56.399656679, 96.390, 659.0, 25.6710
56.425917244, 96.390, 693.0, 26.3249
56.452177810, 96.390, 682.0, 26.1151
56.478438375, 96.390, 644.0, 25.3772
56.504698940, 96.390, 695.0, 26.3629
56.530959506, 96.390, 688.0, 26.2298
56.557220071, 96.390, 694.0, 26.3439
56.583480637, 96.390, 709.0, 26.6271
56.609741202, 96.390, 666.0, 25.8070
56.636001767, 96.390, 636.0, 25.2190
56.662262333, 96.390, 697.0, 26.4008
56.688522898, 96.390, 663.0, 25.7488
56.714783463, 96.390, 673.0, 25.9422
56.741044029, 96.390, 690.0, 26.2679
56.767304594, 96.390, 674.0, 25.9615
56.793565159, 96.390, 693.0, 26.3249
56.819825725, 96.390, 707.0, 26.5895
56.846086290, 96.390, 632.0, 25.1396
56.872346855, 96.390, 708.0, 26.6083
56.898607421, 96.390, 696.0, 26.3818
56.924867986, 96.390, 641.0, 25.3180
56.951128551, 96.390, 707.0, 26.5895
56.977389117, 96.390, 701.0, 26.4764
57.003649682, 96.390, 707.0, 26.5895
57.029910248, 96.390, 682.0, 26.1151
57.056170813, 96.390, 717.0, 26.7769
57.082431378, 96.390, 692.0, 26.3059
57.108691944, 96.390, 748.0, 27.3496
57.134952509, 96.390, 676.0, 26.0000
57.161213074, 96.390, 691.0, 26.2869
57.187473640, 96.390, 753.0, 27.4408
57.213734205, 96.390, 698.0, 26.4197
57.239994770, 96.390, 704.0, 26.5330
57.266255336, 96.390, 669.0, 25.8650
57.292515901, 96.390, 719.0, 26.8142
57.318776466, 96.390, 692.0, 26.3059
57.345037032, 96.390, 730.0, 27.0185
57.371297597, 96.390, 702.0, 26.4953
57.397558163, 96.390, 733.0, 27.0740
57.423818728, 96.390, 686.0, 26.1916
57.450079293, 96.390, 736.0, 27.1293
57.476339859, 96.390, 722.0, 26.8701
57.502600424, 96.390, 734.0, 27.0924
57.528860989, 96.390, 680.0, 26.0768
57.555121555, 96.390, 720.0, 26.8328
57.581382120, 96.390, 733.0, 27.0740
57.607642685, 96.390, 743.0, 27.2580
57.633903251, 96.390, 756.0, 27.4955
57.660163816, 96.390, 731.0, 27.0370
57.686424381, 96.390, 735.0, 27.1109
57.712684947, 96.390, 688.0, 26.2298
57.738945512, 96.390, 737.0, 27.1477
57.765206077, 96.390, 708.0, 26.6083
57.791466643, 96.390, 731.0, 27.0370
57.817727208, 96.390, 687.0, 26.2107
57.843987774, 96.390, 763.0, 27.6225
57.870248339, 96.390, 705.0, 26.5518
57.896508904, 96.390, 706.0, 26.5707
57.922769470, 96.390, 720.0, 26.8328
57.949030035, 96.390, 663.0, 25.7488
57.975290600, 96.390, 718.0, 26.7955
58.001551166, 96.390, 716.0, 26.7582
58.027811731, 96.390, 687.0, 26.2107
58.054072296, 96.390, 715.0, 26.7395
58.080332862, 96.390, 734.0, 27.0924
58.106593427, 96.390, 691.0, 26.2869
58.132853992, 96.390, 731.0, 27.0370
58.159114558, 96.390, 713.0, 26.7021
58.185375123, 96.390, 721.0, 26.8514
58.211635689, 96.390, 749.0, 27.3679
58.237896254, 96.390, 719.0, 26.8142
58.264156819, 96.390, 697.0, 26.4008
58.290417385, 96.390, 752.0, 27.4226
58.316677950, 96.390, 760.0, 27.5681
58.342938515, 96.390, 760.0, 27.5681
58.369199081, 96.390, 795.0, 28.1957
58.395459646, 96.390, 775.0, 27.8388
58.421720211, 96.390, 713.0, 26.7021
58.447980777, 96.390, 737.0, 27.1477
58.474241342, 96.390, 738.0, 27.1662
58.500501907, 96.390, 726.0, 26.9444
58.526762473, 96.390, 796.0, 28.2135
58.553023038, 96.390, 786.0, 28.0357
58.579283603, 96.390, 758.0, 27.5318
58.605544169, 96.390, 755.0, 27.4773
58.631804734, 96.390, 810.0, 28.4605
58.658065300, 96.390, 743.0, 27.2580
58.684325865, 96.390, 823.0, 28.6880
58.710586430, 96.390, 829.0, 28.7924
58.736846996, 96.390, 788.0, 28.0713
58.763107561, 96.390, 797.0, 28.2312
58.789368126, 96.390, 833.0, 28.8617
58.815628692, 96.390, 802.0, 28.3196
58.841889257, 96.390, 815.0, 28.5482
58.868149822, 96.390, 811.0, 28.4781
58.894410388, 96.390, 800.0, 28.2843
58.920670953, 96.390, 857.0, 29.2746
58.946931518, 96.390, 860.0, 29.3258
58.973192084, 96.390, 822.0, 28.6705
58.999452649, 96.390, 879.0, 29.6479
59.025713214, 96.390, 929.0, 30.4795
59.051973780, 96.390, 845.0, 29.0689
59.078234345, 96.390, 950.0, 30.8221
59.104494911, 96.390, 840.0, 28.9828
59.130755476, 96.390, 877.0, 29.6142
59.157016041, 96.390, 976.0, 31.2410
59.183276607, 96.390, 880.0, 29.6648
59.209537172, 96.390, 903.0, 30.0500
59.235797737, 96.390, 990.0, 31.4643
59.262058303, 96.390, 955.0, 30.9031
59.288318868, 96.390, 966.0, 31.0805
59.314579433, 96.390, 991.0, 31.4802
59.340839999, 96.390, 1035.0, 32.1714
59.367100564, 96.390, 1008.0, 31.7490
59.393361129, 96.390, 1100.0, 33.1662
59.419621695, 96.390, 1021.0, 31.9531
59.445882260, 96.390, 1069.0, 32.6956
59.472142826, 96.390, 1094.0, 33.0757
59.498403391, 96.390, 1038.0, 32.2180
59.524663956, 96.390, 1109.0, 33.3017
59.550924522, 96.390, 1211.0, 34.7994
59.577185087, 96.390, 1116.0, 33.4066
59.603445652, 96.390, 1162.0, 34.0881
59.629706218, 96.390, 1149.0, 33.8969
59.655966783, 96.390, 1203.0, 34.6843
59.682227348, 96.390, 1229.0, 35.0571
59.708487914, 96.390, 1181.0, 34.3657
59.734748479, 96.390, 1277.0, 35.7351
59.761009044, 96.390, 1201.0, 34.6554
59.787269610, 96.390, 1251.0, 35.3695
59.813530175, 96.390, 1354.0, 36.7967
59.839790740, 96.390, 1272.0, 35.6651
59.866051306, 96.390, 1296.0, 36.0000
59.892311871, 96.390, 1295.0, 35.9861
59.918572437, 96.390, 1333.0, 36.5103
59.944833002, 96.390, 1312.0, 36.2215
59.971093567, 96.390, 1404.0, 37.4700
59.997354133, 96.390, 1337.0, 36.5650
60.023614698, 96.390, 1408.0, 37.5233
60.049875263, 96.390, 1480.0, 38.4708
60.076135829, 96.390, 1417.0, 37.6431
60.102396394, 96.390, 1509.0, 38.8458
60.128656959, 96.390, 1487.0, 38.5616
60.154917525, 96.390, 1489.0, 38.5876
60.181178090, 96.390, 1502.0, 38.7556
60.207438655, 96.390, 1526.0, 39.0640
60.233699221, 96.390, 1494.0, 38.6523
60.259959786, 96.390, 1452.0, 38.1051
60.286220352, 96.390, 1516.0, 38.9358
60.312480917, 96.390, 1593.0, 39.9124
60.338741482, 96.390, 1516.0, 38.9358
60.365002048, 96.390, 1495.0, 38.6652
60.391262613, 96.390, 1478.0, 38.4448
60.417523178, 96.390, 1621.0, 40.2616
60.443783744, 96.390, 1566.0, 39.5727
60.470044309, 96.390, 1537.0, 39.2046
60.496304874, 96.390, 1451.0, 38.0920
60.522565440, 96.390, 1463.0, 38.2492
60.548826005, 96.390, 1482.0, 38.4968
60.575086570, 96.390, 1532.0, 39.1408
60.601347136, 96.390, 1424.0, 37.7359
60.627607701, 96.390, 1406.0, 37.4967
60.653868266, 96.390, 1429.0, 37.8021
60.680128832, 96.390, 1338.0, 36.5787
60.706389397, 96.390, 1401.0, 37.4299
60.732649963, 96.390, 1389.0, 37.2693
60.758910528, 96.390, 1363.0, 36.9188
60.785171093, 96.390, 1357.0, 36.8375
60.811431659, 96.390, 1297.0, 36.0139
60.837692224, 96.390, 1303.0, 36.0971
60.863952789, 96.390, 1346.0, 36.6879
60.890213355, 96.390, 1284.0, 35.8329
60.916473920, 96.390, 1319.0, 36.3180
60.942734485, 96.390, 1318.0, 36.3043
60.968995051, 96.390, 1248.0, 35.3270
60.995255616, 96.390, 1233.0, 35.1141
61.021516181, 96.390, 1200.0, 34.6410
61.047776747, 96.390, 1246.0, 35.2987
61.074037312, 96.390, 1249.0, 35.3412
61.100297878, 96.390, 1258.0, 35.4683
61.126558443, 96.390, 1179.0, 34.3366
61.152819008, 96.390, 1182.0, 34.3802
61.179079574, 96.390, 1192.0, 34.5254
61.205340139, 96.390, 1188.0, 34.4674
61.231600704, 96.390, 1133.0, 33.6601
61.257861270, 96.390, 1148.0, 33.8821
61.284121835, 96.390, 1122.0, 33.4963
61.310382400, 96.390, 1142.0, 33.7935
61.336642966, 96.390, 1047.0, 32.3574
61.362903531, 96.390, 1128.0, 33.5857
61.389164096, 96.390, 1109.0, 33.3017
61.415424662, 96.390, 1152.0, 33.9411
61.441685227, 96.390, 1104.0, 33.2265
61.467945792, 96.390, 1073.0, 32.7567
61.494206358, 96.390, 1066.0, 32.6497
61.520466923, 96.390, 1058.0, 32.5269
61.546727489, 96.390, 1081.0, 32.8786
61.572988054, 96.390, 1125.0, 33.5410
61.599248619, 96.390, 1058.0, 32.5269
61.625509185, 96.390, 1097.0, 33.1210
61.651769750, 96.390, 1060.0, 32.5576
61.678030315, 96.390, 1061.0, 32.5730
61.704290881, 96.390, 1021.0, 31.9531
61.730551446, 96.390, 1058.0, 32.5269
61.756812011, 96.390, 1050.0, 32.4037
61.783072577, 96.390, 1005.0, 31.7017
61.809333142, 96.390, 983.0, 31.3528
61.835593707, 96.390, 1005.0, 31.7017
61.861854273, 96.390, 984.0, 31.3688
61.888114838, 96.390, 1003.0, 31.6702
61.914375404, 96.390, 976.0, 31.2410
61.940635969, 96.390, 962.0, 31.0161
61.966896534, 96.390, 987.0, 31.4166
61.993157100, 96.390, 942.0, 30.6920
62.019417665, 96.390, 931.0, 30.5123
62.045678230, 96.390, 970.0, 31.1448
62.071938796, 96.390, 915.0, 30.2490
62.098199361, 96.390, 893.0, 29.8831
62.124459926, 96.390, 892.0, 29.8664
62.150720492, 96.390, 884.0, 29.7321
62.176981057, 96.390, 926.0, 30.4302
62.203241622, 96.390, 857.0, 29.2746
62.229502188, 96.390, 880.0, 29.6648
62.255762753, 96.390, 855.0, 29.2404
62.282023318, 96.390, 844.0, 29.0517
62.308283884, 96.390, 822.0, 28.6705
62.334544449, 96.390, 843.0, 29.0345
62.360805015, 96.390, 851.0, 29.1719
62.387065580, 96.390, 833.0, 28.8617
62.413326145, 96.390, 811.0, 28.4781
62.439586711, 96.390, 825.0, 28.7228
62.465847276, 96.390, 815.0, 28.5482
62.492107841, 96.390, 803.0, 28.3373
62.518368407, 96.390, 758.0, 27.5318
62.544628972, 96.390, 803.0, 28.3373
62.570889537, 96.390, 785.0, 28.0179
62.597150103, 96.390, 778.0, 27.8927
62.623410668, 96.390, 769.0, 27.7308
62.649671233, 96.390, 738.0, 27.1662
62.675931799, 96.390, 734.0, 27.0924
62.702192364, 96.390, 723.0, 26.8887
62.728452930, 96.390, 721.0, 26.8514
62.754713495, 96.390, 685.0, 26.1725
62.780974060, 96.390, 748.0, 27.3496
62.807234626, 96.390, 720.0, 26.8328
62.833495191, 96.390, 765.0, 27.6586
62.859755756, 96.390, 771.0, 27.7669
62.886016322, 96.390, 763.0, 27.6225
62.912276887, 96.390, 648.0, 25.4558
62.938537452, 96.390, 721.0, 26.8514
62.964798018, 96.390, 672.0, 25.9230
62.991058583, 96.390, 656.0, 25.6125
63.017319148, 96.390, 689.0, 26.2488
63.043579714, 96.390, 703.0, 26.5141
63.069840279, 96.390, 714.0, 26.7208
63.096100844, 96.390, 685.0, 26.1725
63.122361410, 96.390, 709.0, 26.6271
63.148621975, 96.390, 660.0, 25.6905
63.174882541, 96.390, 709.0, 26.6271
63.201143106, 96.390, 732.0, 27.0555
63.227403671, 96.390, 704.0, 26.5330
63.253664237, 96.390, 710.0, 26.6458
63.279924802, 96.390, 686.0, 26.1916
63.306185367, 96.390, 695.0, 26.3629
63.332445933, 96.390, 733.0, 27.0740
63.358706498, 96.390, 649.0, 25.4755
63.384967063, 96.390, 705.0, 26.5518
63.411227629, 96.390, 661.0, 25.7099
63.437488194, 96.390, 681.0, 26.0960
63.463748759, 96.390, 655.0, 25.5930
63.490009325, 96.390, 707.0, 26.5895
63.516269890, 96.390, 677.0, 26.0192
63.542530455, 96.390, 689.0, 26.2488
63.568791021, 96.390, 664.0, 25.7682
63.595051586, 96.390, 673.0, 25.9422
63.621312152, 96.390, 663.0, 25.7488
63.647572717, 96.390, 639.0, 25.2784
63.673833282, 96.390, 639.0, 25.2784
63.700093848, 96.390, 608.0, 24.6577
63.726354413, 96.390, 601.0, 24.5153
63.752614978, 96.390, 614.0, 24.7790
63.778875544, 96.390, 645.0, 25.3969
63.805136109, 96.390, 610.0, 24.6982
63.831396674, 96.390, 641.0, 25.3180
63.857657240, 96.390, 630.0, 25.0998
63.883917805, 96.390, 646.0, 25.4165
63.910178370, 96.390, 632.0, 25.1396
63.936438936, 96.390, 651.0, 25.5147
63.962699501, 96.390, 611.0, 24.7184
63.988960067, 96.390, 671.0, 25.9037
64.015220632, 96.390, 644.0, 25.3772
64.041481197, 96.390, 596.0, 24.4131
64.067741763, 96.390, 602.0, 24.5357
64.094002328, 96.390, 668.0, 25.8457
64.120262893, 96.390, 640.0, 25.2982
64.146523459, 96.390, 605.0, 24.5967
64.172784024, 96.390, 620.0, 24.8998
64.199044589, 96.390, 607.0, 24.6374
64.225305155, 96.390, 625.0, 25.0000
64.251565720, 96.390, 623.0, 24.9600
64.277826285, 96.390, 605.0, 24.5967
64.304086851, 96.390, 551.0, 23.4734
64.330347416, 96.390, 617.0, 24.8395
64.356607981, 96.390, 605.0, 24.5967
64.382868547, 96.390, 606.0, 24.6171
64.409129112, 96.390, 619.0, 24.8797
64.435389678, 96.390, 579.0, 24.0624
64.461650243, 96.390, 668.0, 25.8457
64.487910808, 96.390, 590.0, 24.2899
64.514171374, 96.390, 604.0, 24.5764
64.540431939, 96.390, 576.0, 24.0000
64.566692504, 96.390, 638.0, 25.2587
64.592953070, 96.390, 556.0, 23.5797
64.619213635, 96.390, 571.0, 23.8956
64.645474200, 96.390, 560.0, 23.6643
64.671734766, 96.390, 608.0, 24.6577
64.697995331, 96.390, 603.0, 24.5561
64.724255896, 96.390, 577.0, 24.0208
64.750516462, 96.390, 578.0, 24.0416
64.776777027, 96.390, 579.0, 24.0624
64.803037593, 96.390, 612.0, 24.7386
64.829298158, 96.390, 618.0, 24.8596
64.855558723, 96.390, 592.0, 24.3311
64.881819289, 96.390, 574.0, 23.9583
64.908079854, 96.390, 559.0, 23.6432
64.934340419, 96.390, 625.0, 25.0000
64.960600985, 96.390, 641.0, 25.3180
64.986861550, 96.390, 616.0, 24.8193
