[Measurement conditions]
Sample identification,148_PO4Free14Apr22_Act16Nov22_B1_1000M_NaOH_LS0133
Comment - 1,"Configuration=Stage for Flat Samples/Holders, Owner=User-1, Creation date=7/1/2020 9:53:24 AM"
Comment - 2,"Goniometer=Theta/Theta; Minimum step size 2Theta:0.0001; Minimum step size Omega:0.0001"
Comment - 3,"Sample stage=Stage for flat samples/holders"
Comment - 4,"Diffractometer system=EMPYREAN"
Comment - 5,"Measurement program=C:\Users\tmr79\OneDrive - The Pennsylvania State University\Documents\NEUP\XRD\Cement\Zerobackground scan.xrdmp, Identifier={98A3B11C-88F9-4AA6-982C-73314A311EF5}"
Anode material,Cu
K-Alpha1 wavelength,1.5405980
K-Alpha2 wavelength,1.5444260
Ratio K-Alpha2/K-Alpha1,0.500
Divergence slit,Fixed,0.25
Monochromator used,NO
Generator voltage, 45
Tube current, 40
File date and time,03/Apr/2023 11:55
Unit cell,
h k l, 0 0 0
Scan axis,Gonio
Scan range,4.994599997,64.999991833
Scan step size,0.0262606
No. of points, 2285
Scan type,CONTINUOUS
Time per step,96.390
[Scan points]
Angle, TimePerStep, Intensity, ESD
5.007730280, 96.390, 4997.0, 70.6895
5.033990845, 96.390, 4992.0, 70.6541
5.060251411, 96.390, 4941.0, 70.2922
5.086511976, 96.390, 4883.0, 69.8785
5.112772541, 96.390, 4981.0, 70.5762
5.139033107, 96.390, 4889.0, 69.9214
5.165293672, 96.390, 4776.0, 69.1086
5.191554237, 96.390, 4723.0, 68.7241
5.217814803, 96.390, 4891.0, 69.9357
5.244075368, 96.390, 4781.0, 69.1448
5.270335934, 96.390, 4612.0, 67.9117
5.296596499, 96.390, 4538.0, 67.3647
5.322857064, 96.390, 4621.0, 67.9779
5.349117630, 96.390, 4617.0, 67.9485
5.375378195, 96.390, 4582.0, 67.6905
5.401638760, 96.390, 4593.0, 67.7717
5.427899326, 96.390, 4597.0, 67.8012
5.454159891, 96.390, 4470.0, 66.8581
5.480420456, 96.390, 4474.0, 66.8880
5.506681022, 96.390, 4545.0, 67.4166
5.532941587, 96.390, 4368.0, 66.0908
5.559202152, 96.390, 4344.0, 65.9090
5.585462718, 96.390, 4453.0, 66.7308
5.611723283, 96.390, 4248.0, 65.1767
5.637983849, 96.390, 4344.0, 65.9090
5.664244414, 96.390, 4279.0, 65.4141
5.690504979, 96.390, 4330.0, 65.8027
5.716765545, 96.390, 4254.0, 65.2227
5.743026110, 96.390, 4210.0, 64.8845
5.769286675, 96.390, 4271.0, 65.3529
5.795547241, 96.390, 4007.0, 63.3009
5.821807806, 96.390, 4272.0, 65.3605
5.848068371, 96.390, 4136.0, 64.3117
5.874328937, 96.390, 4164.0, 64.5291
5.900589502, 96.390, 4178.0, 64.6375
5.926850067, 96.390, 4233.0, 65.0615
5.953110633, 96.390, 4188.0, 64.7148
5.979371198, 96.390, 4030.0, 63.4823
6.005631763, 96.390, 4209.0, 64.8768
6.031892329, 96.390, 4034.0, 63.5138
6.058152894, 96.390, 4072.0, 63.8122
6.084413460, 96.390, 4060.0, 63.7181
6.110674025, 96.390, 4012.0, 63.3404
6.136934590, 96.390, 4007.0, 63.3009
6.163195156, 96.390, 3905.0, 62.4900
6.189455721, 96.390, 3976.0, 63.0555
6.215716286, 96.390, 3916.0, 62.5780
6.241976852, 96.390, 4050.0, 63.6396
6.268237417, 96.390, 3861.0, 62.1369
6.294497982, 96.390, 3765.0, 61.3596
6.320758548, 96.390, 3850.0, 62.0484
6.347019113, 96.390, 3931.0, 62.6977
6.373279678, 96.390, 3797.0, 61.6198
6.399540244, 96.390, 3881.0, 62.2977
6.425800809, 96.390, 3956.0, 62.8967
6.452061375, 96.390, 3883.0, 62.3137
6.478321940, 96.390, 3845.0, 62.0081
6.504582505, 96.390, 3791.0, 61.5711
6.530843071, 96.390, 3777.0, 61.4573
6.557103636, 96.390, 3870.0, 62.2093
6.583364201, 96.390, 3756.0, 61.2862
6.609624767, 96.390, 3658.0, 60.4814
6.635885332, 96.390, 3890.0, 62.3699
6.662145897, 96.390, 3678.0, 60.6465
6.688406463, 96.390, 3738.0, 61.1392
6.714667028, 96.390, 3709.0, 60.9016
6.740927593, 96.390, 3690.0, 60.7454
6.767188159, 96.390, 3770.0, 61.4003
6.793448724, 96.390, 3636.0, 60.2993
6.819709289, 96.390, 3651.0, 60.4235
6.845969855, 96.390, 3636.0, 60.2993
6.872230420, 96.390, 3626.0, 60.2163
6.898490986, 96.390, 3598.0, 59.9833
6.924751551, 96.390, 3545.0, 59.5399
6.951012116, 96.390, 3637.0, 60.3075
6.977272682, 96.390, 3619.0, 60.1581
7.003533247, 96.390, 3550.0, 59.5819
7.029793812, 96.390, 3553.0, 59.6070
7.056054378, 96.390, 3528.0, 59.3970
7.082314943, 96.390, 3497.0, 59.1354
7.108575508, 96.390, 3623.0, 60.1914
7.134836074, 96.390, 3524.0, 59.3633
7.161096639, 96.390, 3546.0, 59.5483
7.187357204, 96.390, 3462.0, 58.8388
7.213617770, 96.390, 3426.0, 58.5320
7.239878335, 96.390, 3490.0, 59.0762
7.266138900, 96.390, 3510.0, 59.2453
7.292399466, 96.390, 3424.0, 58.5150
7.318660031, 96.390, 3495.0, 59.1185
7.344920597, 96.390, 3529.0, 59.4054
7.371181162, 96.390, 3498.0, 59.1439
7.397441727, 96.390, 3496.0, 59.1270
7.423702293, 96.390, 3472.0, 58.9237
7.449962858, 96.390, 3403.0, 58.3352
7.476223423, 96.390, 3295.0, 57.4021
7.502483989, 96.390, 3439.0, 58.6430
7.528744554, 96.390, 3419.0, 58.4722
7.555005119, 96.390, 3397.0, 58.2838
7.581265685, 96.390, 3317.0, 57.5934
7.607526250, 96.390, 3399.0, 58.3009
7.633786815, 96.390, 3458.0, 58.8048
7.660047381, 96.390, 3288.0, 57.3411
7.686307946, 96.390, 3313.0, 57.5587
7.712568512, 96.390, 3366.0, 58.0172
7.738829077, 96.390, 3365.0, 58.0086
7.765089642, 96.390, 3323.0, 57.6455
7.791350208, 96.390, 3362.0, 57.9828
7.817610773, 96.390, 3367.0, 58.0259
7.843871338, 96.390, 3320.0, 57.6194
7.870131904, 96.390, 3338.0, 57.7754
7.896392469, 96.390, 3311.0, 57.5413
7.922653034, 96.390, 3378.0, 58.1206
7.948913600, 96.390, 3376.0, 58.1034
7.975174165, 96.390, 3160.0, 56.2139
8.001434730, 96.390, 3286.0, 57.3236
8.027695296, 96.390, 3195.0, 56.5243
8.053955861, 96.390, 3313.0, 57.5587
8.080216426, 96.390, 3281.0, 57.2800
8.106476992, 96.390, 3298.0, 57.4282
8.132737557, 96.390, 3130.0, 55.9464
8.158998123, 96.390, 3223.0, 56.7715
8.185258688, 96.390, 3330.0, 57.7062
8.211519253, 96.390, 3133.0, 55.9732
8.237779819, 96.390, 3178.0, 56.3738
8.264040384, 96.390, 3129.0, 55.9375
8.290300949, 96.390, 3277.0, 57.2451
8.316561515, 96.390, 3183.0, 56.4181
8.342822080, 96.390, 3254.0, 57.0438
8.369082645, 96.390, 3280.0, 57.2713
8.395343211, 96.390, 3224.0, 56.7803
8.421603776, 96.390, 3119.0, 55.8480
8.447864341, 96.390, 3219.0, 56.7362
8.474124907, 96.390, 3118.0, 55.8391
8.500385472, 96.390, 3166.0, 56.2672
8.526646038, 96.390, 3206.0, 56.6216
8.552906603, 96.390, 3132.0, 55.9643
8.579167168, 96.390, 3085.0, 55.5428
8.605427734, 96.390, 3212.0, 56.6745
8.631688299, 96.390, 3151.0, 56.1338
8.657948864, 96.390, 3230.0, 56.8331
8.684209430, 96.390, 3158.0, 56.1961
8.710469995, 96.390, 3182.0, 56.4092
8.736730560, 96.390, 3052.0, 55.2449
8.762991126, 96.390, 3064.0, 55.3534
8.789251691, 96.390, 3140.0, 56.0357
8.815512256, 96.390, 3092.0, 55.6058
8.841772822, 96.390, 3079.0, 55.4887
8.868033387, 96.390, 3138.0, 56.0179
8.894293952, 96.390, 3170.0, 56.3028
8.920554518, 96.390, 3118.0, 55.8391
8.946815083, 96.390, 3129.0, 55.9375
8.973075649, 96.390, 3139.0, 56.0268
8.999336214, 96.390, 3036.0, 55.0999
9.025596779, 96.390, 3011.0, 54.8726
9.051857345, 96.390, 3111.0, 55.7763
9.078117910, 96.390, 3159.0, 56.2050
9.104378475, 96.390, 3066.0, 55.3715
9.130639041, 96.390, 3094.0, 55.6237
9.156899606, 96.390, 3029.0, 55.0364
9.183160171, 96.390, 3055.0, 55.2721
9.209420737, 96.390, 3051.0, 55.2359
9.235681302, 96.390, 3038.0, 55.1181
9.261941867, 96.390, 3131.0, 55.9553
9.288202433, 96.390, 3002.0, 54.7905
9.314462998, 96.390, 3137.0, 56.0089
9.340723564, 96.390, 3029.0, 55.0364
9.366984129, 96.390, 3062.0, 55.3353
9.393244694, 96.390, 3156.0, 56.1783
9.419505260, 96.390, 2999.0, 54.7631
9.445765825, 96.390, 3080.0, 55.4977
9.472026390, 96.390, 3058.0, 55.2992
9.498286956, 96.390, 3006.0, 54.8270
9.524547521, 96.390, 3100.0, 55.6776
9.550808086, 96.390, 3067.0, 55.3805
9.577068652, 96.390, 3075.0, 55.4527
9.603329217, 96.390, 3043.0, 55.1634
9.629589782, 96.390, 3148.0, 56.1070
9.655850348, 96.390, 2992.0, 54.6992
9.682110913, 96.390, 3148.0, 56.1070
9.708371478, 96.390, 3110.0, 55.7674
9.734632044, 96.390, 3036.0, 55.0999
9.760892609, 96.390, 2975.0, 54.5436
9.787153175, 96.390, 3135.0, 55.9911
9.813413740, 96.390, 3060.0, 55.3173
9.839674305, 96.390, 3105.0, 55.7225
9.865934871, 96.390, 3054.0, 55.2630
9.892195436, 96.390, 3096.0, 55.6417
9.918456001, 96.390, 3010.0, 54.8635
9.944716567, 96.390, 3081.0, 55.5068
9.970977132, 96.390, 3087.0, 55.5608
9.997237697, 96.390, 3058.0, 55.2992
10.023498263, 96.390, 3024.0, 54.9909
10.049758828, 96.390, 3105.0, 55.7225
10.076019393, 96.390, 3031.0, 55.0545
10.102279959, 96.390, 3052.0, 55.2449
10.128540524, 96.390, 3195.0, 56.5243
10.154801090, 96.390, 2983.0, 54.6168
10.181061655, 96.390, 2999.0, 54.7631
10.207322220, 96.390, 3067.0, 55.3805
10.233582786, 96.390, 3127.0, 55.9196
10.259843351, 96.390, 3094.0, 55.6237
10.286103916, 96.390, 3048.0, 55.2087
10.312364482, 96.390, 3000.0, 54.7723
10.338625047, 96.390, 3120.0, 55.8570
10.364885612, 96.390, 3197.0, 56.5420
10.391146178, 96.390, 3111.0, 55.7763
10.417406743, 96.390, 2963.0, 54.4334
10.443667308, 96.390, 2991.0, 54.6900
10.469927874, 96.390, 3136.0, 56.0000
10.496188439, 96.390, 3030.0, 55.0454
10.522449004, 96.390, 3166.0, 56.2672
10.548709570, 96.390, 3191.0, 56.4889
10.574970135, 96.390, 3126.0, 55.9106
10.601230701, 96.390, 3157.0, 56.1872
10.627491266, 96.390, 3161.0, 56.2228
10.653751831, 96.390, 3086.0, 55.5518
10.680012397, 96.390, 3228.0, 56.8155
10.706272962, 96.390, 3169.0, 56.2939
10.732533527, 96.390, 3304.0, 57.4804
10.758794093, 96.390, 3182.0, 56.4092
10.785054658, 96.390, 3307.0, 57.5065
10.811315223, 96.390, 3320.0, 57.6194
10.837575789, 96.390, 3318.0, 57.6021
10.863836354, 96.390, 3408.0, 58.3781
10.890096919, 96.390, 3625.0, 60.2080
10.916357485, 96.390, 3500.0, 59.1608
10.942618050, 96.390, 3367.0, 58.0259
10.968878616, 96.390, 3552.0, 59.5987
10.995139181, 96.390, 3566.0, 59.7160
11.021399746, 96.390, 3578.0, 59.8164
11.047660312, 96.390, 3832.0, 61.9032
11.073920877, 96.390, 3839.0, 61.9597
11.100181442, 96.390, 3889.0, 62.3618
11.126442008, 96.390, 3981.0, 63.0952
11.152702573, 96.390, 4000.0, 63.2456
11.178963138, 96.390, 4113.0, 64.1327
11.205223704, 96.390, 4360.0, 66.0303
11.231484269, 96.390, 4425.0, 66.5207
11.257744834, 96.390, 4456.0, 66.7533
11.284005400, 96.390, 4765.0, 69.0290
11.310265965, 96.390, 5066.0, 71.1758
11.336526530, 96.390, 5148.0, 71.7496
11.362787096, 96.390, 5341.0, 73.0821
11.389047661, 96.390, 5656.0, 75.2064
11.415308227, 96.390, 5763.0, 75.9144
11.441568792, 96.390, 5934.0, 77.0325
11.467829357, 96.390, 6250.0, 79.0569
11.494089923, 96.390, 6338.0, 79.6116
11.520350488, 96.390, 6384.0, 79.8999
11.546611053, 96.390, 6477.0, 80.4798
11.572871619, 96.390, 6500.0, 80.6226
11.599132184, 96.390, 6688.0, 81.7802
11.625392749, 96.390, 6630.0, 81.4248
11.651653315, 96.390, 6405.0, 80.0312
11.677913880, 96.390, 6278.0, 79.2338
11.704174445, 96.390, 6075.0, 77.9423
11.730435011, 96.390, 5479.0, 74.0203
11.756695576, 96.390, 5316.0, 72.9109
11.782956141, 96.390, 5166.0, 71.8749
11.809216707, 96.390, 4832.0, 69.5126
11.835477272, 96.390, 4635.0, 68.0808
11.861737838, 96.390, 4375.0, 66.1438
11.887998403, 96.390, 4437.0, 66.6108
11.914258968, 96.390, 4230.0, 65.0385
11.940519534, 96.390, 4192.0, 64.7457
11.966780099, 96.390, 3874.0, 62.2415
11.993040664, 96.390, 3784.0, 61.5142
12.019301230, 96.390, 3679.0, 60.6548
12.045561795, 96.390, 3567.0, 59.7244
12.071822360, 96.390, 3611.0, 60.0916
12.098082926, 96.390, 3393.0, 58.2495
12.124343491, 96.390, 3408.0, 58.3781
12.150604056, 96.390, 3250.0, 57.0088
12.176864622, 96.390, 3196.0, 56.5332
12.203125187, 96.390, 3178.0, 56.3738
12.229385753, 96.390, 3094.0, 55.6237
12.255646318, 96.390, 3016.0, 54.9181
12.281906883, 96.390, 3035.0, 55.0908
12.308167449, 96.390, 2872.0, 53.5910
12.334428014, 96.390, 2929.0, 54.1202
12.360688579, 96.390, 2896.0, 53.8145
12.386949145, 96.390, 2845.0, 53.3385
12.413209710, 96.390, 2786.0, 52.7826
12.439470275, 96.390, 2734.0, 52.2877
12.465730841, 96.390, 2771.0, 52.6403
12.491991406, 96.390, 2788.0, 52.8015
12.518251971, 96.390, 2668.0, 51.6527
12.544512537, 96.390, 2691.0, 51.8748
12.570773102, 96.390, 2635.0, 51.3323
12.597033667, 96.390, 2711.0, 52.0673
12.623294233, 96.390, 2691.0, 51.8748
12.649554798, 96.390, 2576.0, 50.7543
12.675815364, 96.390, 2545.0, 50.4480
12.702075929, 96.390, 2529.0, 50.2892
12.728336494, 96.390, 2499.0, 49.9900
12.754597060, 96.390, 2575.0, 50.7445
12.780857625, 96.390, 2526.0, 50.2593
12.807118190, 96.390, 2583.0, 50.8232
12.833378756, 96.390, 2565.0, 50.6458
12.859639321, 96.390, 2487.0, 49.8698
12.885899886, 96.390, 2387.0, 48.8569
12.912160452, 96.390, 2477.0, 49.7695
12.938421017, 96.390, 2412.0, 49.1121
12.964681582, 96.390, 2454.0, 49.5379
12.990942148, 96.390, 2408.0, 49.0714
13.017202713, 96.390, 2346.0, 48.4355
13.043463279, 96.390, 2503.0, 50.0300
13.069723844, 96.390, 2489.0, 49.8899
13.095984409, 96.390, 2391.0, 48.8979
13.122244975, 96.390, 2342.0, 48.3942
13.148505540, 96.390, 2356.0, 48.5386
13.174766105, 96.390, 2325.0, 48.2183
13.201026671, 96.390, 2410.0, 49.0918
13.227287236, 96.390, 2291.0, 47.8644
13.253547801, 96.390, 2417.0, 49.1630
13.279808367, 96.390, 2429.0, 49.2849
13.306068932, 96.390, 2328.0, 48.2494
13.332329497, 96.390, 2307.0, 48.0312
13.358590063, 96.390, 2365.0, 48.6313
13.384850628, 96.390, 2283.0, 47.7807
13.411111193, 96.390, 2346.0, 48.4355
13.437371759, 96.390, 2302.0, 47.9792
13.463632324, 96.390, 2261.0, 47.5500
13.489892890, 96.390, 2205.0, 46.9574
13.516153455, 96.390, 2353.0, 48.5077
13.542414020, 96.390, 2292.0, 47.8748
13.568674586, 96.390, 2301.0, 47.9687
13.594935151, 96.390, 2241.0, 47.3392
13.621195716, 96.390, 2321.0, 48.1768
13.647456282, 96.390, 2269.0, 47.6340
13.673716847, 96.390, 2256.0, 47.4974
13.699977412, 96.390, 2307.0, 48.0312
13.726237978, 96.390, 2311.0, 48.0729
13.752498543, 96.390, 2169.0, 46.5725
13.778759108, 96.390, 2124.0, 46.0869
13.805019674, 96.390, 2132.0, 46.1736
13.831280239, 96.390, 2220.0, 47.1169
13.857540805, 96.390, 2149.0, 46.3573
13.883801370, 96.390, 2220.0, 47.1169
13.910061935, 96.390, 2229.0, 47.2123
13.936322501, 96.390, 2049.0, 45.2659
13.962583066, 96.390, 2177.0, 46.6583
13.988843631, 96.390, 2189.0, 46.7868
14.015104197, 96.390, 2157.0, 46.4435
14.041364762, 96.390, 2145.0, 46.3141
14.067625327, 96.390, 2175.0, 46.6369
14.093885893, 96.390, 2176.0, 46.6476
14.120146458, 96.390, 2099.0, 45.8148
14.146407023, 96.390, 2136.0, 46.2169
14.172667589, 96.390, 2081.0, 45.6180
14.198928154, 96.390, 2051.0, 45.2880
14.225188719, 96.390, 2151.0, 46.3789
14.251449285, 96.390, 2141.0, 46.2709
14.277709850, 96.390, 2080.0, 45.6070
14.303970416, 96.390, 2052.0, 45.2990
14.330230981, 96.390, 2080.0, 45.6070
14.356491546, 96.390, 2030.0, 45.0555
14.382752112, 96.390, 2052.0, 45.2990
14.409012677, 96.390, 2092.0, 45.7384
14.435273242, 96.390, 2098.0, 45.8039
14.461533808, 96.390, 2130.0, 46.1519
14.487794373, 96.390, 2142.0, 46.2817
14.514054938, 96.390, 2191.0, 46.8081
14.540315504, 96.390, 2049.0, 45.2659
14.566576069, 96.390, 2140.0, 46.2601
14.592836634, 96.390, 2154.0, 46.4112
14.619097200, 96.390, 2060.0, 45.3872
14.645357765, 96.390, 2101.0, 45.8367
14.671618331, 96.390, 2157.0, 46.4435
14.697878896, 96.390, 2112.0, 45.9565
14.724139461, 96.390, 2106.0, 45.8912
14.750400027, 96.390, 2131.0, 46.1628
14.776660592, 96.390, 2064.0, 45.4313
14.802921157, 96.390, 2071.0, 45.5082
14.829181723, 96.390, 2142.0, 46.2817
14.855442288, 96.390, 2037.0, 45.1331
14.881702853, 96.390, 2045.0, 45.2217
14.907963419, 96.390, 2100.0, 45.8258
14.934223984, 96.390, 2034.0, 45.0999
14.960484549, 96.390, 2112.0, 45.9565
14.986745115, 96.390, 2009.0, 44.8219
15.013005680, 96.390, 2143.0, 46.2925
15.039266245, 96.390, 2095.0, 45.7712
15.065526811, 96.390, 2084.0, 45.6508
15.091787376, 96.390, 2027.0, 45.0222
15.118047942, 96.390, 2081.0, 45.6180
15.144308507, 96.390, 2045.0, 45.2217
15.170569072, 96.390, 2109.0, 45.9239
15.196829638, 96.390, 2093.0, 45.7493
15.223090203, 96.390, 2102.0, 45.8476
15.249350768, 96.390, 2052.0, 45.2990
15.275611334, 96.390, 2015.0, 44.8888
15.301871899, 96.390, 2006.0, 44.7884
15.328132464, 96.390, 2048.0, 45.2548
15.354393030, 96.390, 2028.0, 45.0333
15.380653595, 96.390, 2072.0, 45.5192
15.406914160, 96.390, 2041.0, 45.1774
15.433174726, 96.390, 2053.0, 45.3100
15.459435291, 96.390, 2038.0, 45.1442
15.485695857, 96.390, 1982.0, 44.5197
15.511956422, 96.390, 1948.0, 44.1362
15.538216987, 96.390, 1985.0, 44.5533
15.564477553, 96.390, 2042.0, 45.1885
15.590738118, 96.390, 2004.0, 44.7661
15.616998683, 96.390, 2004.0, 44.7661
15.643259249, 96.390, 2021.0, 44.9555
15.669519814, 96.390, 2007.0, 44.7996
15.695780379, 96.390, 2097.0, 45.7930
15.722040945, 96.390, 2057.0, 45.3542
15.748301510, 96.390, 2016.0, 44.8999
15.774562075, 96.390, 2011.0, 44.8442
15.800822641, 96.390, 2040.0, 45.1664
15.827083206, 96.390, 2070.0, 45.4973
15.853343771, 96.390, 2013.0, 44.8665
15.879604337, 96.390, 2044.0, 45.2106
15.905864902, 96.390, 2037.0, 45.1331
15.932125468, 96.390, 1994.0, 44.6542
15.958386033, 96.390, 1962.0, 44.2945
15.984646598, 96.390, 2041.0, 45.1774
16.010907164, 96.390, 2025.0, 45.0000
16.037167729, 96.390, 2042.0, 45.1885
16.063428294, 96.390, 2001.0, 44.7325
16.089688860, 96.390, 2090.0, 45.7165
16.115949425, 96.390, 2039.0, 45.1553
16.142209990, 96.390, 1980.0, 44.4972
16.168470556, 96.390, 1986.0, 44.5646
16.194731121, 96.390, 2019.0, 44.9333
16.220991686, 96.390, 1978.0, 44.4747
16.247252252, 96.390, 2093.0, 45.7493
16.273512817, 96.390, 2026.0, 45.0111
16.299773382, 96.390, 1974.0, 44.4297
16.326033948, 96.390, 2000.0, 44.7214
16.352294513, 96.390, 2047.0, 45.2438
16.378555079, 96.390, 2053.0, 45.3100
16.404815644, 96.390, 1939.0, 44.0341
16.431076209, 96.390, 1993.0, 44.6430
16.457336775, 96.390, 2042.0, 45.1885
16.483597340, 96.390, 2127.0, 46.1194
16.509857905, 96.390, 2058.0, 45.3652
16.536118471, 96.390, 1985.0, 44.5533
16.562379036, 96.390, 2030.0, 45.0555
16.588639601, 96.390, 2039.0, 45.1553
16.614900167, 96.390, 2009.0, 44.8219
16.641160732, 96.390, 1988.0, 44.5870
16.667421297, 96.390, 2052.0, 45.2990
16.693681863, 96.390, 2055.0, 45.3321
16.719942428, 96.390, 2080.0, 45.6070
16.746202994, 96.390, 2000.0, 44.7214
16.772463559, 96.390, 2034.0, 45.0999
16.798724124, 96.390, 2025.0, 45.0000
16.824984690, 96.390, 2056.0, 45.3431
16.851245255, 96.390, 2124.0, 46.0869
16.877505820, 96.390, 2100.0, 45.8258
16.903766386, 96.390, 2097.0, 45.7930
16.930026951, 96.390, 2030.0, 45.0555
16.956287516, 96.390, 2029.0, 45.0444
16.982548082, 96.390, 2022.0, 44.9667
17.008808647, 96.390, 1951.0, 44.1701
17.035069212, 96.390, 2051.0, 45.2880
17.061329778, 96.390, 1979.0, 44.4860
17.087590343, 96.390, 2052.0, 45.2990
17.113850908, 96.390, 1957.0, 44.2380
17.140111474, 96.390, 2159.0, 46.4650
17.166372039, 96.390, 2093.0, 45.7493
17.192632605, 96.390, 2197.0, 46.8722
17.218893170, 96.390, 2140.0, 46.2601
17.245153735, 96.390, 2090.0, 45.7165
17.271414301, 96.390, 2082.0, 45.6289
17.297674866, 96.390, 2120.0, 46.0435
17.323935431, 96.390, 2088.0, 45.6946
17.350195997, 96.390, 2079.0, 45.5961
17.376456562, 96.390, 2174.0, 46.6262
17.402717127, 96.390, 2149.0, 46.3573
17.428977693, 96.390, 2164.0, 46.5188
17.455238258, 96.390, 2063.0, 45.4203
17.481498823, 96.390, 2129.0, 46.1411
17.507759389, 96.390, 2094.0, 45.7602
17.534019954, 96.390, 2138.0, 46.2385
17.560280520, 96.390, 2082.0, 45.6289
17.586541085, 96.390, 2064.0, 45.4313
17.612801650, 96.390, 2070.0, 45.4973
17.639062216, 96.390, 2153.0, 46.4004
17.665322781, 96.390, 2154.0, 46.4112
17.691583346, 96.390, 2073.0, 45.5302
17.717843912, 96.390, 2165.0, 46.5296
17.744104477, 96.390, 2107.0, 45.9021
17.770365042, 96.390, 2152.0, 46.3897
17.796625608, 96.390, 2189.0, 46.7868
17.822886173, 96.390, 2158.0, 46.4543
17.849146738, 96.390, 2134.0, 46.1952
17.875407304, 96.390, 2113.0, 45.9674
17.901667869, 96.390, 2086.0, 45.6727
17.927928434, 96.390, 2185.0, 46.7440
17.954189000, 96.390, 2160.0, 46.4758
17.980449565, 96.390, 2080.0, 45.6070
18.006710131, 96.390, 2121.0, 46.0543
18.032970696, 96.390, 2110.0, 45.9347
18.059231261, 96.390, 2107.0, 45.9021
18.085491827, 96.390, 2105.0, 45.8803
18.111752392, 96.390, 2147.0, 46.3357
18.138012957, 96.390, 2166.0, 46.5403
18.164273523, 96.390, 2103.0, 45.8585
18.190534088, 96.390, 2180.0, 46.6905
18.216794653, 96.390, 2089.0, 45.7056
18.243055219, 96.390, 2129.0, 46.1411
18.269315784, 96.390, 2090.0, 45.7165
18.295576349, 96.390, 2232.0, 47.2440
18.321836915, 96.390, 2221.0, 47.1275
18.348097480, 96.390, 2144.0, 46.3033
18.374358046, 96.390, 2246.0, 47.3920
18.400618611, 96.390, 2164.0, 46.5188
18.426879176, 96.390, 2237.0, 47.2969
18.453139742, 96.390, 2234.0, 47.2652
18.479400307, 96.390, 2267.0, 47.6130
18.505660872, 96.390, 2224.0, 47.1593
18.531921438, 96.390, 2249.0, 47.4236
18.558182003, 96.390, 2201.0, 46.9148
18.584442568, 96.390, 2252.0, 47.4552
18.610703134, 96.390, 2220.0, 47.1169
18.636963699, 96.390, 2222.0, 47.1381
18.663224264, 96.390, 2199.0, 46.8935
18.689484830, 96.390, 2267.0, 47.6130
18.715745395, 96.390, 2292.0, 47.8748
18.742005960, 96.390, 2315.0, 48.1144
18.768266526, 96.390, 2269.0, 47.6340
18.794527091, 96.390, 2279.0, 47.7389
18.820787657, 96.390, 2223.0, 47.1487
18.847048222, 96.390, 2252.0, 47.4552
18.873308787, 96.390, 2222.0, 47.1381
18.899569353, 96.390, 2345.0, 48.4252
18.925829918, 96.390, 2264.0, 47.5815
18.952090483, 96.390, 2256.0, 47.4974
18.978351049, 96.390, 2263.0, 47.5710
19.004611614, 96.390, 2294.0, 47.8957
19.030872179, 96.390, 2304.0, 48.0000
19.057132745, 96.390, 2296.0, 47.9166
19.083393310, 96.390, 2273.0, 47.6760
19.109653875, 96.390, 2403.0, 49.0204
19.135914441, 96.390, 2360.0, 48.5798
19.162175006, 96.390, 2424.0, 49.2341
19.188435572, 96.390, 2314.0, 48.1041
19.214696137, 96.390, 2295.0, 47.9062
19.240956702, 96.390, 2422.0, 49.2138
19.267217268, 96.390, 2371.0, 48.6929
19.293477833, 96.390, 2409.0, 49.0816
19.319738398, 96.390, 2457.0, 49.5681
19.345998964, 96.390, 2369.0, 48.6724
19.372259529, 96.390, 2464.0, 49.6387
19.398520094, 96.390, 2370.0, 48.6826
19.424780660, 96.390, 2402.0, 49.0102
19.451041225, 96.390, 2377.0, 48.7545
19.477301790, 96.390, 2422.0, 49.2138
19.503562356, 96.390, 2382.0, 48.8057
19.529822921, 96.390, 2447.0, 49.4672
19.556083486, 96.390, 2409.0, 49.0816
19.582344052, 96.390, 2422.0, 49.2138
19.608604617, 96.390, 2391.0, 48.8979
19.634865183, 96.390, 2409.0, 49.0816
19.661125748, 96.390, 2450.0, 49.4975
19.687386313, 96.390, 2417.0, 49.1630
19.713646879, 96.390, 2401.0, 49.0000
19.739907444, 96.390, 2513.0, 50.1298
19.766168009, 96.390, 2436.0, 49.3559
19.792428575, 96.390, 2564.0, 50.6360
19.818689140, 96.390, 2503.0, 50.0300
19.844949705, 96.390, 2479.0, 49.7896
19.871210271, 96.390, 2553.0, 50.5272
19.897470836, 96.390, 2551.0, 50.5074
19.923731401, 96.390, 2469.0, 49.6890
19.949991967, 96.390, 2543.0, 50.4282
19.976252532, 96.390, 2410.0, 49.0918
20.002513098, 96.390, 2459.0, 49.5883
20.028773663, 96.390, 2474.0, 49.7393
20.055034228, 96.390, 2563.0, 50.6261
20.081294794, 96.390, 2478.0, 49.7795
20.107555359, 96.390, 2478.0, 49.7795
20.133815924, 96.390, 2521.0, 50.2096
20.160076490, 96.390, 2558.0, 50.5767
20.186337055, 96.390, 2520.0, 50.1996
20.212597620, 96.390, 2591.0, 50.9019
20.238858186, 96.390, 2619.0, 51.1762
20.265118751, 96.390, 2538.0, 50.3786
20.291379316, 96.390, 2685.0, 51.8170
20.317639882, 96.390, 2566.0, 50.6557
20.343900447, 96.390, 2675.0, 51.7204
20.370161012, 96.390, 2545.0, 50.4480
20.396421578, 96.390, 2630.0, 51.2835
20.422682143, 96.390, 2576.0, 50.7543
20.448942709, 96.390, 2634.0, 51.3225
20.475203274, 96.390, 2703.0, 51.9904
20.501463839, 96.390, 2549.0, 50.4876
20.527724405, 96.390, 2558.0, 50.5767
20.553984970, 96.390, 2606.0, 51.0490
20.580245535, 96.390, 2596.0, 50.9510
20.606506101, 96.390, 2694.0, 51.9038
20.632766666, 96.390, 2671.0, 51.6817
20.659027231, 96.390, 2617.0, 51.1566
20.685287797, 96.390, 2631.0, 51.2933
20.711548362, 96.390, 2609.0, 51.0784
20.737808927, 96.390, 2671.0, 51.6817
20.764069493, 96.390, 2683.0, 51.7977
20.790330058, 96.390, 2708.0, 52.0384
20.816590623, 96.390, 2754.0, 52.4786
20.842851189, 96.390, 2538.0, 50.3786
20.869111754, 96.390, 2687.0, 51.8363
20.895372320, 96.390, 2702.0, 51.9808
20.921632885, 96.390, 2653.0, 51.5073
20.947893450, 96.390, 2770.0, 52.6308
20.974154016, 96.390, 2664.0, 51.6140
21.000414581, 96.390, 2752.0, 52.4595
21.026675146, 96.390, 2676.0, 51.7301
21.052935712, 96.390, 2710.0, 52.0577
21.079196277, 96.390, 2756.0, 52.4976
21.105456842, 96.390, 2713.0, 52.0865
21.131717408, 96.390, 2833.0, 53.2259
21.157977973, 96.390, 2782.0, 52.7447
21.184238538, 96.390, 2738.0, 52.3259
21.210499104, 96.390, 2784.0, 52.7636
21.236759669, 96.390, 2745.0, 52.3927
21.263020235, 96.390, 2721.0, 52.1632
21.289280800, 96.390, 2737.0, 52.3163
21.315541365, 96.390, 2717.0, 52.1249
21.341801931, 96.390, 2679.0, 51.7591
21.368062496, 96.390, 2717.0, 52.1249
21.394323061, 96.390, 2842.0, 53.3104
21.420583627, 96.390, 2795.0, 52.8678
21.446844192, 96.390, 2794.0, 52.8583
21.473104757, 96.390, 2815.0, 53.0566
21.499365323, 96.390, 2902.0, 53.8702
21.525625888, 96.390, 2781.0, 52.7352
21.551886453, 96.390, 2848.0, 53.3667
21.578147019, 96.390, 2892.0, 53.7773
21.604407584, 96.390, 2871.0, 53.5817
21.630668149, 96.390, 2904.0, 53.8888
21.656928715, 96.390, 2918.0, 54.0185
21.683189280, 96.390, 2771.0, 52.6403
21.709449846, 96.390, 2848.0, 53.3667
21.735710411, 96.390, 2851.0, 53.3948
21.761970976, 96.390, 2785.0, 52.7731
21.788231542, 96.390, 2872.0, 53.5910
21.814492107, 96.390, 2886.0, 53.7215
21.840752672, 96.390, 2921.0, 54.0463
21.867013238, 96.390, 2851.0, 53.3948
21.893273803, 96.390, 2818.0, 53.0848
21.919534368, 96.390, 2829.0, 53.1883
21.945794934, 96.390, 2966.0, 54.4610
21.972055499, 96.390, 2789.0, 52.8110
21.998316064, 96.390, 2942.0, 54.2402
22.024576630, 96.390, 2927.0, 54.1018
22.050837195, 96.390, 2761.0, 52.5452
22.077097761, 96.390, 2902.0, 53.8702
22.103358326, 96.390, 2974.0, 54.5344
22.129618891, 96.390, 2968.0, 54.4794
22.155879457, 96.390, 2926.0, 54.0925
22.182140022, 96.390, 2935.0, 54.1756
22.208400587, 96.390, 2983.0, 54.6168
22.234661153, 96.390, 2880.0, 53.6656
22.260921718, 96.390, 2914.0, 53.9815
22.287182283, 96.390, 3043.0, 55.1634
22.313442849, 96.390, 2895.0, 53.8052
22.339703414, 96.390, 2919.0, 54.0278
22.365963979, 96.390, 2948.0, 54.2955
22.392224545, 96.390, 2929.0, 54.1202
22.418485110, 96.390, 2980.0, 54.5894
22.444745675, 96.390, 3022.0, 54.9727
22.471006241, 96.390, 3041.0, 55.1453
22.497266806, 96.390, 2998.0, 54.7540
22.523527372, 96.390, 3098.0, 55.6597
22.549787937, 96.390, 3064.0, 55.3534
22.576048502, 96.390, 3107.0, 55.7405
22.602309068, 96.390, 3153.0, 56.1516
22.628569633, 96.390, 3135.0, 55.9911
22.654830198, 96.390, 3238.0, 56.9034
22.681090764, 96.390, 3140.0, 56.0357
22.707351329, 96.390, 3180.0, 56.3915
22.733611894, 96.390, 3287.0, 57.3324
22.759872460, 96.390, 3339.0, 57.7841
22.786133025, 96.390, 3264.0, 57.1314
22.812393590, 96.390, 3224.0, 56.7803
22.838654156, 96.390, 3359.0, 57.9569
22.864914721, 96.390, 3390.0, 58.2237
22.891175287, 96.390, 3418.0, 58.4637
22.917435852, 96.390, 3434.0, 58.6003
22.943696417, 96.390, 3422.0, 58.4979
22.969956983, 96.390, 3384.0, 58.1722
22.996217548, 96.390, 3447.0, 58.7112
23.022478113, 96.390, 3483.0, 59.0169
23.048738679, 96.390, 3373.0, 58.0775
23.074999244, 96.390, 3487.0, 59.0508
23.101259809, 96.390, 3527.0, 59.3886
23.127520375, 96.390, 3647.0, 60.3904
23.153780940, 96.390, 3502.0, 59.1777
23.180041505, 96.390, 3560.0, 59.6657
23.206302071, 96.390, 3610.0, 60.0833
23.232562636, 96.390, 3777.0, 61.4573
23.258823201, 96.390, 3749.0, 61.2291
23.285083767, 96.390, 3722.0, 61.0082
23.311344332, 96.390, 3774.0, 61.4329
23.337604898, 96.390, 3876.0, 62.2575
23.363865463, 96.390, 3845.0, 62.0081
23.390126028, 96.390, 3891.0, 62.3779
23.416386594, 96.390, 3793.0, 61.5873
23.442647159, 96.390, 3760.0, 61.3188
23.468907724, 96.390, 3826.0, 61.8547
23.495168290, 96.390, 3765.0, 61.3596
23.521428855, 96.390, 3544.0, 59.5315
23.547689420, 96.390, 3480.0, 58.9915
23.573949986, 96.390, 3439.0, 58.6430
23.600210551, 96.390, 3370.0, 58.0517
23.626471116, 96.390, 3302.0, 57.4630
23.652731682, 96.390, 3278.0, 57.2538
23.678992247, 96.390, 3275.0, 57.2276
23.705252813, 96.390, 3095.0, 55.6327
23.731513378, 96.390, 3114.0, 55.8032
23.757773943, 96.390, 3029.0, 55.0364
23.784034509, 96.390, 3094.0, 55.6237
23.810295074, 96.390, 2950.0, 54.3139
23.836555639, 96.390, 2909.0, 53.9351
23.862816205, 96.390, 2967.0, 54.4702
23.889076770, 96.390, 2935.0, 54.1756
23.915337335, 96.390, 2888.0, 53.7401
23.941597901, 96.390, 2852.0, 53.4041
23.967858466, 96.390, 2753.0, 52.4690
23.994119031, 96.390, 2770.0, 52.6308
24.020379597, 96.390, 2857.0, 53.4509
24.046640162, 96.390, 2793.0, 52.8488
24.072900727, 96.390, 2660.0, 51.5752
24.099161293, 96.390, 2671.0, 51.6817
24.125421858, 96.390, 2687.0, 51.8363
24.151682424, 96.390, 2663.0, 51.6043
24.177942989, 96.390, 2571.0, 50.7050
24.204203554, 96.390, 2664.0, 51.6140
24.230464120, 96.390, 2546.0, 50.4579
24.256724685, 96.390, 2603.0, 51.0196
24.282985250, 96.390, 2563.0, 50.6261
24.309245816, 96.390, 2542.0, 50.4183
24.335506381, 96.390, 2512.0, 50.1199
24.361766946, 96.390, 2500.0, 50.0000
24.388027512, 96.390, 2471.0, 49.7092
24.414288077, 96.390, 2564.0, 50.6360
24.440548642, 96.390, 2419.0, 49.1833
24.466809208, 96.390, 2420.0, 49.1935
24.493069773, 96.390, 2524.0, 50.2394
24.519330338, 96.390, 2420.0, 49.1935
24.545590904, 96.390, 2447.0, 49.4672
24.571851469, 96.390, 2414.0, 49.1325
24.598112035, 96.390, 2394.0, 48.9285
24.624372600, 96.390, 2490.0, 49.8999
24.650633165, 96.390, 2440.0, 49.3964
24.676893731, 96.390, 2357.0, 48.5489
24.703154296, 96.390, 2416.0, 49.1528
24.729414861, 96.390, 2312.0, 48.0833
24.755675427, 96.390, 2341.0, 48.3839
24.781935992, 96.390, 2497.0, 49.9700
24.808196557, 96.390, 2389.0, 48.8774
24.834457123, 96.390, 2502.0, 50.0200
24.860717688, 96.390, 2299.0, 47.9479
24.886978253, 96.390, 2309.0, 48.0521
24.913238819, 96.390, 2368.0, 48.6621
24.939499384, 96.390, 2331.0, 48.2804
24.965759950, 96.390, 2356.0, 48.5386
24.992020515, 96.390, 2302.0, 47.9792
25.018281080, 96.390, 2241.0, 47.3392
25.044541646, 96.390, 2348.0, 48.4562
25.070802211, 96.390, 2271.0, 47.6550
25.097062776, 96.390, 2308.0, 48.0416
25.123323342, 96.390, 2323.0, 48.1975
25.149583907, 96.390, 2241.0, 47.3392
25.175844472, 96.390, 2246.0, 47.3920
25.202105038, 96.390, 2176.0, 46.6476
25.228365603, 96.390, 2235.0, 47.2758
25.254626168, 96.390, 2203.0, 46.9361
25.280886734, 96.390, 2299.0, 47.9479
25.307147299, 96.390, 2276.0, 47.7074
25.333407864, 96.390, 2105.0, 45.8803
25.359668430, 96.390, 2185.0, 46.7440
25.385928995, 96.390, 2260.0, 47.5395
25.412189561, 96.390, 2270.0, 47.6445
25.438450126, 96.390, 2165.0, 46.5296
25.464710691, 96.390, 2246.0, 47.3920
25.490971257, 96.390, 2209.0, 47.0000
25.517231822, 96.390, 2151.0, 46.3789
25.543492387, 96.390, 2187.0, 46.7654
25.569752953, 96.390, 2276.0, 47.7074
25.596013518, 96.390, 2229.0, 47.2123
25.622274083, 96.390, 2241.0, 47.3392
25.648534649, 96.390, 2096.0, 45.7821
25.674795214, 96.390, 2155.0, 46.4220
25.701055779, 96.390, 2146.0, 46.3249
25.727316345, 96.390, 2082.0, 45.6289
25.753576910, 96.390, 2139.0, 46.2493
25.779837476, 96.390, 2040.0, 45.1664
25.806098041, 96.390, 2143.0, 46.2925
25.832358606, 96.390, 2068.0, 45.4753
25.858619172, 96.390, 2128.0, 46.1303
25.884879737, 96.390, 2106.0, 45.8912
25.911140302, 96.390, 2161.0, 46.4866
25.937400868, 96.390, 2126.0, 46.1086
25.963661433, 96.390, 2139.0, 46.2493
25.989921998, 96.390, 2054.0, 45.3211
26.016182564, 96.390, 1936.0, 44.0000
26.042443129, 96.390, 2181.0, 46.7012
26.068703694, 96.390, 2038.0, 45.1442
26.094964260, 96.390, 2030.0, 45.0555
26.121224825, 96.390, 2043.0, 45.1996
26.147485390, 96.390, 2043.0, 45.1996
26.173745956, 96.390, 2000.0, 44.7214
26.200006521, 96.390, 2073.0, 45.5302
26.226267087, 96.390, 1967.0, 44.3509
26.252527652, 96.390, 2057.0, 45.3542
26.278788217, 96.390, 2081.0, 45.6180
26.305048783, 96.390, 2059.0, 45.3762
26.331309348, 96.390, 1960.0, 44.2719
26.357569913, 96.390, 2084.0, 45.6508
26.383830479, 96.390, 2002.0, 44.7437
26.410091044, 96.390, 2015.0, 44.8888
26.436351609, 96.390, 2040.0, 45.1664
26.462612175, 96.390, 2068.0, 45.4753
26.488872740, 96.390, 1988.0, 44.5870
26.515133305, 96.390, 2028.0, 45.0333
26.541393871, 96.390, 1986.0, 44.5646
26.567654436, 96.390, 1916.0, 43.7721
26.593915002, 96.390, 1985.0, 44.5533
26.620175567, 96.390, 2039.0, 45.1553
26.646436132, 96.390, 1971.0, 44.3959
26.672696698, 96.390, 1889.0, 43.4626
26.698957263, 96.390, 2002.0, 44.7437
26.725217828, 96.390, 1863.0, 43.1625
26.751478394, 96.390, 1926.0, 43.8862
26.777738959, 96.390, 1964.0, 44.3170
26.803999524, 96.390, 1967.0, 44.3509
26.830260090, 96.390, 1930.0, 43.9318
26.856520655, 96.390, 1997.0, 44.6878
26.882781220, 96.390, 1959.0, 44.2606
26.909041786, 96.390, 1953.0, 44.1928
26.935302351, 96.390, 1923.0, 43.8520
26.961562916, 96.390, 1951.0, 44.1701
26.987823482, 96.390, 1910.0, 43.7035
27.014084047, 96.390, 1890.0, 43.4741
27.040344613, 96.390, 1852.0, 43.0349
27.066605178, 96.390, 1988.0, 44.5870
27.092865743, 96.390, 1878.0, 43.3359
27.119126309, 96.390, 1950.0, 44.1588
27.145386874, 96.390, 1927.0, 43.8976
27.171647439, 96.390, 1913.0, 43.7379
27.197908005, 96.390, 1899.0, 43.5775
27.224168570, 96.390, 1753.0, 41.8688
27.250429135, 96.390, 1887.0, 43.4396
27.276689701, 96.390, 1945.0, 44.1022
27.302950266, 96.390, 1918.0, 43.7950
27.329210831, 96.390, 1952.0, 44.1814
27.355471397, 96.390, 1895.0, 43.5316
27.381731962, 96.390, 1785.0, 42.2493
27.407992528, 96.390, 1901.0, 43.6005
27.434253093, 96.390, 1957.0, 44.2380
27.460513658, 96.390, 1875.0, 43.3013
27.486774224, 96.390, 1851.0, 43.0232
27.513034789, 96.390, 1780.0, 42.1900
27.539295354, 96.390, 1786.0, 42.2611
27.565555920, 96.390, 1765.0, 42.0119
27.591816485, 96.390, 1825.0, 42.7200
27.618077050, 96.390, 1845.0, 42.9535
27.644337616, 96.390, 1790.0, 42.3084
27.670598181, 96.390, 1821.0, 42.6732
27.696858746, 96.390, 1758.0, 41.9285
27.723119312, 96.390, 1802.0, 42.4500
27.749379877, 96.390, 1822.0, 42.6849
27.775640442, 96.390, 1855.0, 43.0697
27.801901008, 96.390, 1808.0, 42.5206
27.828161573, 96.390, 1813.0, 42.5793
27.854422139, 96.390, 1829.0, 42.7668
27.880682704, 96.390, 1824.0, 42.7083
27.906943269, 96.390, 1837.0, 42.8602
27.933203835, 96.390, 1829.0, 42.7668
27.959464400, 96.390, 1752.0, 41.8569
27.985724965, 96.390, 1751.0, 41.8450
28.011985531, 96.390, 1788.0, 42.2847
28.038246096, 96.390, 1742.0, 41.7373
28.064506661, 96.390, 1803.0, 42.4617
28.090767227, 96.390, 1831.0, 42.7902
28.117027792, 96.390, 1866.0, 43.1972
28.143288357, 96.390, 1781.0, 42.2019
28.169548923, 96.390, 1778.0, 42.1663
28.195809488, 96.390, 1825.0, 42.7200
28.222070054, 96.390, 1759.0, 41.9404
28.248330619, 96.390, 1741.0, 41.7253
28.274591184, 96.390, 1840.0, 42.8952
28.300851750, 96.390, 1780.0, 42.1900
28.327112315, 96.390, 1731.0, 41.6053
28.353372880, 96.390, 1763.0, 41.9881
28.379633446, 96.390, 1703.0, 41.2674
28.405894011, 96.390, 1761.0, 41.9643
28.432154576, 96.390, 1701.0, 41.2432
28.458415142, 96.390, 1712.0, 41.3763
28.484675707, 96.390, 1762.0, 41.9762
28.510936272, 96.390, 1830.0, 42.7785
28.537196838, 96.390, 1682.0, 41.0122
28.563457403, 96.390, 1777.0, 42.1545
28.589717968, 96.390, 1797.0, 42.3910
28.615978534, 96.390, 1725.0, 41.5331
28.642239099, 96.390, 1707.0, 41.3159
28.668499665, 96.390, 1680.0, 40.9878
28.694760230, 96.390, 1717.0, 41.4367
28.721020795, 96.390, 1744.0, 41.7612
28.747281361, 96.390, 1697.0, 41.1947
28.773541926, 96.390, 1706.0, 41.3038
28.799802491, 96.390, 1629.0, 40.3609
28.826063057, 96.390, 1641.0, 40.5093
28.852323622, 96.390, 1745.0, 41.7732
28.878584187, 96.390, 1664.0, 40.7922
28.904844753, 96.390, 1638.0, 40.4722
28.931105318, 96.390, 1665.0, 40.8044
28.957365883, 96.390, 1627.0, 40.3361
28.983626449, 96.390, 1709.0, 41.3401
29.009887014, 96.390, 1668.0, 40.8412
29.036147579, 96.390, 1663.0, 40.7799
29.062408145, 96.390, 1702.0, 41.2553
29.088668710, 96.390, 1645.0, 40.5586
29.114929276, 96.390, 1695.0, 41.1704
29.141189841, 96.390, 1735.0, 41.6533
29.167450406, 96.390, 1676.0, 40.9390
29.193710972, 96.390, 1595.0, 39.9375
29.219971537, 96.390, 1627.0, 40.3361
29.246232102, 96.390, 1671.0, 40.8779
29.272492668, 96.390, 1623.0, 40.2865
29.298753233, 96.390, 1697.0, 41.1947
29.325013798, 96.390, 1601.0, 40.0125
29.351274364, 96.390, 1568.0, 39.5980
29.377534929, 96.390, 1634.0, 40.4228
29.403795494, 96.390, 1667.0, 40.8289
29.430056060, 96.390, 1633.0, 40.4104
29.456316625, 96.390, 1610.0, 40.1248
29.482577191, 96.390, 1628.0, 40.3485
29.508837756, 96.390, 1670.0, 40.8656
29.535098321, 96.390, 1613.0, 40.1622
29.561358887, 96.390, 1545.0, 39.3065
29.587619452, 96.390, 1570.0, 39.6232
29.613880017, 96.390, 1594.0, 39.9249
29.640140583, 96.390, 1636.0, 40.4475
29.666401148, 96.390, 1557.0, 39.4588
29.692661713, 96.390, 1605.0, 40.0625
29.718922279, 96.390, 1555.0, 39.4335
29.745182844, 96.390, 1500.0, 38.7298
29.771443409, 96.390, 1669.0, 40.8534
29.797703975, 96.390, 1575.0, 39.6863
29.823964540, 96.390, 1499.0, 38.7169
29.850225105, 96.390, 1565.0, 39.5601
29.876485671, 96.390, 1499.0, 38.7169
29.902746236, 96.390, 1517.0, 38.9487
29.929006802, 96.390, 1625.0, 40.3113
29.955267367, 96.390, 1576.0, 39.6989
29.981527932, 96.390, 1634.0, 40.4228
30.007788498, 96.390, 1544.0, 39.2938
30.034049063, 96.390, 1545.0, 39.3065
30.060309628, 96.390, 1536.0, 39.1918
30.086570194, 96.390, 1564.0, 39.5474
30.112830759, 96.390, 1526.0, 39.0640
30.139091324, 96.390, 1469.0, 38.3275
30.165351890, 96.390, 1496.0, 38.6782
30.191612455, 96.390, 1534.0, 39.1663
30.217873020, 96.390, 1504.0, 38.7814
30.244133586, 96.390, 1483.0, 38.5097
30.270394151, 96.390, 1437.0, 37.9078
30.296654717, 96.390, 1543.0, 39.2810
30.322915282, 96.390, 1432.0, 37.8418
30.349175847, 96.390, 1498.0, 38.7040
30.375436413, 96.390, 1486.0, 38.5487
30.401696978, 96.390, 1447.0, 38.0395
30.427957543, 96.390, 1570.0, 39.6232
30.454218109, 96.390, 1523.0, 39.0256
30.480478674, 96.390, 1553.0, 39.4081
30.506739239, 96.390, 1569.0, 39.6106
30.532999805, 96.390, 1493.0, 38.6394
30.559260370, 96.390, 1511.0, 38.8716
30.585520935, 96.390, 1517.0, 38.9487
30.611781501, 96.390, 1468.0, 38.3145
30.638042066, 96.390, 1515.0, 38.9230
30.664302631, 96.390, 1556.0, 39.4462
30.690563197, 96.390, 1398.0, 37.3898
30.716823762, 96.390, 1515.0, 38.9230
30.743084328, 96.390, 1489.0, 38.5876
30.769344893, 96.390, 1492.0, 38.6264
30.795605458, 96.390, 1570.0, 39.6232
30.821866024, 96.390, 1458.0, 38.1838
30.848126589, 96.390, 1506.0, 38.8072
30.874387154, 96.390, 1526.0, 39.0640
30.900647720, 96.390, 1391.0, 37.2961
30.926908285, 96.390, 1442.0, 37.9737
30.953168850, 96.390, 1429.0, 37.8021
30.979429416, 96.390, 1487.0, 38.5616
31.005689981, 96.390, 1461.0, 38.2230
31.031950546, 96.390, 1466.0, 38.2884
31.058211112, 96.390, 1421.0, 37.6962
31.084471677, 96.390, 1454.0, 38.1314
31.110732243, 96.390, 1457.0, 38.1707
31.136992808, 96.390, 1436.0, 37.8946
31.163253373, 96.390, 1459.0, 38.1969
31.189513939, 96.390, 1450.0, 38.0789
31.215774504, 96.390, 1423.0, 37.7227
31.242035069, 96.390, 1407.0, 37.5100
31.268295635, 96.390, 1386.0, 37.2290
31.294556200, 96.390, 1404.0, 37.4700
31.320816765, 96.390, 1444.0, 38.0000
31.347077331, 96.390, 1397.0, 37.3765
31.373337896, 96.390, 1396.0, 37.3631
31.399598461, 96.390, 1355.0, 36.8103
31.425859027, 96.390, 1449.0, 38.0657
31.452119592, 96.390, 1398.0, 37.3898
31.478380157, 96.390, 1440.0, 37.9473
31.504640723, 96.390, 1388.0, 37.2559
31.530901288, 96.390, 1390.0, 37.2827
31.557161854, 96.390, 1418.0, 37.6563
31.583422419, 96.390, 1428.0, 37.7889
31.609682984, 96.390, 1418.0, 37.6563
31.635943550, 96.390, 1488.0, 38.5746
31.662204115, 96.390, 1402.0, 37.4433
31.688464680, 96.390, 1451.0, 38.0920
31.714725246, 96.390, 1421.0, 37.6962
31.740985811, 96.390, 1350.0, 36.7423
31.767246376, 96.390, 1403.0, 37.4566
31.793506942, 96.390, 1363.0, 36.9188
31.819767507, 96.390, 1424.0, 37.7359
31.846028072, 96.390, 1444.0, 38.0000
31.872288638, 96.390, 1380.0, 37.1484
31.898549203, 96.390, 1439.0, 37.9342
31.924809769, 96.390, 1302.0, 36.0832
31.951070334, 96.390, 1414.0, 37.6032
31.977330899, 96.390, 1372.0, 37.0405
32.003591465, 96.390, 1298.0, 36.0278
32.029852030, 96.390, 1331.0, 36.4829
32.056112595, 96.390, 1342.0, 36.6333
32.082373161, 96.390, 1368.0, 36.9865
32.108633726, 96.390, 1400.0, 37.4166
32.134894291, 96.390, 1327.0, 36.4280
32.161154857, 96.390, 1258.0, 35.4683
32.187415422, 96.390, 1385.0, 37.2156
32.213675987, 96.390, 1420.0, 37.6829
32.239936553, 96.390, 1441.0, 37.9605
32.266197118, 96.390, 1364.0, 36.9324
32.292457683, 96.390, 1360.0, 36.8782
32.318718249, 96.390, 1373.0, 37.0540
32.344978814, 96.390, 1306.0, 36.1386
32.371239380, 96.390, 1369.0, 37.0000
32.397499945, 96.390, 1394.0, 37.3363
32.423760510, 96.390, 1429.0, 37.8021
32.450021076, 96.390, 1311.0, 36.2077
32.476281641, 96.390, 1284.0, 35.8329
32.502542206, 96.390, 1393.0, 37.3229
32.528802772, 96.390, 1287.0, 35.8748
32.555063337, 96.390, 1314.0, 36.2491
32.581323902, 96.390, 1399.0, 37.4032
32.607584468, 96.390, 1307.0, 36.1525
32.633845033, 96.390, 1416.0, 37.6298
32.660105598, 96.390, 1354.0, 36.7967
32.686366164, 96.390, 1314.0, 36.2491
32.712626729, 96.390, 1337.0, 36.5650
32.738887295, 96.390, 1349.0, 36.7287
32.765147860, 96.390, 1298.0, 36.0278
32.791408425, 96.390, 1323.0, 36.3731
32.817668991, 96.390, 1412.0, 37.5766
32.843929556, 96.390, 1345.0, 36.6742
32.870190121, 96.390, 1262.0, 35.5246
32.896450687, 96.390, 1349.0, 36.7287
32.922711252, 96.390, 1365.0, 36.9459
32.948971817, 96.390, 1325.0, 36.4005
32.975232383, 96.390, 1348.0, 36.7151
33.001492948, 96.390, 1328.0, 36.4417
33.027753513, 96.390, 1339.0, 36.5923
33.054014079, 96.390, 1251.0, 35.3695
33.080274644, 96.390, 1355.0, 36.8103
33.106535209, 96.390, 1325.0, 36.4005
33.132795775, 96.390, 1377.0, 37.1080
33.159056340, 96.390, 1319.0, 36.3180
33.185316906, 96.390, 1361.0, 36.8917
33.211577471, 96.390, 1348.0, 36.7151
33.237838036, 96.390, 1304.0, 36.1109
33.264098602, 96.390, 1338.0, 36.5787
33.290359167, 96.390, 1365.0, 36.9459
33.316619732, 96.390, 1275.0, 35.7071
33.342880298, 96.390, 1344.0, 36.6606
33.369140863, 96.390, 1284.0, 35.8329
33.395401428, 96.390, 1353.0, 36.7831
33.421661994, 96.390, 1301.0, 36.0694
33.447922559, 96.390, 1338.0, 36.5787
33.474183124, 96.390, 1296.0, 36.0000
33.500443690, 96.390, 1392.0, 37.3095
33.526704255, 96.390, 1353.0, 36.7831
33.552964820, 96.390, 1369.0, 37.0000
33.579225386, 96.390, 1379.0, 37.1349
33.605485951, 96.390, 1343.0, 36.6470
33.631746517, 96.390, 1388.0, 37.2559
33.658007082, 96.390, 1411.0, 37.5633
33.684267647, 96.390, 1334.0, 36.5240
33.710528213, 96.390, 1387.0, 37.2424
33.736788778, 96.390, 1410.0, 37.5500
33.763049343, 96.390, 1361.0, 36.8917
33.789309909, 96.390, 1389.0, 37.2693
33.815570474, 96.390, 1435.0, 37.8814
33.841831039, 96.390, 1414.0, 37.6032
33.868091605, 96.390, 1480.0, 38.4708
33.894352170, 96.390, 1530.0, 39.1152
33.920612735, 96.390, 1482.0, 38.4968
33.946873301, 96.390, 1479.0, 38.4578
33.973133866, 96.390, 1566.0, 39.5727
33.999394432, 96.390, 1535.0, 39.1791
34.025654997, 96.390, 1510.0, 38.8587
34.051915562, 96.390, 1605.0, 40.0625
34.078176128, 96.390, 1605.0, 40.0625
34.104436693, 96.390, 1600.0, 40.0000
34.130697258, 96.390, 1562.0, 39.5221
34.156957824, 96.390, 1645.0, 40.5586
34.183218389, 96.390, 1652.0, 40.6448
34.209478954, 96.390, 1586.0, 39.8246
34.235739520, 96.390, 1619.0, 40.2368
34.262000085, 96.390, 1736.0, 41.6653
34.288260650, 96.390, 1731.0, 41.6053
34.314521216, 96.390, 1697.0, 41.1947
34.340781781, 96.390, 1817.0, 42.6263
34.367042346, 96.390, 1763.0, 41.9881
34.393302912, 96.390, 1738.0, 41.6893
34.419563477, 96.390, 1941.0, 44.0568
34.445824043, 96.390, 1801.0, 42.4382
34.472084608, 96.390, 1942.0, 44.0681
34.498345173, 96.390, 1962.0, 44.2945
34.524605739, 96.390, 1996.0, 44.6766
34.550866304, 96.390, 1934.0, 43.9773
34.577126869, 96.390, 2069.0, 45.4863
34.603387435, 96.390, 2109.0, 45.9239
34.629648000, 96.390, 2184.0, 46.7333
34.655908565, 96.390, 2198.0, 46.8828
34.682169131, 96.390, 2275.0, 47.6970
34.708429696, 96.390, 2294.0, 47.8957
34.734690261, 96.390, 2352.0, 48.4974
34.760950827, 96.390, 2340.0, 48.3735
34.787211392, 96.390, 2487.0, 49.8698
34.813471958, 96.390, 2422.0, 49.2138
34.839732523, 96.390, 2550.0, 50.4975
34.865993088, 96.390, 2480.0, 49.7996
34.892253654, 96.390, 2571.0, 50.7050
34.918514219, 96.390, 2458.0, 49.5782
34.944774784, 96.390, 2460.0, 49.5984
34.971035350, 96.390, 2423.0, 49.2240
34.997295915, 96.390, 2353.0, 48.5077
35.023556480, 96.390, 2287.0, 47.8226
35.049817046, 96.390, 2311.0, 48.0729
35.076077611, 96.390, 2197.0, 46.8722
35.102338176, 96.390, 2047.0, 45.2438
35.128598742, 96.390, 2084.0, 45.6508
35.154859307, 96.390, 2012.0, 44.8553
35.181119872, 96.390, 1950.0, 44.1588
35.207380438, 96.390, 1954.0, 44.2041
35.233641003, 96.390, 1874.0, 43.2897
35.259901569, 96.390, 1922.0, 43.8406
35.286162134, 96.390, 1879.0, 43.3474
35.312422699, 96.390, 1834.0, 42.8252
35.338683265, 96.390, 1830.0, 42.7785
35.364943830, 96.390, 1816.0, 42.6146
35.391204395, 96.390, 1788.0, 42.2847
35.417464961, 96.390, 1743.0, 41.7493
35.443725526, 96.390, 1861.0, 43.1393
35.469986091, 96.390, 1762.0, 41.9762
35.496246657, 96.390, 1745.0, 41.7732
35.522507222, 96.390, 1700.0, 41.2311
35.548767787, 96.390, 1674.0, 40.9145
35.575028353, 96.390, 1774.0, 42.1189
35.601288918, 96.390, 1760.0, 41.9524
35.627549484, 96.390, 1686.0, 41.0609
35.653810049, 96.390, 1702.0, 41.2553
35.680070614, 96.390, 1639.0, 40.4846
35.706331180, 96.390, 1610.0, 40.1248
35.732591745, 96.390, 1638.0, 40.4722
35.758852310, 96.390, 1635.0, 40.4351
35.785112876, 96.390, 1647.0, 40.5832
35.811373441, 96.390, 1600.0, 40.0000
35.837634006, 96.390, 1594.0, 39.9249
35.863894572, 96.390, 1522.0, 39.0128
35.890155137, 96.390, 1695.0, 41.1704
35.916415702, 96.390, 1641.0, 40.5093
35.942676268, 96.390, 1566.0, 39.5727
35.968936833, 96.390, 1610.0, 40.1248
35.995197398, 96.390, 1553.0, 39.4081
36.021457964, 96.390, 1560.0, 39.4968
36.047718529, 96.390, 1536.0, 39.1918
36.073979095, 96.390, 1594.0, 39.9249
36.100239660, 96.390, 1581.0, 39.7618
36.126500225, 96.390, 1526.0, 39.0640
36.152760791, 96.390, 1516.0, 38.9358
36.179021356, 96.390, 1489.0, 38.5876
36.205281921, 96.390, 1532.0, 39.1408
36.231542487, 96.390, 1527.0, 39.0768
36.257803052, 96.390, 1546.0, 39.3192
36.284063617, 96.390, 1468.0, 38.3145
36.310324183, 96.390, 1505.0, 38.7943
36.336584748, 96.390, 1507.0, 38.8201
36.362845313, 96.390, 1509.0, 38.8458
36.389105879, 96.390, 1524.0, 39.0384
36.415366444, 96.390, 1420.0, 37.6829
36.441627010, 96.390, 1485.0, 38.5357
36.467887575, 96.390, 1487.0, 38.5616
36.494148140, 96.390, 1517.0, 38.9487
36.520408706, 96.390, 1499.0, 38.7169
36.546669271, 96.390, 1469.0, 38.3275
36.572929836, 96.390, 1487.0, 38.5616
36.599190402, 96.390, 1510.0, 38.8587
36.625450967, 96.390, 1484.0, 38.5227
36.651711532, 96.390, 1446.0, 38.0263
36.677972098, 96.390, 1470.0, 38.3406
36.704232663, 96.390, 1498.0, 38.7040
36.730493228, 96.390, 1531.0, 39.1280
36.756753794, 96.390, 1430.0, 37.8153
36.783014359, 96.390, 1454.0, 38.1314
36.809274924, 96.390, 1565.0, 39.5601
36.835535490, 96.390, 1498.0, 38.7040
36.861796055, 96.390, 1376.0, 37.0945
36.888056621, 96.390, 1448.0, 38.0526
36.914317186, 96.390, 1396.0, 37.3631
36.940577751, 96.390, 1484.0, 38.5227
36.966838317, 96.390, 1451.0, 38.0920
36.993098882, 96.390, 1449.0, 38.0657
37.019359447, 96.390, 1427.0, 37.7757
37.045620013, 96.390, 1470.0, 38.3406
37.071880578, 96.390, 1417.0, 37.6431
37.098141143, 96.390, 1418.0, 37.6563
37.124401709, 96.390, 1420.0, 37.6829
37.150662274, 96.390, 1410.0, 37.5500
37.176922839, 96.390, 1355.0, 36.8103
37.203183405, 96.390, 1416.0, 37.6298
37.229443970, 96.390, 1371.0, 37.0270
37.255704535, 96.390, 1444.0, 38.0000
37.281965101, 96.390, 1463.0, 38.2492
37.308225666, 96.390, 1417.0, 37.6431
37.334486232, 96.390, 1401.0, 37.4299
37.360746797, 96.390, 1404.0, 37.4700
37.387007362, 96.390, 1443.0, 37.9868
37.413267928, 96.390, 1452.0, 38.1051
37.439528493, 96.390, 1314.0, 36.2491
37.465789058, 96.390, 1345.0, 36.6742
37.492049624, 96.390, 1410.0, 37.5500
37.518310189, 96.390, 1453.0, 38.1182
37.544570754, 96.390, 1332.0, 36.4966
37.570831320, 96.390, 1380.0, 37.1484
37.597091885, 96.390, 1373.0, 37.0540
37.623352450, 96.390, 1356.0, 36.8239
37.649613016, 96.390, 1359.0, 36.8646
37.675873581, 96.390, 1442.0, 37.9737
37.702134147, 96.390, 1329.0, 36.4555
37.728394712, 96.390, 1429.0, 37.8021
37.754655277, 96.390, 1369.0, 37.0000
37.780915843, 96.390, 1295.0, 35.9861
37.807176408, 96.390, 1370.0, 37.0135
37.833436973, 96.390, 1337.0, 36.5650
37.859697539, 96.390, 1367.0, 36.9730
37.885958104, 96.390, 1326.0, 36.4143
37.912218669, 96.390, 1365.0, 36.9459
37.938479235, 96.390, 1391.0, 37.2961
37.964739800, 96.390, 1355.0, 36.8103
37.991000365, 96.390, 1359.0, 36.8646
38.017260931, 96.390, 1328.0, 36.4417
38.043521496, 96.390, 1342.0, 36.6333
38.069782061, 96.390, 1350.0, 36.7423
38.096042627, 96.390, 1403.0, 37.4566
38.122303192, 96.390, 1403.0, 37.4566
38.148563758, 96.390, 1380.0, 37.1484
38.174824323, 96.390, 1449.0, 38.0657
38.201084888, 96.390, 1416.0, 37.6298
38.227345454, 96.390, 1418.0, 37.6563
38.253606019, 96.390, 1425.0, 37.7492
38.279866584, 96.390, 1488.0, 38.5746
38.306127150, 96.390, 1406.0, 37.4967
38.332387715, 96.390, 1440.0, 37.9473
38.358648280, 96.390, 1422.0, 37.7094
38.384908846, 96.390, 1398.0, 37.3898
38.411169411, 96.390, 1380.0, 37.1484
38.437429976, 96.390, 1417.0, 37.6431
38.463690542, 96.390, 1420.0, 37.6829
38.489951107, 96.390, 1457.0, 38.1707
38.516211673, 96.390, 1426.0, 37.7624
38.542472238, 96.390, 1466.0, 38.2884
38.568732803, 96.390, 1409.0, 37.5366
38.594993369, 96.390, 1441.0, 37.9605
38.621253934, 96.390, 1425.0, 37.7492
38.647514499, 96.390, 1551.0, 39.3827
38.673775065, 96.390, 1463.0, 38.2492
38.700035630, 96.390, 1558.0, 39.4715
38.726296195, 96.390, 1479.0, 38.4578
38.752556761, 96.390, 1507.0, 38.8201
38.778817326, 96.390, 1455.0, 38.1445
38.805077891, 96.390, 1479.0, 38.4578
38.831338457, 96.390, 1614.0, 40.1746
38.857599022, 96.390, 1559.0, 39.4842
38.883859587, 96.390, 1568.0, 39.5980
38.910120153, 96.390, 1540.0, 39.2428
38.936380718, 96.390, 1580.0, 39.7492
38.962641284, 96.390, 1527.0, 39.0768
38.988901849, 96.390, 1638.0, 40.4722
39.015162414, 96.390, 1553.0, 39.4081
39.041422980, 96.390, 1669.0, 40.8534
39.067683545, 96.390, 1690.0, 41.1096
39.093944110, 96.390, 1719.0, 41.4608
39.120204676, 96.390, 1683.0, 41.0244
39.146465241, 96.390, 1700.0, 41.2311
39.172725806, 96.390, 1627.0, 40.3361
39.198986372, 96.390, 1687.0, 41.0731
39.225246937, 96.390, 1637.0, 40.4599
39.251507502, 96.390, 1681.0, 41.0000
39.277768068, 96.390, 1791.0, 42.3202
39.304028633, 96.390, 1711.0, 41.3642
39.330289199, 96.390, 1789.0, 42.2966
39.356549764, 96.390, 1786.0, 42.2611
39.382810329, 96.390, 1747.0, 41.7971
39.409070895, 96.390, 1825.0, 42.7200
39.435331460, 96.390, 1779.0, 42.1782
39.461592025, 96.390, 1796.0, 42.3792
39.487852591, 96.390, 1779.0, 42.1782
39.514113156, 96.390, 1813.0, 42.5793
39.540373721, 96.390, 1684.0, 41.0366
39.566634287, 96.390, 1648.0, 40.5956
39.592894852, 96.390, 1674.0, 40.9145
39.619155417, 96.390, 1601.0, 40.0125
39.645415983, 96.390, 1552.0, 39.3954
39.671676548, 96.390, 1515.0, 38.9230
39.697937113, 96.390, 1462.0, 38.2361
39.724197679, 96.390, 1415.0, 37.6165
39.750458244, 96.390, 1488.0, 38.5746
39.776718810, 96.390, 1477.0, 38.4318
39.802979375, 96.390, 1402.0, 37.4433
39.829239940, 96.390, 1408.0, 37.5233
39.855500506, 96.390, 1379.0, 37.1349
39.881761071, 96.390, 1388.0, 37.2559
39.908021636, 96.390, 1316.0, 36.2767
39.934282202, 96.390, 1354.0, 36.7967
39.960542767, 96.390, 1302.0, 36.0832
39.986803332, 96.390, 1299.0, 36.0416
40.013063898, 96.390, 1294.0, 35.9722
40.039324463, 96.390, 1257.0, 35.4542
40.065585028, 96.390, 1273.0, 35.6791
40.091845594, 96.390, 1376.0, 37.0945
40.118106159, 96.390, 1300.0, 36.0555
40.144366725, 96.390, 1275.0, 35.7071
40.170627290, 96.390, 1270.0, 35.6371
40.196887855, 96.390, 1320.0, 36.3318
40.223148421, 96.390, 1220.0, 34.9285
40.249408986, 96.390, 1244.0, 35.2704
40.275669551, 96.390, 1192.0, 34.5254
40.301930117, 96.390, 1352.0, 36.7696
40.328190682, 96.390, 1215.0, 34.8569
40.354451247, 96.390, 1179.0, 34.3366
40.380711813, 96.390, 1267.0, 35.5949
40.406972378, 96.390, 1291.0, 35.9305
40.433232943, 96.390, 1274.0, 35.6931
40.459493509, 96.390, 1264.0, 35.5528
40.485754074, 96.390, 1187.0, 34.4529
40.512014639, 96.390, 1244.0, 35.2704
40.538275205, 96.390, 1154.0, 33.9706
40.564535770, 96.390, 1172.0, 34.2345
40.590796336, 96.390, 1214.0, 34.8425
40.617056901, 96.390, 1127.0, 33.5708
40.643317466, 96.390, 1154.0, 33.9706
40.669578032, 96.390, 1179.0, 34.3366
40.695838597, 96.390, 1157.0, 34.0147
40.722099162, 96.390, 1160.0, 34.0588
40.748359728, 96.390, 1127.0, 33.5708
40.774620293, 96.390, 1176.0, 34.2929
40.800880858, 96.390, 1196.0, 34.5832
40.827141424, 96.390, 1179.0, 34.3366
40.853401989, 96.390, 1285.0, 35.8469
40.879662554, 96.390, 1160.0, 34.0588
40.905923120, 96.390, 1153.0, 33.9559
40.932183685, 96.390, 1162.0, 34.0881
40.958444251, 96.390, 1179.0, 34.3366
40.984704816, 96.390, 1166.0, 34.1467
41.010965381, 96.390, 1132.0, 33.6452
41.037225947, 96.390, 1166.0, 34.1467
41.063486512, 96.390, 1173.0, 34.2491
41.089747077, 96.390, 1171.0, 34.2199
41.116007643, 96.390, 1181.0, 34.3657
41.142268208, 96.390, 1135.0, 33.6898
41.168528773, 96.390, 1187.0, 34.4529
41.194789339, 96.390, 1135.0, 33.6898
41.221049904, 96.390, 1163.0, 34.1028
41.247310469, 96.390, 1094.0, 33.0757
41.273571035, 96.390, 1129.0, 33.6006
41.299831600, 96.390, 1119.0, 33.4515
41.326092165, 96.390, 1097.0, 33.1210
41.352352731, 96.390, 1093.0, 33.0606
41.378613296, 96.390, 1142.0, 33.7935
41.404873862, 96.390, 1139.0, 33.7491
41.431134427, 96.390, 1146.0, 33.8526
41.457394992, 96.390, 1049.0, 32.3883
41.483655558, 96.390, 1065.0, 32.6343
41.509916123, 96.390, 1122.0, 33.4963
41.536176688, 96.390, 1169.0, 34.1906
41.562437254, 96.390, 1116.0, 33.4066
41.588697819, 96.390, 1127.0, 33.5708
41.614958384, 96.390, 1119.0, 33.4515
41.641218950, 96.390, 1119.0, 33.4515
41.667479515, 96.390, 1114.0, 33.3766
41.693740080, 96.390, 1139.0, 33.7491
41.720000646, 96.390, 1127.0, 33.5708
41.746261211, 96.390, 1130.0, 33.6155
41.772521776, 96.390, 1127.0, 33.5708
41.798782342, 96.390, 1124.0, 33.5261
41.825042907, 96.390, 1079.0, 32.8481
41.851303473, 96.390, 1098.0, 33.1361
41.877564038, 96.390, 1046.0, 32.3419
41.903824603, 96.390, 1116.0, 33.4066
41.930085169, 96.390, 1121.0, 33.4813
41.956345734, 96.390, 1082.0, 32.8938
41.982606299, 96.390, 1144.0, 33.8231
42.008866865, 96.390, 1068.0, 32.6803
42.035127430, 96.390, 1107.0, 33.2716
42.061387995, 96.390, 1059.0, 32.5423
42.087648561, 96.390, 1056.0, 32.4962
42.113909126, 96.390, 1037.0, 32.2025
42.140169691, 96.390, 1116.0, 33.4066
42.166430257, 96.390, 1084.0, 32.9242
42.192690822, 96.390, 1033.0, 32.1403
42.218951388, 96.390, 1111.0, 33.3317
42.245211953, 96.390, 1090.0, 33.0151
42.271472518, 96.390, 1073.0, 32.7567
42.297733084, 96.390, 1051.0, 32.4191
42.323993649, 96.390, 1079.0, 32.8481
42.350254214, 96.390, 1093.0, 33.0606
42.376514780, 96.390, 1009.0, 31.7648
42.402775345, 96.390, 1105.0, 33.2415
42.429035910, 96.390, 1051.0, 32.4191
42.455296476, 96.390, 1085.0, 32.9393
42.481557041, 96.390, 1065.0, 32.6343
42.507817606, 96.390, 1039.0, 32.2335
42.534078172, 96.390, 1042.0, 32.2800
42.560338737, 96.390, 1071.0, 32.7261
42.586599302, 96.390, 1039.0, 32.2335
42.612859868, 96.390, 1119.0, 33.4515
42.639120433, 96.390, 1065.0, 32.6343
42.665380999, 96.390, 1021.0, 31.9531
42.691641564, 96.390, 1018.0, 31.9061
42.717902129, 96.390, 1025.0, 32.0156
42.744162695, 96.390, 1101.0, 33.1813
42.770423260, 96.390, 1078.0, 32.8329
42.796683825, 96.390, 1123.0, 33.5112
42.822944391, 96.390, 1068.0, 32.6803
42.849204956, 96.390, 1036.0, 32.1870
42.875465521, 96.390, 1032.0, 32.1248
42.901726087, 96.390, 1034.0, 32.1559
42.927986652, 96.390, 1112.0, 33.3467
42.954247217, 96.390, 1042.0, 32.2800
42.980507783, 96.390, 1054.0, 32.4654
43.006768348, 96.390, 1054.0, 32.4654
43.033028914, 96.390, 1038.0, 32.2180
43.059289479, 96.390, 1029.0, 32.0780
43.085550044, 96.390, 1020.0, 31.9374
43.111810610, 96.390, 1011.0, 31.7962
43.138071175, 96.390, 1051.0, 32.4191
43.164331740, 96.390, 1109.0, 33.3017
43.190592306, 96.390, 1016.0, 31.8748
43.216852871, 96.390, 1088.0, 32.9848
43.243113436, 96.390, 1031.0, 32.1092
43.269374002, 96.390, 1042.0, 32.2800
43.295634567, 96.390, 1073.0, 32.7567
43.321895132, 96.390, 1099.0, 33.1512
43.348155698, 96.390, 1062.0, 32.5883
43.374416263, 96.390, 1028.0, 32.0624
43.400676828, 96.390, 1083.0, 32.9090
43.426937394, 96.390, 1147.0, 33.8674
43.453197959, 96.390, 1046.0, 32.3419
43.479458525, 96.390, 1065.0, 32.6343
43.505719090, 96.390, 1055.0, 32.4808
43.531979655, 96.390, 1039.0, 32.2335
43.558240221, 96.390, 1054.0, 32.4654
43.584500786, 96.390, 1067.0, 32.6650
43.610761351, 96.390, 1025.0, 32.0156
43.637021917, 96.390, 1058.0, 32.5269
43.663282482, 96.390, 1029.0, 32.0780
43.689543047, 96.390, 1055.0, 32.4808
43.715803613, 96.390, 1042.0, 32.2800
43.742064178, 96.390, 1098.0, 33.1361
43.768324743, 96.390, 1114.0, 33.3766
43.794585309, 96.390, 1045.0, 32.3265
43.820845874, 96.390, 1086.0, 32.9545
43.847106440, 96.390, 1026.0, 32.0312
43.873367005, 96.390, 1093.0, 33.0606
43.899627570, 96.390, 1043.0, 32.2955
43.925888136, 96.390, 1060.0, 32.5576
43.952148701, 96.390, 1029.0, 32.0780
43.978409266, 96.390, 1068.0, 32.6803
44.004669832, 96.390, 1003.0, 31.6702
44.030930397, 96.390, 1075.0, 32.7872
44.057190962, 96.390, 1063.0, 32.6037
44.083451528, 96.390, 1056.0, 32.4962
44.109712093, 96.390, 1086.0, 32.9545
44.135972658, 96.390, 1052.0, 32.4345
44.162233224, 96.390, 1101.0, 33.1813
44.188493789, 96.390, 1004.0, 31.6860
44.214754354, 96.390, 1048.0, 32.3728
44.241014920, 96.390, 1024.0, 32.0000
44.267275485, 96.390, 1071.0, 32.7261
44.293536051, 96.390, 1043.0, 32.2955
44.319796616, 96.390, 1015.0, 31.8591
44.346057181, 96.390, 1073.0, 32.7567
44.372317747, 96.390, 1053.0, 32.4500
44.398578312, 96.390, 1069.0, 32.6956
44.424838877, 96.390, 989.0, 31.4484
44.451099443, 96.390, 993.0, 31.5119
44.477360008, 96.390, 1077.0, 32.8177
44.503620573, 96.390, 1019.0, 31.9218
44.529881139, 96.390, 1063.0, 32.6037
44.556141704, 96.390, 1057.0, 32.5115
44.582402269, 96.390, 1052.0, 32.4345
44.608662835, 96.390, 1085.0, 32.9393
44.634923400, 96.390, 1076.0, 32.8024
44.661183966, 96.390, 1007.0, 31.7333
44.687444531, 96.390, 1039.0, 32.2335
44.713705096, 96.390, 1012.0, 31.8119
44.739965662, 96.390, 1027.0, 32.0468
44.766226227, 96.390, 1075.0, 32.7872
44.792486792, 96.390, 1042.0, 32.2800
44.818747358, 96.390, 1043.0, 32.2955
44.845007923, 96.390, 1057.0, 32.5115
44.871268488, 96.390, 1059.0, 32.5423
44.897529054, 96.390, 1023.0, 31.9844
44.923789619, 96.390, 1038.0, 32.2180
44.950050184, 96.390, 1078.0, 32.8329
44.976310750, 96.390, 1053.0, 32.4500
45.002571315, 96.390, 1131.0, 33.6303
45.028831880, 96.390, 1082.0, 32.8938
45.055092446, 96.390, 1118.0, 33.4365
45.081353011, 96.390, 1054.0, 32.4654
45.107613577, 96.390, 1071.0, 32.7261
45.133874142, 96.390, 1083.0, 32.9090
45.160134707, 96.390, 1111.0, 33.3317
45.186395273, 96.390, 1037.0, 32.2025
45.212655838, 96.390, 1134.0, 33.6749
45.238916403, 96.390, 1133.0, 33.6601
45.265176969, 96.390, 1068.0, 32.6803
45.291437534, 96.390, 1036.0, 32.1870
45.317698099, 96.390, 1161.0, 34.0735
45.343958665, 96.390, 1084.0, 32.9242
45.370219230, 96.390, 1075.0, 32.7872
45.396479795, 96.390, 1096.0, 33.1059
45.422740361, 96.390, 1126.0, 33.5559
45.449000926, 96.390, 1063.0, 32.6037
45.475261492, 96.390, 1113.0, 33.3617
45.501522057, 96.390, 1112.0, 33.3467
45.527782622, 96.390, 1094.0, 33.0757
45.554043188, 96.390, 1115.0, 33.3916
45.580303753, 96.390, 1105.0, 33.2415
45.606564318, 96.390, 1152.0, 33.9411
45.632824884, 96.390, 1154.0, 33.9706
45.659085449, 96.390, 1129.0, 33.6006
45.685346014, 96.390, 1114.0, 33.3766
45.711606580, 96.390, 1139.0, 33.7491
45.737867145, 96.390, 1145.0, 33.8378
45.764127710, 96.390, 1185.0, 34.4238
45.790388276, 96.390, 1126.0, 33.5559
45.816648841, 96.390, 1125.0, 33.5410
45.842909406, 96.390, 1153.0, 33.9559
45.869169972, 96.390, 1160.0, 34.0588
45.895430537, 96.390, 1174.0, 34.2637
45.921691103, 96.390, 1073.0, 32.7567
45.947951668, 96.390, 1153.0, 33.9559
45.974212233, 96.390, 1193.0, 34.5398
46.000472799, 96.390, 1171.0, 34.2199
46.026733364, 96.390, 1190.0, 34.4964
46.052993929, 96.390, 1267.0, 35.5949
46.079254495, 96.390, 1159.0, 34.0441
46.105515060, 96.390, 1186.0, 34.4384
46.131775625, 96.390, 1256.0, 35.4401
46.158036191, 96.390, 1268.0, 35.6090
46.184296756, 96.390, 1265.0, 35.5668
46.210557321, 96.390, 1224.0, 34.9857
46.236817887, 96.390, 1274.0, 35.6931
46.263078452, 96.390, 1201.0, 34.6554
46.289339017, 96.390, 1281.0, 35.7911
46.315599583, 96.390, 1294.0, 35.9722
46.341860148, 96.390, 1294.0, 35.9722
46.368120714, 96.390, 1304.0, 36.1109
46.394381279, 96.390, 1257.0, 35.4542
46.420641844, 96.390, 1313.0, 36.2353
46.446902410, 96.390, 1247.0, 35.3129
46.473162975, 96.390, 1248.0, 35.3270
46.499423540, 96.390, 1302.0, 36.0832
46.525684106, 96.390, 1289.0, 35.9026
46.551944671, 96.390, 1247.0, 35.3129
46.578205236, 96.390, 1298.0, 36.0278
46.604465802, 96.390, 1280.0, 35.7771
46.630726367, 96.390, 1312.0, 36.2215
46.656986932, 96.390, 1347.0, 36.7015
46.683247498, 96.390, 1371.0, 37.0270
46.709508063, 96.390, 1426.0, 37.7624
46.735768629, 96.390, 1337.0, 36.5650
46.762029194, 96.390, 1434.0, 37.8682
46.788289759, 96.390, 1369.0, 37.0000
46.814550325, 96.390, 1432.0, 37.8418
46.840810890, 96.390, 1424.0, 37.7359
46.867071455, 96.390, 1379.0, 37.1349
46.893332021, 96.390, 1419.0, 37.6696
46.919592586, 96.390, 1416.0, 37.6298
46.945853151, 96.390, 1439.0, 37.9342
46.972113717, 96.390, 1437.0, 37.9078
46.998374282, 96.390, 1346.0, 36.6879
47.024634847, 96.390, 1403.0, 37.4566
47.050895413, 96.390, 1365.0, 36.9459
47.077155978, 96.390, 1367.0, 36.9730
47.103416543, 96.390, 1267.0, 35.5949
47.129677109, 96.390, 1343.0, 36.6470
47.155937674, 96.390, 1271.0, 35.6511
47.182198240, 96.390, 1233.0, 35.1141
47.208458805, 96.390, 1200.0, 34.6410
47.234719370, 96.390, 1284.0, 35.8329
47.260979936, 96.390, 1164.0, 34.1174
47.287240501, 96.390, 1145.0, 33.8378
47.313501066, 96.390, 1134.0, 33.6749
47.339761632, 96.390, 1139.0, 33.7491
47.366022197, 96.390, 1161.0, 34.0735
47.392282762, 96.390, 1138.0, 33.7343
47.418543328, 96.390, 1105.0, 33.2415
47.444803893, 96.390, 1101.0, 33.1813
47.471064458, 96.390, 1073.0, 32.7567
47.497325024, 96.390, 1050.0, 32.4037
47.523585589, 96.390, 1095.0, 33.0908
47.549846155, 96.390, 1120.0, 33.4664
47.576106720, 96.390, 1068.0, 32.6803
47.602367285, 96.390, 1029.0, 32.0780
47.628627851, 96.390, 1030.0, 32.0936
47.654888416, 96.390, 1090.0, 33.0151
47.681148981, 96.390, 1070.0, 32.7109
47.707409547, 96.390, 1041.0, 32.2645
47.733670112, 96.390, 997.0, 31.5753
47.759930677, 96.390, 1064.0, 32.6190
47.786191243, 96.390, 1045.0, 32.3265
47.812451808, 96.390, 1018.0, 31.9061
47.838712373, 96.390, 1002.0, 31.6544
47.864972939, 96.390, 1059.0, 32.5423
47.891233504, 96.390, 1010.0, 31.7805
47.917494069, 96.390, 1006.0, 31.7175
47.943754635, 96.390, 959.0, 30.9677
47.970015200, 96.390, 1034.0, 32.1559
47.996275766, 96.390, 1006.0, 31.7175
48.022536331, 96.390, 982.0, 31.3369
48.048796896, 96.390, 980.0, 31.3050
48.075057462, 96.390, 1011.0, 31.7962
48.101318027, 96.390, 952.0, 30.8545
48.127578592, 96.390, 1013.0, 31.8277
48.153839158, 96.390, 965.0, 31.0644
48.180099723, 96.390, 988.0, 31.4325
48.206360288, 96.390, 968.0, 31.1127
48.232620854, 96.390, 1012.0, 31.8119
48.258881419, 96.390, 927.0, 30.4467
48.285141984, 96.390, 953.0, 30.8707
48.311402550, 96.390, 922.0, 30.3645
48.337663115, 96.390, 915.0, 30.2490
48.363923681, 96.390, 893.0, 29.8831
48.390184246, 96.390, 994.0, 31.5278
48.416444811, 96.390, 1016.0, 31.8748
48.442705377, 96.390, 963.0, 31.0322
48.468965942, 96.390, 924.0, 30.3974
48.495226507, 96.390, 929.0, 30.4795
48.521487073, 96.390, 939.0, 30.6431
48.547747638, 96.390, 947.0, 30.7734
48.574008203, 96.390, 903.0, 30.0500
48.600268769, 96.390, 963.0, 31.0322
48.626529334, 96.390, 937.0, 30.6105
48.652789899, 96.390, 904.0, 30.0666
48.679050465, 96.390, 931.0, 30.5123
48.705311030, 96.390, 917.0, 30.2820
48.731571595, 96.390, 920.0, 30.3315
48.757832161, 96.390, 906.0, 30.0998
48.784092726, 96.390, 949.0, 30.8058
48.810353292, 96.390, 894.0, 29.8998
48.836613857, 96.390, 905.0, 30.0832
48.862874422, 96.390, 876.0, 29.5973
48.889134988, 96.390, 900.0, 30.0000
48.915395553, 96.390, 973.0, 31.1929
48.941656118, 96.390, 907.0, 30.1164
48.967916684, 96.390, 889.0, 29.8161
48.994177249, 96.390, 911.0, 30.1828
49.020437814, 96.390, 932.0, 30.5287
49.046698380, 96.390, 882.0, 29.6985
49.072958945, 96.390, 880.0, 29.6648
49.099219510, 96.390, 873.0, 29.5466
49.125480076, 96.390, 883.0, 29.7153
49.151740641, 96.390, 905.0, 30.0832
49.178001207, 96.390, 936.0, 30.5941
49.204261772, 96.390, 890.0, 29.8329
49.230522337, 96.390, 939.0, 30.6431
49.256782903, 96.390, 881.0, 29.6816
49.283043468, 96.390, 826.0, 28.7402
49.309304033, 96.390, 915.0, 30.2490
49.335564599, 96.390, 886.0, 29.7658
49.361825164, 96.390, 880.0, 29.6648
49.388085729, 96.390, 836.0, 28.9137
49.414346295, 96.390, 883.0, 29.7153
49.440606860, 96.390, 893.0, 29.8831
49.466867425, 96.390, 862.0, 29.3598
49.493127991, 96.390, 839.0, 28.9655
49.519388556, 96.390, 861.0, 29.3428
49.545649121, 96.390, 894.0, 29.8998
49.571909687, 96.390, 793.0, 28.1603
49.598170252, 96.390, 864.0, 29.3939
49.624430818, 96.390, 916.0, 30.2655
49.650691383, 96.390, 852.0, 29.1890
49.676951948, 96.390, 866.0, 29.4279
49.703212514, 96.390, 885.0, 29.7489
49.729473079, 96.390, 894.0, 29.8998
49.755733644, 96.390, 853.0, 29.2062
49.781994210, 96.390, 886.0, 29.7658
49.808254775, 96.390, 869.0, 29.4788
49.834515340, 96.390, 854.0, 29.2233
49.860775906, 96.390, 866.0, 29.4279
49.887036471, 96.390, 821.0, 28.6531
49.913297036, 96.390, 859.0, 29.3087
49.939557602, 96.390, 825.0, 28.7228
49.965818167, 96.390, 881.0, 29.6816
49.992078733, 96.390, 891.0, 29.8496
50.018339298, 96.390, 825.0, 28.7228
50.044599863, 96.390, 842.0, 29.0172
50.070860429, 96.390, 846.0, 29.0861
50.097120994, 96.390, 839.0, 28.9655
50.123381559, 96.390, 853.0, 29.2062
50.149642125, 96.390, 835.0, 28.8964
50.175902690, 96.390, 895.0, 29.9166
50.202163255, 96.390, 851.0, 29.1719
50.228423821, 96.390, 836.0, 28.9137
50.254684386, 96.390, 854.0, 29.2233
50.280944951, 96.390, 856.0, 29.2575
50.307205517, 96.390, 842.0, 29.0172
50.333466082, 96.390, 865.0, 29.4109
50.359726647, 96.390, 826.0, 28.7402
50.385987213, 96.390, 888.0, 29.7993
50.412247778, 96.390, 875.0, 29.5804
50.438508344, 96.390, 846.0, 29.0861
50.464768909, 96.390, 826.0, 28.7402
50.491029474, 96.390, 890.0, 29.8329
50.517290040, 96.390, 846.0, 29.0861
50.543550605, 96.390, 874.0, 29.5635
50.569811170, 96.390, 817.0, 28.5832
50.596071736, 96.390, 809.0, 28.4429
50.622332301, 96.390, 844.0, 29.0517
50.648592866, 96.390, 822.0, 28.6705
50.674853432, 96.390, 833.0, 28.8617
50.701113997, 96.390, 815.0, 28.5482
50.727374562, 96.390, 813.0, 28.5132
50.753635128, 96.390, 840.0, 28.9828
50.779895693, 96.390, 877.0, 29.6142
50.806156258, 96.390, 868.0, 29.4618
50.832416824, 96.390, 769.0, 27.7308
50.858677389, 96.390, 816.0, 28.5657
50.884937955, 96.390, 846.0, 29.0861
50.911198520, 96.390, 785.0, 28.0179
50.937459085, 96.390, 754.0, 27.4591
50.963719651, 96.390, 845.0, 29.0689
50.989980216, 96.390, 797.0, 28.2312
51.016240781, 96.390, 834.0, 28.8791
51.042501347, 96.390, 796.0, 28.2135
51.068761912, 96.390, 778.0, 27.8927
51.095022477, 96.390, 838.0, 28.9482
51.121283043, 96.390, 806.0, 28.3901
51.147543608, 96.390, 812.0, 28.4956
51.173804173, 96.390, 846.0, 29.0861
51.200064739, 96.390, 813.0, 28.5132
51.226325304, 96.390, 858.0, 29.2916
51.252585870, 96.390, 783.0, 27.9821
51.278846435, 96.390, 801.0, 28.3019
51.305107000, 96.390, 793.0, 28.1603
51.331367566, 96.390, 816.0, 28.5657
51.357628131, 96.390, 765.0, 27.6586
51.383888696, 96.390, 843.0, 29.0345
51.410149262, 96.390, 755.0, 27.4773
51.436409827, 96.390, 791.0, 28.1247
51.462670392, 96.390, 790.0, 28.1069
51.488930958, 96.390, 821.0, 28.6531
51.515191523, 96.390, 813.0, 28.5132
51.541452088, 96.390, 793.0, 28.1603
51.567712654, 96.390, 806.0, 28.3901
51.593973219, 96.390, 762.0, 27.6043
51.620233784, 96.390, 788.0, 28.0713
51.646494350, 96.390, 805.0, 28.3725
51.672754915, 96.390, 796.0, 28.2135
51.699015481, 96.390, 844.0, 29.0517
51.725276046, 96.390, 838.0, 28.9482
51.751536611, 96.390, 826.0, 28.7402
51.777797177, 96.390, 777.0, 27.8747
51.804057742, 96.390, 825.0, 28.7228
51.830318307, 96.390, 777.0, 27.8747
51.856578873, 96.390, 822.0, 28.6705
51.882839438, 96.390, 787.0, 28.0535
51.909100003, 96.390, 780.0, 27.9285
51.935360569, 96.390, 812.0, 28.4956
51.961621134, 96.390, 759.0, 27.5500
51.987881699, 96.390, 806.0, 28.3901
52.014142265, 96.390, 847.0, 29.1033
52.040402830, 96.390, 832.0, 28.8444
52.066663396, 96.390, 777.0, 27.8747
52.092923961, 96.390, 795.0, 28.1957
52.119184526, 96.390, 723.0, 26.8887
52.145445092, 96.390, 798.0, 28.2489
52.171705657, 96.390, 789.0, 28.0891
52.197966222, 96.390, 781.0, 27.9464
52.224226788, 96.390, 820.0, 28.6356
52.250487353, 96.390, 765.0, 27.6586
52.276747918, 96.390, 809.0, 28.4429
52.303008484, 96.390, 787.0, 28.0535
52.329269049, 96.390, 798.0, 28.2489
52.355529614, 96.390, 816.0, 28.5657
52.381790180, 96.390, 812.0, 28.4956
52.408050745, 96.390, 805.0, 28.3725
52.434311310, 96.390, 783.0, 27.9821
52.460571876, 96.390, 826.0, 28.7402
52.486832441, 96.390, 789.0, 28.0891
52.513093007, 96.390, 797.0, 28.2312
52.539353572, 96.390, 825.0, 28.7228
52.565614137, 96.390, 825.0, 28.7228
52.591874703, 96.390, 776.0, 27.8568
52.618135268, 96.390, 848.0, 29.1204
52.644395833, 96.390, 810.0, 28.4605
52.670656399, 96.390, 823.0, 28.6880
52.696916964, 96.390, 823.0, 28.6880
52.723177529, 96.390, 818.0, 28.6007
52.749438095, 96.390, 870.0, 29.4958
52.775698660, 96.390, 810.0, 28.4605
52.801959225, 96.390, 787.0, 28.0535
52.828219791, 96.390, 798.0, 28.2489
52.854480356, 96.390, 809.0, 28.4429
52.880740922, 96.390, 778.0, 27.8927
52.907001487, 96.390, 842.0, 29.0172
52.933262052, 96.390, 830.0, 28.8097
52.959522618, 96.390, 808.0, 28.4253
52.985783183, 96.390, 800.0, 28.2843
53.012043748, 96.390, 803.0, 28.3373
53.038304314, 96.390, 802.0, 28.3196
53.064564879, 96.390, 782.0, 27.9643
53.090825444, 96.390, 858.0, 29.2916
53.117086010, 96.390, 841.0, 29.0000
53.143346575, 96.390, 860.0, 29.3258
53.169607140, 96.390, 787.0, 28.0535
53.195867706, 96.390, 768.0, 27.7128
53.222128271, 96.390, 783.0, 27.9821
53.248388836, 96.390, 805.0, 28.3725
53.274649402, 96.390, 818.0, 28.6007
53.300909967, 96.390, 832.0, 28.8444
53.327170533, 96.390, 786.0, 28.0357
53.353431098, 96.390, 773.0, 27.8029
53.379691663, 96.390, 738.0, 27.1662
53.405952229, 96.390, 763.0, 27.6225
53.432212794, 96.390, 761.0, 27.5862
53.458473359, 96.390, 728.0, 26.9815
53.484733925, 96.390, 748.0, 27.3496
53.510994490, 96.390, 824.0, 28.7054
53.537255055, 96.390, 784.0, 28.0000
53.563515621, 96.390, 732.0, 27.0555
53.589776186, 96.390, 733.0, 27.0740
53.616036751, 96.390, 769.0, 27.7308
53.642297317, 96.390, 781.0, 27.9464
53.668557882, 96.390, 757.0, 27.5136
53.694818448, 96.390, 769.0, 27.7308
53.721079013, 96.390, 781.0, 27.9464
53.747339578, 96.390, 757.0, 27.5136
53.773600144, 96.390, 749.0, 27.3679
53.799860709, 96.390, 802.0, 28.3196
53.826121274, 96.390, 754.0, 27.4591
53.852381840, 96.390, 749.0, 27.3679
53.878642405, 96.390, 776.0, 27.8568
53.904902970, 96.390, 699.0, 26.4386
53.931163536, 96.390, 729.0, 27.0000
53.957424101, 96.390, 746.0, 27.3130
53.983684666, 96.390, 773.0, 27.8029
54.009945232, 96.390, 731.0, 27.0370
54.036205797, 96.390, 727.0, 26.9629
54.062466362, 96.390, 737.0, 27.1477
54.088726928, 96.390, 760.0, 27.5681
54.114987493, 96.390, 713.0, 26.7021
54.141248059, 96.390, 761.0, 27.5862
54.167508624, 96.390, 761.0, 27.5862
54.193769189, 96.390, 710.0, 26.6458
54.220029755, 96.390, 701.0, 26.4764
54.246290320, 96.390, 743.0, 27.2580
54.272550885, 96.390, 739.0, 27.1846
54.298811451, 96.390, 774.0, 27.8209
54.325072016, 96.390, 777.0, 27.8747
54.351332581, 96.390, 764.0, 27.6405
54.377593147, 96.390, 718.0, 26.7955
54.403853712, 96.390, 727.0, 26.9629
54.430114277, 96.390, 763.0, 27.6225
54.456374843, 96.390, 707.0, 26.5895
54.482635408, 96.390, 722.0, 26.8701
54.508895973, 96.390, 733.0, 27.0740
54.535156539, 96.390, 754.0, 27.4591
54.561417104, 96.390, 739.0, 27.1846
54.587677670, 96.390, 762.0, 27.6043
54.613938235, 96.390, 697.0, 26.4008
54.640198800, 96.390, 754.0, 27.4591
54.666459366, 96.390, 712.0, 26.6833
54.692719931, 96.390, 765.0, 27.6586
54.718980496, 96.390, 704.0, 26.5330
54.745241062, 96.390, 685.0, 26.1725
54.771501627, 96.390, 780.0, 27.9285
54.797762192, 96.390, 730.0, 27.0185
54.824022758, 96.390, 751.0, 27.4044
54.850283323, 96.390, 730.0, 27.0185
54.876543888, 96.390, 697.0, 26.4008
54.902804454, 96.390, 701.0, 26.4764
54.929065019, 96.390, 735.0, 27.1109
54.955325585, 96.390, 706.0, 26.5707
54.981586150, 96.390, 752.0, 27.4226
55.007846715, 96.390, 731.0, 27.0370
55.034107281, 96.390, 690.0, 26.2679
55.060367846, 96.390, 754.0, 27.4591
55.086628411, 96.390, 768.0, 27.7128
55.112888977, 96.390, 722.0, 26.8701
55.139149542, 96.390, 722.0, 26.8701
55.165410107, 96.390, 741.0, 27.2213
55.191670673, 96.390, 736.0, 27.1293
55.217931238, 96.390, 691.0, 26.2869
55.244191803, 96.390, 773.0, 27.8029
55.270452369, 96.390, 726.0, 26.9444
55.296712934, 96.390, 673.0, 25.9422
55.322973499, 96.390, 734.0, 27.0924
55.349234065, 96.390, 747.0, 27.3313
55.375494630, 96.390, 761.0, 27.5862
55.401755196, 96.390, 736.0, 27.1293
55.428015761, 96.390, 762.0, 27.6043
55.454276326, 96.390, 743.0, 27.2580
55.480536892, 96.390, 714.0, 26.7208
55.506797457, 96.390, 749.0, 27.3679
55.533058022, 96.390, 788.0, 28.0713
55.559318588, 96.390, 723.0, 26.8887
55.585579153, 96.390, 738.0, 27.1662
55.611839718, 96.390, 788.0, 28.0713
55.638100284, 96.390, 736.0, 27.1293
55.664360849, 96.390, 714.0, 26.7208
55.690621414, 96.390, 717.0, 26.7769
55.716881980, 96.390, 786.0, 28.0357
55.743142545, 96.390, 765.0, 27.6586
55.769403111, 96.390, 725.0, 26.9258
55.795663676, 96.390, 746.0, 27.3130
55.821924241, 96.390, 712.0, 26.6833
55.848184807, 96.390, 745.0, 27.2947
55.874445372, 96.390, 693.0, 26.3249
55.900705937, 96.390, 730.0, 27.0185
55.926966503, 96.390, 672.0, 25.9230
55.953227068, 96.390, 722.0, 26.8701
55.979487633, 96.390, 789.0, 28.0891
56.005748199, 96.390, 780.0, 27.9285
56.032008764, 96.390, 713.0, 26.7021
56.058269329, 96.390, 738.0, 27.1662
56.084529895, 96.390, 791.0, 28.1247
56.110790460, 96.390, 794.0, 28.1780
56.137051025, 96.390, 702.0, 26.4953
56.163311591, 96.390, 728.0, 26.9815
56.189572156, 96.390, 783.0, 27.9821
56.215832722, 96.390, 768.0, 27.7128
56.242093287, 96.390, 749.0, 27.3679
56.268353852, 96.390, 784.0, 28.0000
56.294614418, 96.390, 757.0, 27.5136
56.320874983, 96.390, 755.0, 27.4773
56.347135548, 96.390, 750.0, 27.3861
56.373396114, 96.390, 737.0, 27.1477
56.399656679, 96.390, 782.0, 27.9643
56.425917244, 96.390, 766.0, 27.6767
56.452177810, 96.390, 733.0, 27.0740
56.478438375, 96.390, 783.0, 27.9821
56.504698940, 96.390, 762.0, 27.6043
56.530959506, 96.390, 753.0, 27.4408
56.557220071, 96.390, 768.0, 27.7128
56.583480637, 96.390, 740.0, 27.2029
56.609741202, 96.390, 681.0, 26.0960
56.636001767, 96.390, 729.0, 27.0000
56.662262333, 96.390, 696.0, 26.3818
56.688522898, 96.390, 682.0, 26.1151
56.714783463, 96.390, 754.0, 27.4591
56.741044029, 96.390, 757.0, 27.5136
56.767304594, 96.390, 757.0, 27.5136
56.793565159, 96.390, 697.0, 26.4008
56.819825725, 96.390, 756.0, 27.4955
56.846086290, 96.390, 729.0, 27.0000
56.872346855, 96.390, 741.0, 27.2213
56.898607421, 96.390, 710.0, 26.6458
56.924867986, 96.390, 720.0, 26.8328
56.951128551, 96.390, 735.0, 27.1109
56.977389117, 96.390, 768.0, 27.7128
57.003649682, 96.390, 764.0, 27.6405
57.029910248, 96.390, 715.0, 26.7395
57.056170813, 96.390, 704.0, 26.5330
57.082431378, 96.390, 678.0, 26.0384
57.108691944, 96.390, 670.0, 25.8844
57.134952509, 96.390, 695.0, 26.3629
57.161213074, 96.390, 697.0, 26.4008
57.187473640, 96.390, 703.0, 26.5141
57.213734205, 96.390, 717.0, 26.7769
57.239994770, 96.390, 720.0, 26.8328
57.266255336, 96.390, 700.0, 26.4575
57.292515901, 96.390, 678.0, 26.0384
57.318776466, 96.390, 718.0, 26.7955
57.345037032, 96.390, 727.0, 26.9629
57.371297597, 96.390, 698.0, 26.4197
57.397558163, 96.390, 700.0, 26.4575
57.423818728, 96.390, 727.0, 26.9629
57.450079293, 96.390, 702.0, 26.4953
57.476339859, 96.390, 677.0, 26.0192
57.502600424, 96.390, 758.0, 27.5318
57.528860989, 96.390, 696.0, 26.3818
57.555121555, 96.390, 668.0, 25.8457
57.581382120, 96.390, 700.0, 26.4575
57.607642685, 96.390, 723.0, 26.8887
57.633903251, 96.390, 722.0, 26.8701
57.660163816, 96.390, 646.0, 25.4165
57.686424381, 96.390, 743.0, 27.2580
57.712684947, 96.390, 746.0, 27.3130
57.738945512, 96.390, 736.0, 27.1293
57.765206077, 96.390, 766.0, 27.6767
57.791466643, 96.390, 744.0, 27.2764
57.817727208, 96.390, 739.0, 27.1846
57.843987774, 96.390, 757.0, 27.5136
57.870248339, 96.390, 703.0, 26.5141
57.896508904, 96.390, 691.0, 26.2869
57.922769470, 96.390, 724.0, 26.9072
57.949030035, 96.390, 738.0, 27.1662
57.975290600, 96.390, 706.0, 26.5707
58.001551166, 96.390, 706.0, 26.5707
58.027811731, 96.390, 650.0, 25.4951
58.054072296, 96.390, 712.0, 26.6833
58.080332862, 96.390, 754.0, 27.4591
58.106593427, 96.390, 710.0, 26.6458
58.132853992, 96.390, 736.0, 27.1293
58.159114558, 96.390, 683.0, 26.1343
58.185375123, 96.390, 731.0, 27.0370
58.211635689, 96.390, 705.0, 26.5518
58.237896254, 96.390, 735.0, 27.1109
58.264156819, 96.390, 714.0, 26.7208
58.290417385, 96.390, 670.0, 25.8844
58.316677950, 96.390, 690.0, 26.2679
58.342938515, 96.390, 683.0, 26.1343
58.369199081, 96.390, 734.0, 27.0924
58.395459646, 96.390, 723.0, 26.8887
58.421720211, 96.390, 726.0, 26.9444
58.447980777, 96.390, 707.0, 26.5895
58.474241342, 96.390, 754.0, 27.4591
58.500501907, 96.390, 731.0, 27.0370
58.526762473, 96.390, 747.0, 27.3313
58.553023038, 96.390, 801.0, 28.3019
58.579283603, 96.390, 716.0, 26.7582
58.605544169, 96.390, 719.0, 26.8142
58.631804734, 96.390, 730.0, 27.0185
58.658065300, 96.390, 708.0, 26.6083
58.684325865, 96.390, 758.0, 27.5318
58.710586430, 96.390, 769.0, 27.7308
58.736846996, 96.390, 717.0, 26.7769
58.763107561, 96.390, 707.0, 26.5895
58.789368126, 96.390, 683.0, 26.1343
58.815628692, 96.390, 787.0, 28.0535
58.841889257, 96.390, 724.0, 26.9072
58.868149822, 96.390, 739.0, 27.1846
58.894410388, 96.390, 712.0, 26.6833
58.920670953, 96.390, 743.0, 27.2580
58.946931518, 96.390, 749.0, 27.3679
58.973192084, 96.390, 748.0, 27.3496
58.999452649, 96.390, 744.0, 27.2764
59.025713214, 96.390, 769.0, 27.7308
59.051973780, 96.390, 775.0, 27.8388
59.078234345, 96.390, 767.0, 27.6948
59.104494911, 96.390, 743.0, 27.2580
59.130755476, 96.390, 763.0, 27.6225
59.157016041, 96.390, 758.0, 27.5318
59.183276607, 96.390, 804.0, 28.3549
59.209537172, 96.390, 753.0, 27.4408
59.235797737, 96.390, 776.0, 27.8568
59.262058303, 96.390, 810.0, 28.4605
59.288318868, 96.390, 761.0, 27.5862
59.314579433, 96.390, 801.0, 28.3019
59.340839999, 96.390, 765.0, 27.6586
59.367100564, 96.390, 768.0, 27.7128
59.393361129, 96.390, 793.0, 28.1603
59.419621695, 96.390, 786.0, 28.0357
59.445882260, 96.390, 800.0, 28.2843
59.472142826, 96.390, 778.0, 27.8927
59.498403391, 96.390, 834.0, 28.8791
59.524663956, 96.390, 722.0, 26.8701
59.550924522, 96.390, 807.0, 28.4077
59.577185087, 96.390, 793.0, 28.1603
59.603445652, 96.390, 824.0, 28.7054
59.629706218, 96.390, 856.0, 29.2575
59.655966783, 96.390, 854.0, 29.2233
59.682227348, 96.390, 816.0, 28.5657
59.708487914, 96.390, 863.0, 29.3769
59.734748479, 96.390, 876.0, 29.5973
59.761009044, 96.390, 867.0, 29.4449
59.787269610, 96.390, 811.0, 28.4781
59.813530175, 96.390, 879.0, 29.6479
59.839790740, 96.390, 879.0, 29.6479
59.866051306, 96.390, 927.0, 30.4467
59.892311871, 96.390, 911.0, 30.1828
59.918572437, 96.390, 917.0, 30.2820
59.944833002, 96.390, 866.0, 29.4279
59.971093567, 96.390, 966.0, 31.0805
59.997354133, 96.390, 990.0, 31.4643
60.023614698, 96.390, 893.0, 29.8831
60.049875263, 96.390, 952.0, 30.8545
60.076135829, 96.390, 971.0, 31.1609
60.102396394, 96.390, 924.0, 30.3974
60.128656959, 96.390, 979.0, 31.2890
60.154917525, 96.390, 1013.0, 31.8277
60.181178090, 96.390, 1002.0, 31.6544
60.207438655, 96.390, 1001.0, 31.6386
60.233699221, 96.390, 987.0, 31.4166
60.259959786, 96.390, 963.0, 31.0322
60.286220352, 96.390, 1033.0, 32.1403
60.312480917, 96.390, 1068.0, 32.6803
60.338741482, 96.390, 1049.0, 32.3883
60.365002048, 96.390, 1073.0, 32.7567
60.391262613, 96.390, 1076.0, 32.8024
60.417523178, 96.390, 1091.0, 33.0303
60.443783744, 96.390, 1122.0, 33.4963
60.470044309, 96.390, 1185.0, 34.4238
60.496304874, 96.390, 1163.0, 34.1028
60.522565440, 96.390, 1116.0, 33.4066
60.548826005, 96.390, 1172.0, 34.2345
60.575086570, 96.390, 1135.0, 33.6898
60.601347136, 96.390, 1178.0, 34.3220
60.627607701, 96.390, 1274.0, 35.6931
60.653868266, 96.390, 1168.0, 34.1760
60.680128832, 96.390, 1212.0, 34.8138
60.706389397, 96.390, 1168.0, 34.1760
60.732649963, 96.390, 1236.0, 35.1568
60.758910528, 96.390, 1279.0, 35.7631
60.785171093, 96.390, 1199.0, 34.6266
60.811431659, 96.390, 1285.0, 35.8469
60.837692224, 96.390, 1277.0, 35.7351
60.863952789, 96.390, 1229.0, 35.0571
60.890213355, 96.390, 1227.0, 35.0286
60.916473920, 96.390, 1197.0, 34.5977
60.942734485, 96.390, 1302.0, 36.0832
60.968995051, 96.390, 1218.0, 34.8999
60.995255616, 96.390, 1173.0, 34.2491
61.021516181, 96.390, 1203.0, 34.6843
61.047776747, 96.390, 1179.0, 34.3366
61.074037312, 96.390, 1257.0, 35.4542
61.100297878, 96.390, 1115.0, 33.3916
61.126558443, 96.390, 1154.0, 33.9706
61.152819008, 96.390, 1117.0, 33.4215
61.179079574, 96.390, 1180.0, 34.3511
61.205340139, 96.390, 1136.0, 33.7046
61.231600704, 96.390, 1105.0, 33.2415
61.257861270, 96.390, 1072.0, 32.7414
61.284121835, 96.390, 1172.0, 34.2345
61.310382400, 96.390, 1076.0, 32.8024
61.336642966, 96.390, 1086.0, 32.9545
61.362903531, 96.390, 1144.0, 33.8231
61.389164096, 96.390, 1036.0, 32.1870
61.415424662, 96.390, 1054.0, 32.4654
61.441685227, 96.390, 1094.0, 33.0757
61.467945792, 96.390, 1086.0, 32.9545
61.494206358, 96.390, 1100.0, 33.1662
61.520466923, 96.390, 1043.0, 32.2955
61.546727489, 96.390, 1080.0, 32.8634
61.572988054, 96.390, 1098.0, 33.1361
61.599248619, 96.390, 1029.0, 32.0780
61.625509185, 96.390, 1039.0, 32.2335
61.651769750, 96.390, 1032.0, 32.1248
61.678030315, 96.390, 1107.0, 33.2716
61.704290881, 96.390, 1072.0, 32.7414
61.730551446, 96.390, 1107.0, 33.2716
61.756812011, 96.390, 1065.0, 32.6343
61.783072577, 96.390, 1130.0, 33.6155
61.809333142, 96.390, 1110.0, 33.3167
61.835593707, 96.390, 1150.0, 33.9116
61.861854273, 96.390, 1133.0, 33.6601
61.888114838, 96.390, 1121.0, 33.4813
61.914375404, 96.390, 1151.0, 33.9264
61.940635969, 96.390, 1109.0, 33.3017
61.966896534, 96.390, 1186.0, 34.4384
61.993157100, 96.390, 1141.0, 33.7787
62.019417665, 96.390, 1191.0, 34.5109
62.045678230, 96.390, 1098.0, 33.1361
62.071938796, 96.390, 1148.0, 33.8821
62.098199361, 96.390, 1148.0, 33.8821
62.124459926, 96.390, 1134.0, 33.6749
62.150720492, 96.390, 1108.0, 33.2866
62.176981057, 96.390, 1135.0, 33.6898
62.203241622, 96.390, 1138.0, 33.7343
62.229502188, 96.390, 1139.0, 33.7491
62.255762753, 96.390, 1102.0, 33.1964
62.282023318, 96.390, 1071.0, 32.7261
62.308283884, 96.390, 1127.0, 33.5708
62.334544449, 96.390, 1082.0, 32.8938
62.360805015, 96.390, 997.0, 31.5753
62.387065580, 96.390, 1054.0, 32.4654
62.413326145, 96.390, 1018.0, 31.9061
62.439586711, 96.390, 1010.0, 31.7805
62.465847276, 96.390, 1027.0, 32.0468
62.492107841, 96.390, 985.0, 31.3847
62.518368407, 96.390, 965.0, 31.0644
62.544628972, 96.390, 974.0, 31.2090
62.570889537, 96.390, 897.0, 29.9500
62.597150103, 96.390, 925.0, 30.4138
62.623410668, 96.390, 922.0, 30.3645
62.649671233, 96.390, 909.0, 30.1496
62.675931799, 96.390, 1018.0, 31.9061
62.702192364, 96.390, 932.0, 30.5287
62.728452930, 96.390, 850.0, 29.1548
62.754713495, 96.390, 865.0, 29.4109
62.780974060, 96.390, 909.0, 30.1496
62.807234626, 96.390, 934.0, 30.5614
62.833495191, 96.390, 884.0, 29.7321
62.859755756, 96.390, 864.0, 29.3939
62.886016322, 96.390, 911.0, 30.1828
62.912276887, 96.390, 822.0, 28.6705
62.938537452, 96.390, 885.0, 29.7489
62.964798018, 96.390, 804.0, 28.3549
62.991058583, 96.390, 858.0, 29.2916
63.017319148, 96.390, 905.0, 30.0832
63.043579714, 96.390, 844.0, 29.0517
63.069840279, 96.390, 852.0, 29.1890
63.096100844, 96.390, 861.0, 29.3428
63.122361410, 96.390, 873.0, 29.5466
63.148621975, 96.390, 789.0, 28.0891
63.174882541, 96.390, 888.0, 29.7993
63.201143106, 96.390, 835.0, 28.8964
63.227403671, 96.390, 790.0, 28.1069
63.253664237, 96.390, 793.0, 28.1603
63.279924802, 96.390, 869.0, 29.4788
63.306185367, 96.390, 793.0, 28.1603
63.332445933, 96.390, 868.0, 29.4618
63.358706498, 96.390, 811.0, 28.4781
63.384967063, 96.390, 839.0, 28.9655
63.411227629, 96.390, 851.0, 29.1719
63.437488194, 96.390, 848.0, 29.1204
63.463748759, 96.390, 808.0, 28.4253
63.490009325, 96.390, 787.0, 28.0535
63.516269890, 96.390, 847.0, 29.1033
63.542530455, 96.390, 791.0, 28.1247
63.568791021, 96.390, 806.0, 28.3901
63.595051586, 96.390, 795.0, 28.1957
63.621312152, 96.390, 832.0, 28.8444
63.647572717, 96.390, 821.0, 28.6531
63.673833282, 96.390, 803.0, 28.3373
63.700093848, 96.390, 822.0, 28.6705
63.726354413, 96.390, 859.0, 29.3087
63.752614978, 96.390, 816.0, 28.5657
63.778875544, 96.390, 816.0, 28.5657
63.805136109, 96.390, 821.0, 28.6531
63.831396674, 96.390, 786.0, 28.0357
63.857657240, 96.390, 826.0, 28.7402
63.883917805, 96.390, 809.0, 28.4429
63.910178370, 96.390, 808.0, 28.4253
63.936438936, 96.390, 864.0, 29.3939
63.962699501, 96.390, 851.0, 29.1719
63.988960067, 96.390, 799.0, 28.2666
64.015220632, 96.390, 842.0, 29.0172
64.041481197, 96.390, 786.0, 28.0357
64.067741763, 96.390, 789.0, 28.0891
64.094002328, 96.390, 813.0, 28.5132
64.120262893, 96.390, 785.0, 28.0179
64.146523459, 96.390, 835.0, 28.8964
64.172784024, 96.390, 806.0, 28.3901
64.199044589, 96.390, 828.0, 28.7750
64.225305155, 96.390, 783.0, 27.9821
64.251565720, 96.390, 800.0, 28.2843
64.277826285, 96.390, 822.0, 28.6705
64.304086851, 96.390, 812.0, 28.4956
64.330347416, 96.390, 764.0, 27.6405
64.356607981, 96.390, 799.0, 28.2666
64.382868547, 96.390, 794.0, 28.1780
64.409129112, 96.390, 820.0, 28.6356
64.435389678, 96.390, 800.0, 28.2843
64.461650243, 96.390, 778.0, 27.8927
64.487910808, 96.390, 816.0, 28.5657
64.514171374, 96.390, 744.0, 27.2764
64.540431939, 96.390, 761.0, 27.5862
64.566692504, 96.390, 880.0, 29.6648
64.592953070, 96.390, 803.0, 28.3373
64.619213635, 96.390, 812.0, 28.4956
64.645474200, 96.390, 780.0, 27.9285
64.671734766, 96.390, 814.0, 28.5307
64.697995331, 96.390, 765.0, 27.6586
64.724255896, 96.390, 757.0, 27.5136
64.750516462, 96.390, 835.0, 28.8964
64.776777027, 96.390, 799.0, 28.2666
64.803037593, 96.390, 801.0, 28.3019
64.829298158, 96.390, 818.0, 28.6007
64.855558723, 96.390, 770.0, 27.7489
64.881819289, 96.390, 817.0, 28.5832
64.908079854, 96.390, 828.0, 28.7750
64.934340419, 96.390, 795.0, 28.1957
64.960600985, 96.390, 795.0, 28.1957
64.986861550, 96.390, 796.0, 28.2135
