[Measurement conditions]
Sample identification,134_SiAxial30Mar22_Act16Nov22_B1_0714M_NaOH_LS0173
Comment - 1,"Configuration=Stage for Flat Samples/Holders, Owner=User-1, Creation date=7/1/2020 9:53:24 AM"
Comment - 2,"Goniometer=Theta/Theta; Minimum step size 2Theta:0.0001; Minimum step size Omega:0.0001"
Comment - 3,"Sample stage=Stage for flat samples/holders"
Comment - 4,"Diffractometer system=EMPYREAN"
Comment - 5,"Measurement program=C:\Users\tmr79\OneDrive - The Pennsylvania State University\Documents\NEUP\XRD\Cement\Zerobackground scan.xrdmp, Identifier={98A3B11C-88F9-4AA6-982C-73314A311EF5}"
Anode material,Cu
K-Alpha1 wavelength,1.5405980
K-Alpha2 wavelength,1.5444260
Ratio K-Alpha2/K-Alpha1,0.500
Divergence slit,Fixed,0.25
Monochromator used,NO
Generator voltage, 45
Tube current, 40
File date and time,03/Apr/2023 09:43
Unit cell,
h k l, 0 0 0
Scan axis,Gonio
Scan range,4.994599997,64.999991833
Scan step size,0.0262606
No. of points, 2285
Scan type,CONTINUOUS
Time per step,96.390
[Scan points]
Angle, TimePerStep, Intensity, ESD
5.007730280, 96.390, 4434.0, 66.5883
5.033990845, 96.390, 4543.0, 67.4018
5.060251411, 96.390, 4351.0, 65.9621
5.086511976, 96.390, 4426.0, 66.5282
5.112772541, 96.390, 4233.0, 65.0615
5.139033107, 96.390, 4212.0, 64.8999
5.165293672, 96.390, 4173.0, 64.5988
5.191554237, 96.390, 4094.0, 63.9844
5.217814803, 96.390, 4221.0, 64.9692
5.244075368, 96.390, 4254.0, 65.2227
5.270335934, 96.390, 4104.0, 64.0625
5.296596499, 96.390, 4099.0, 64.0234
5.322857064, 96.390, 4131.0, 64.2729
5.349117630, 96.390, 4132.0, 64.2806
5.375378195, 96.390, 3858.0, 62.1128
5.401638760, 96.390, 3984.0, 63.1189
5.427899326, 96.390, 4105.0, 64.0703
5.454159891, 96.390, 3888.0, 62.3538
5.480420456, 96.390, 3935.0, 62.7296
5.506681022, 96.390, 4038.0, 63.5453
5.532941587, 96.390, 3902.0, 62.4660
5.559202152, 96.390, 3929.0, 62.6817
5.585462718, 96.390, 3944.0, 62.8013
5.611723283, 96.390, 3867.0, 62.1852
5.637983849, 96.390, 3851.0, 62.0564
5.664244414, 96.390, 3829.0, 61.8789
5.690504979, 96.390, 3934.0, 62.7216
5.716765545, 96.390, 3936.0, 62.7375
5.743026110, 96.390, 3762.0, 61.3351
5.769286675, 96.390, 3825.0, 61.8466
5.795547241, 96.390, 3824.0, 61.8385
5.821807806, 96.390, 3765.0, 61.3596
5.848068371, 96.390, 3750.0, 61.2372
5.874328937, 96.390, 3681.0, 60.6712
5.900589502, 96.390, 3761.0, 61.3270
5.926850067, 96.390, 3729.0, 61.0655
5.953110633, 96.390, 3618.0, 60.1498
5.979371198, 96.390, 3787.0, 61.5386
6.005631763, 96.390, 3615.0, 60.1249
6.031892329, 96.390, 3583.0, 59.8582
6.058152894, 96.390, 3595.0, 59.9583
6.084413460, 96.390, 3646.0, 60.3821
6.110674025, 96.390, 3623.0, 60.1914
6.136934590, 96.390, 3646.0, 60.3821
6.163195156, 96.390, 3490.0, 59.0762
6.189455721, 96.390, 3667.0, 60.5558
6.215716286, 96.390, 3579.0, 59.8247
6.241976852, 96.390, 3588.0, 59.8999
6.268237417, 96.390, 3477.0, 58.9661
6.294497982, 96.390, 3552.0, 59.5987
6.320758548, 96.390, 3435.0, 58.6089
6.347019113, 96.390, 3430.0, 58.5662
6.373279678, 96.390, 3523.0, 59.3549
6.399540244, 96.390, 3466.0, 58.8727
6.425800809, 96.390, 3469.0, 58.8982
6.452061375, 96.390, 3535.0, 59.4559
6.478321940, 96.390, 3558.0, 59.6490
6.504582505, 96.390, 3516.0, 59.2959
6.530843071, 96.390, 3413.0, 58.4209
6.557103636, 96.390, 3545.0, 59.5399
6.583364201, 96.390, 3470.0, 58.9067
6.609624767, 96.390, 3358.0, 57.9483
6.635885332, 96.390, 3428.0, 58.5491
6.662145897, 96.390, 3325.0, 57.6628
6.688406463, 96.390, 3340.0, 57.7927
6.714667028, 96.390, 3346.0, 57.8446
6.740927593, 96.390, 3436.0, 58.6174
6.767188159, 96.390, 3305.0, 57.4891
6.793448724, 96.390, 3376.0, 58.1034
6.819709289, 96.390, 3310.0, 57.5326
6.845969855, 96.390, 3411.0, 58.4038
6.872230420, 96.390, 3424.0, 58.5150
6.898490986, 96.390, 3276.0, 57.2364
6.924751551, 96.390, 3329.0, 57.6975
6.951012116, 96.390, 3294.0, 57.3934
6.977272682, 96.390, 3368.0, 58.0345
7.003533247, 96.390, 3395.0, 58.2666
7.029793812, 96.390, 3335.0, 57.7495
7.056054378, 96.390, 3360.0, 57.9655
7.082314943, 96.390, 3341.0, 57.8014
7.108575508, 96.390, 3377.0, 58.1120
7.134836074, 96.390, 3320.0, 57.6194
7.161096639, 96.390, 3227.0, 56.8067
7.187357204, 96.390, 3285.0, 57.3149
7.213617770, 96.390, 3313.0, 57.5587
7.239878335, 96.390, 3241.0, 56.9298
7.266138900, 96.390, 3215.0, 56.7010
7.292399466, 96.390, 3279.0, 57.2626
7.318660031, 96.390, 3383.0, 58.1636
7.344920597, 96.390, 3237.0, 56.8946
7.371181162, 96.390, 3252.0, 57.0263
7.397441727, 96.390, 3258.0, 57.0789
7.423702293, 96.390, 3146.0, 56.0892
7.449962858, 96.390, 3259.0, 57.0877
7.476223423, 96.390, 3197.0, 56.5420
7.502483989, 96.390, 3239.0, 56.9122
7.528744554, 96.390, 3230.0, 56.8331
7.555005119, 96.390, 3220.0, 56.7450
7.581265685, 96.390, 3152.0, 56.1427
7.607526250, 96.390, 3212.0, 56.6745
7.633786815, 96.390, 3145.0, 56.0803
7.660047381, 96.390, 3111.0, 55.7763
7.686307946, 96.390, 3151.0, 56.1338
7.712568512, 96.390, 3220.0, 56.7450
7.738829077, 96.390, 3306.0, 57.4978
7.765089642, 96.390, 3165.0, 56.2583
7.791350208, 96.390, 3246.0, 56.9737
7.817610773, 96.390, 3264.0, 57.1314
7.843871338, 96.390, 3185.0, 56.4358
7.870131904, 96.390, 3235.0, 56.8771
7.896392469, 96.390, 3158.0, 56.1961
7.922653034, 96.390, 3155.0, 56.1694
7.948913600, 96.390, 3249.0, 57.0000
7.975174165, 96.390, 3383.0, 58.1636
8.001434730, 96.390, 3182.0, 56.4092
8.027695296, 96.390, 3250.0, 57.0088
8.053955861, 96.390, 3261.0, 57.1052
8.080216426, 96.390, 3362.0, 57.9828
8.106476992, 96.390, 3444.0, 58.6856
8.132737557, 96.390, 3501.0, 59.1692
8.158998123, 96.390, 3427.0, 58.5406
8.185258688, 96.390, 3402.0, 58.3267
8.211519253, 96.390, 3570.0, 59.7495
8.237779819, 96.390, 3688.0, 60.7289
8.264040384, 96.390, 3745.0, 61.1964
8.290300949, 96.390, 3777.0, 61.4573
8.316561515, 96.390, 3917.0, 62.5859
8.342822080, 96.390, 4127.0, 64.2417
8.369082645, 96.390, 4245.0, 65.1537
8.395343211, 96.390, 4474.0, 66.8880
8.421603776, 96.390, 4581.0, 67.6831
8.447864341, 96.390, 4868.0, 69.7711
8.474124907, 96.390, 5022.0, 70.8661
8.500385472, 96.390, 5369.0, 73.2735
8.526646038, 96.390, 5715.0, 75.5976
8.552906603, 96.390, 5917.0, 76.9220
8.579167168, 96.390, 5972.0, 77.2787
8.605427734, 96.390, 6091.0, 78.0449
8.631688299, 96.390, 6013.0, 77.5435
8.657948864, 96.390, 5731.0, 75.7034
8.684209430, 96.390, 5459.0, 73.8850
8.710469995, 96.390, 5083.0, 71.2952
8.736730560, 96.390, 4651.0, 68.1982
8.762991126, 96.390, 4287.0, 65.4752
8.789251691, 96.390, 4157.0, 64.4748
8.815512256, 96.390, 3888.0, 62.3538
8.841772822, 96.390, 3714.0, 60.9426
8.868033387, 96.390, 3574.0, 59.7829
8.894293952, 96.390, 3572.0, 59.7662
8.920554518, 96.390, 3481.0, 59.0000
8.946815083, 96.390, 3511.0, 59.2537
8.973075649, 96.390, 3457.0, 58.7963
8.999336214, 96.390, 3388.0, 58.2065
9.025596779, 96.390, 3288.0, 57.3411
9.051857345, 96.390, 3305.0, 57.4891
9.078117910, 96.390, 3282.0, 57.2887
9.104378475, 96.390, 3343.0, 57.8187
9.130639041, 96.390, 3261.0, 57.1052
9.156899606, 96.390, 3238.0, 56.9034
9.183160171, 96.390, 3373.0, 58.0775
9.209420737, 96.390, 3175.0, 56.3471
9.235681302, 96.390, 3340.0, 57.7927
9.261941867, 96.390, 3261.0, 57.1052
9.288202433, 96.390, 3273.0, 57.2101
9.314462998, 96.390, 3282.0, 57.2887
9.340723564, 96.390, 3206.0, 56.6216
9.366984129, 96.390, 3208.0, 56.6392
9.393244694, 96.390, 3246.0, 56.9737
9.419505260, 96.390, 3242.0, 56.9386
9.445765825, 96.390, 3207.0, 56.6304
9.472026390, 96.390, 3163.0, 56.2406
9.498286956, 96.390, 3188.0, 56.4624
9.524547521, 96.390, 3254.0, 57.0438
9.550808086, 96.390, 3250.0, 57.0088
9.577068652, 96.390, 3244.0, 56.9561
9.603329217, 96.390, 3156.0, 56.1783
9.629589782, 96.390, 3081.0, 55.5068
9.655850348, 96.390, 3118.0, 55.8391
9.682110913, 96.390, 3184.0, 56.4269
9.708371478, 96.390, 2962.0, 54.4243
9.734632044, 96.390, 3085.0, 55.5428
9.760892609, 96.390, 3052.0, 55.2449
9.787153175, 96.390, 3036.0, 55.0999
9.813413740, 96.390, 3051.0, 55.2359
9.839674305, 96.390, 2989.0, 54.6717
9.865934871, 96.390, 3129.0, 55.9375
9.892195436, 96.390, 3069.0, 55.3986
9.918456001, 96.390, 2995.0, 54.7266
9.944716567, 96.390, 3008.0, 54.8452
9.970977132, 96.390, 3026.0, 55.0091
9.997237697, 96.390, 2996.0, 54.7357
10.023498263, 96.390, 3074.0, 55.4437
10.049758828, 96.390, 2956.0, 54.3691
10.076019393, 96.390, 2920.0, 54.0370
10.102279959, 96.390, 2905.0, 53.8981
10.128540524, 96.390, 2884.0, 53.7029
10.154801090, 96.390, 2846.0, 53.3479
10.181061655, 96.390, 2889.0, 53.7494
10.207322220, 96.390, 2866.0, 53.5350
10.233582786, 96.390, 2894.0, 53.7959
10.259843351, 96.390, 2784.0, 52.7636
10.286103916, 96.390, 2800.0, 52.9150
10.312364482, 96.390, 2861.0, 53.4883
10.338625047, 96.390, 2705.0, 52.0096
10.364885612, 96.390, 2749.0, 52.4309
10.391146178, 96.390, 2851.0, 53.3948
10.417406743, 96.390, 2743.0, 52.3737
10.443667308, 96.390, 2807.0, 52.9811
10.469927874, 96.390, 2740.0, 52.3450
10.496188439, 96.390, 2892.0, 53.7773
10.522449004, 96.390, 2801.0, 52.9245
10.548709570, 96.390, 2659.0, 51.5655
10.574970135, 96.390, 2841.0, 53.3010
10.601230701, 96.390, 2671.0, 51.6817
10.627491266, 96.390, 2595.0, 50.9411
10.653751831, 96.390, 2811.0, 53.0189
10.680012397, 96.390, 2785.0, 52.7731
10.706272962, 96.390, 2775.0, 52.6783
10.732533527, 96.390, 2728.0, 52.2303
10.758794093, 96.390, 2565.0, 50.6458
10.785054658, 96.390, 2668.0, 51.6527
10.811315223, 96.390, 2741.0, 52.3546
10.837575789, 96.390, 2654.0, 51.5170
10.863836354, 96.390, 2739.0, 52.3355
10.890096919, 96.390, 2694.0, 51.9038
10.916357485, 96.390, 2719.0, 52.1440
10.942618050, 96.390, 2678.0, 51.7494
10.968878616, 96.390, 2591.0, 50.9019
10.995139181, 96.390, 2565.0, 50.6458
11.021399746, 96.390, 2599.0, 50.9804
11.047660312, 96.390, 2548.0, 50.4777
11.073920877, 96.390, 2670.0, 51.6720
11.100181442, 96.390, 2546.0, 50.4579
11.126442008, 96.390, 2558.0, 50.5767
11.152702573, 96.390, 2574.0, 50.7346
11.178963138, 96.390, 2565.0, 50.6458
11.205223704, 96.390, 2620.0, 51.1859
11.231484269, 96.390, 2613.0, 51.1175
11.257744834, 96.390, 2628.0, 51.2640
11.284005400, 96.390, 2570.0, 50.6952
11.310265965, 96.390, 2487.0, 49.8698
11.336526530, 96.390, 2480.0, 49.7996
11.362787096, 96.390, 2536.0, 50.3587
11.389047661, 96.390, 2480.0, 49.7996
11.415308227, 96.390, 2464.0, 49.6387
11.441568792, 96.390, 2442.0, 49.4166
11.467829357, 96.390, 2465.0, 49.6488
11.494089923, 96.390, 2390.0, 48.8876
11.520350488, 96.390, 2486.0, 49.8598
11.546611053, 96.390, 2393.0, 48.9183
11.572871619, 96.390, 2421.0, 49.2037
11.599132184, 96.390, 2407.0, 49.0612
11.625392749, 96.390, 2365.0, 48.6313
11.651653315, 96.390, 2462.0, 49.6185
11.677913880, 96.390, 2394.0, 48.9285
11.704174445, 96.390, 2245.0, 47.3814
11.730435011, 96.390, 2404.0, 49.0306
11.756695576, 96.390, 2366.0, 48.6415
11.782956141, 96.390, 2492.0, 49.9199
11.809216707, 96.390, 2334.0, 48.3115
11.835477272, 96.390, 2360.0, 48.5798
11.861737838, 96.390, 2362.0, 48.6004
11.887998403, 96.390, 2363.0, 48.6107
11.914258968, 96.390, 2476.0, 49.7594
11.940519534, 96.390, 2419.0, 49.1833
11.966780099, 96.390, 2410.0, 49.0918
11.993040664, 96.390, 2416.0, 49.1528
12.019301230, 96.390, 2345.0, 48.4252
12.045561795, 96.390, 2424.0, 49.2341
12.071822360, 96.390, 2434.0, 49.3356
12.098082926, 96.390, 2417.0, 49.1630
12.124343491, 96.390, 2371.0, 48.6929
12.150604056, 96.390, 2496.0, 49.9600
12.176864622, 96.390, 2428.0, 49.2747
12.203125187, 96.390, 2445.0, 49.4469
12.229385753, 96.390, 2435.0, 49.3457
12.255646318, 96.390, 2385.0, 48.8365
12.281906883, 96.390, 2395.0, 48.9387
12.308167449, 96.390, 2486.0, 49.8598
12.334428014, 96.390, 2435.0, 49.3457
12.360688579, 96.390, 2359.0, 48.5695
12.386949145, 96.390, 2373.0, 48.7134
12.413209710, 96.390, 2310.0, 48.0625
12.439470275, 96.390, 2319.0, 48.1560
12.465730841, 96.390, 2337.0, 48.3425
12.491991406, 96.390, 2300.0, 47.9583
12.518251971, 96.390, 2355.0, 48.5283
12.544512537, 96.390, 2375.0, 48.7340
12.570773102, 96.390, 2408.0, 49.0714
12.597033667, 96.390, 2391.0, 48.8979
12.623294233, 96.390, 2268.0, 47.6235
12.649554798, 96.390, 2319.0, 48.1560
12.675815364, 96.390, 2312.0, 48.0833
12.702075929, 96.390, 2362.0, 48.6004
12.728336494, 96.390, 2273.0, 47.6760
12.754597060, 96.390, 2341.0, 48.3839
12.780857625, 96.390, 2301.0, 47.9687
12.807118190, 96.390, 2320.0, 48.1664
12.833378756, 96.390, 2281.0, 47.7598
12.859639321, 96.390, 2327.0, 48.2390
12.885899886, 96.390, 2248.0, 47.4131
12.912160452, 96.390, 2295.0, 47.9062
12.938421017, 96.390, 2331.0, 48.2804
12.964681582, 96.390, 2209.0, 47.0000
12.990942148, 96.390, 2205.0, 46.9574
13.017202713, 96.390, 2230.0, 47.2229
13.043463279, 96.390, 2133.0, 46.1844
13.069723844, 96.390, 2153.0, 46.4004
13.095984409, 96.390, 2155.0, 46.4220
13.122244975, 96.390, 2099.0, 45.8148
13.148505540, 96.390, 2175.0, 46.6369
13.174766105, 96.390, 2154.0, 46.4112
13.201026671, 96.390, 2048.0, 45.2548
13.227287236, 96.390, 2136.0, 46.2169
13.253547801, 96.390, 2042.0, 45.1885
13.279808367, 96.390, 2121.0, 46.0543
13.306068932, 96.390, 2124.0, 46.0869
13.332329497, 96.390, 2044.0, 45.2106
13.358590063, 96.390, 2038.0, 45.1442
13.384850628, 96.390, 2004.0, 44.7661
13.411111193, 96.390, 2011.0, 44.8442
13.437371759, 96.390, 2037.0, 45.1331
13.463632324, 96.390, 2170.0, 46.5833
13.489892890, 96.390, 2049.0, 45.2659
13.516153455, 96.390, 2104.0, 45.8694
13.542414020, 96.390, 2047.0, 45.2438
13.568674586, 96.390, 2032.0, 45.0777
13.594935151, 96.390, 2051.0, 45.2880
13.621195716, 96.390, 2125.0, 46.0977
13.647456282, 96.390, 2043.0, 45.1996
13.673716847, 96.390, 2003.0, 44.7549
13.699977412, 96.390, 2021.0, 44.9555
13.726237978, 96.390, 2006.0, 44.7884
13.752498543, 96.390, 2021.0, 44.9555
13.778759108, 96.390, 2026.0, 45.0111
13.805019674, 96.390, 2025.0, 45.0000
13.831280239, 96.390, 2030.0, 45.0555
13.857540805, 96.390, 2010.0, 44.8330
13.883801370, 96.390, 2056.0, 45.3431
13.910061935, 96.390, 2062.0, 45.4093
13.936322501, 96.390, 1933.0, 43.9659
13.962583066, 96.390, 1955.0, 44.2154
13.988843631, 96.390, 1970.0, 44.3847
14.015104197, 96.390, 1930.0, 43.9318
14.041364762, 96.390, 1980.0, 44.4972
14.067625327, 96.390, 2048.0, 45.2548
14.093885893, 96.390, 1892.0, 43.4971
14.120146458, 96.390, 2014.0, 44.8776
14.146407023, 96.390, 2023.0, 44.9778
14.172667589, 96.390, 1981.0, 44.5084
14.198928154, 96.390, 1939.0, 44.0341
14.225188719, 96.390, 1947.0, 44.1248
14.251449285, 96.390, 1902.0, 43.6119
14.277709850, 96.390, 2012.0, 44.8553
14.303970416, 96.390, 1945.0, 44.1022
14.330230981, 96.390, 2029.0, 45.0444
14.356491546, 96.390, 1892.0, 43.4971
14.382752112, 96.390, 1938.0, 44.0227
14.409012677, 96.390, 1978.0, 44.4747
14.435273242, 96.390, 1939.0, 44.0341
14.461533808, 96.390, 1992.0, 44.6318
14.487794373, 96.390, 1951.0, 44.1701
14.514054938, 96.390, 1898.0, 43.5660
14.540315504, 96.390, 1908.0, 43.6807
14.566576069, 96.390, 1926.0, 43.8862
14.592836634, 96.390, 1965.0, 44.3283
14.619097200, 96.390, 1961.0, 44.2832
14.645357765, 96.390, 2060.0, 45.3872
14.671618331, 96.390, 2020.0, 44.9444
14.697878896, 96.390, 1949.0, 44.1475
14.724139461, 96.390, 1972.0, 44.4072
14.750400027, 96.390, 1997.0, 44.6878
14.776660592, 96.390, 1833.0, 42.8135
14.802921157, 96.390, 1904.0, 43.6348
14.829181723, 96.390, 1923.0, 43.8520
14.855442288, 96.390, 1979.0, 44.4860
14.881702853, 96.390, 1907.0, 43.6692
14.907963419, 96.390, 1955.0, 44.2154
14.934223984, 96.390, 1972.0, 44.4072
14.960484549, 96.390, 1942.0, 44.0681
14.986745115, 96.390, 2016.0, 44.8999
15.013005680, 96.390, 1975.0, 44.4410
15.039266245, 96.390, 2036.0, 45.1221
15.065526811, 96.390, 2062.0, 45.4093
15.091787376, 96.390, 2047.0, 45.2438
15.118047942, 96.390, 2022.0, 44.9667
15.144308507, 96.390, 2074.0, 45.5412
15.170569072, 96.390, 2070.0, 45.4973
15.196829638, 96.390, 1944.0, 44.0908
15.223090203, 96.390, 2013.0, 44.8665
15.249350768, 96.390, 2077.0, 45.5741
15.275611334, 96.390, 1967.0, 44.3509
15.301871899, 96.390, 2063.0, 45.4203
15.328132464, 96.390, 2028.0, 45.0333
15.354393030, 96.390, 1985.0, 44.5533
15.380653595, 96.390, 2068.0, 45.4753
15.406914160, 96.390, 2009.0, 44.8219
15.433174726, 96.390, 2008.0, 44.8107
15.459435291, 96.390, 2010.0, 44.8330
15.485695857, 96.390, 1982.0, 44.5197
15.511956422, 96.390, 1927.0, 43.8976
15.538216987, 96.390, 1918.0, 43.7950
15.564477553, 96.390, 1998.0, 44.6990
15.590738118, 96.390, 1956.0, 44.2267
15.616998683, 96.390, 1977.0, 44.4635
15.643259249, 96.390, 2010.0, 44.8330
15.669519814, 96.390, 1975.0, 44.4410
15.695780379, 96.390, 2019.0, 44.9333
15.722040945, 96.390, 1988.0, 44.5870
15.748301510, 96.390, 2006.0, 44.7884
15.774562075, 96.390, 2056.0, 45.3431
15.800822641, 96.390, 2002.0, 44.7437
15.827083206, 96.390, 1917.0, 43.7836
15.853343771, 96.390, 1966.0, 44.3396
15.879604337, 96.390, 2042.0, 45.1885
15.905864902, 96.390, 2095.0, 45.7712
15.932125468, 96.390, 1957.0, 44.2380
15.958386033, 96.390, 1928.0, 43.9090
15.984646598, 96.390, 2005.0, 44.7772
16.010907164, 96.390, 1975.0, 44.4410
16.037167729, 96.390, 1916.0, 43.7721
16.063428294, 96.390, 2016.0, 44.8999
16.089688860, 96.390, 2006.0, 44.7884
16.115949425, 96.390, 1939.0, 44.0341
16.142209990, 96.390, 2045.0, 45.2217
16.168470556, 96.390, 2031.0, 45.0666
16.194731121, 96.390, 1966.0, 44.3396
16.220991686, 96.390, 2010.0, 44.8330
16.247252252, 96.390, 2003.0, 44.7549
16.273512817, 96.390, 2049.0, 45.2659
16.299773382, 96.390, 2021.0, 44.9555
16.326033948, 96.390, 2009.0, 44.8219
16.352294513, 96.390, 2036.0, 45.1221
16.378555079, 96.390, 2100.0, 45.8258
16.404815644, 96.390, 2025.0, 45.0000
16.431076209, 96.390, 1990.0, 44.6094
16.457336775, 96.390, 2060.0, 45.3872
16.483597340, 96.390, 1974.0, 44.4297
16.509857905, 96.390, 1959.0, 44.2606
16.536118471, 96.390, 1995.0, 44.6654
16.562379036, 96.390, 2013.0, 44.8665
16.588639601, 96.390, 2072.0, 45.5192
16.614900167, 96.390, 1977.0, 44.4635
16.641160732, 96.390, 2108.0, 45.9130
16.667421297, 96.390, 2045.0, 45.2217
16.693681863, 96.390, 2076.0, 45.5631
16.719942428, 96.390, 2016.0, 44.8999
16.746202994, 96.390, 2080.0, 45.6070
16.772463559, 96.390, 2090.0, 45.7165
16.798724124, 96.390, 2140.0, 46.2601
16.824984690, 96.390, 2029.0, 45.0444
16.851245255, 96.390, 2088.0, 45.6946
16.877505820, 96.390, 2041.0, 45.1774
16.903766386, 96.390, 2180.0, 46.6905
16.930026951, 96.390, 2111.0, 45.9456
16.956287516, 96.390, 2162.0, 46.4973
16.982548082, 96.390, 2192.0, 46.8188
17.008808647, 96.390, 2262.0, 47.5605
17.035069212, 96.390, 2188.0, 46.7761
17.061329778, 96.390, 2297.0, 47.9270
17.087590343, 96.390, 2212.0, 47.0319
17.113850908, 96.390, 2225.0, 47.1699
17.140111474, 96.390, 2256.0, 47.4974
17.166372039, 96.390, 2235.0, 47.2758
17.192632605, 96.390, 2267.0, 47.6130
17.218893170, 96.390, 2359.0, 48.5695
17.245153735, 96.390, 2293.0, 47.8853
17.271414301, 96.390, 2287.0, 47.8226
17.297674866, 96.390, 2363.0, 48.6107
17.323935431, 96.390, 2352.0, 48.4974
17.350195997, 96.390, 2223.0, 47.1487
17.376456562, 96.390, 2340.0, 48.3735
17.402717127, 96.390, 2247.0, 47.4025
17.428977693, 96.390, 2272.0, 47.6655
17.455238258, 96.390, 2315.0, 48.1144
17.481498823, 96.390, 2320.0, 48.1664
17.507759389, 96.390, 2342.0, 48.3942
17.534019954, 96.390, 2339.0, 48.3632
17.560280520, 96.390, 2267.0, 47.6130
17.586541085, 96.390, 2328.0, 48.2494
17.612801650, 96.390, 2348.0, 48.4562
17.639062216, 96.390, 2353.0, 48.5077
17.665322781, 96.390, 2297.0, 47.9270
17.691583346, 96.390, 2393.0, 48.9183
17.717843912, 96.390, 2438.0, 49.3761
17.744104477, 96.390, 2318.0, 48.1456
17.770365042, 96.390, 2262.0, 47.5605
17.796625608, 96.390, 2262.0, 47.5605
17.822886173, 96.390, 2330.0, 48.2701
17.849146738, 96.390, 2341.0, 48.3839
17.875407304, 96.390, 2403.0, 49.0204
17.901667869, 96.390, 2347.0, 48.4458
17.927928434, 96.390, 2293.0, 47.8853
17.954189000, 96.390, 2334.0, 48.3115
17.980449565, 96.390, 2276.0, 47.7074
18.006710131, 96.390, 2322.0, 48.1871
18.032970696, 96.390, 2346.0, 48.4355
18.059231261, 96.390, 2253.0, 47.4658
18.085491827, 96.390, 2310.0, 48.0625
18.111752392, 96.390, 2396.0, 48.9490
18.138012957, 96.390, 2313.0, 48.0937
18.164273523, 96.390, 2314.0, 48.1041
18.190534088, 96.390, 2287.0, 47.8226
18.216794653, 96.390, 2353.0, 48.5077
18.243055219, 96.390, 2370.0, 48.6826
18.269315784, 96.390, 2392.0, 48.9081
18.295576349, 96.390, 2439.0, 49.3862
18.321836915, 96.390, 2329.0, 48.2597
18.348097480, 96.390, 2394.0, 48.9285
18.374358046, 96.390, 2329.0, 48.2597
18.400618611, 96.390, 2359.0, 48.5695
18.426879176, 96.390, 2328.0, 48.2494
18.453139742, 96.390, 2336.0, 48.3322
18.479400307, 96.390, 2324.0, 48.2079
18.505660872, 96.390, 2415.0, 49.1426
18.531921438, 96.390, 2334.0, 48.3115
18.558182003, 96.390, 2375.0, 48.7340
18.584442568, 96.390, 2214.0, 47.0532
18.610703134, 96.390, 2314.0, 48.1041
18.636963699, 96.390, 2273.0, 47.6760
18.663224264, 96.390, 2285.0, 47.8017
18.689484830, 96.390, 2429.0, 49.2849
18.715745395, 96.390, 2322.0, 48.1871
18.742005960, 96.390, 2303.0, 47.9896
18.768266526, 96.390, 2336.0, 48.3322
18.794527091, 96.390, 2401.0, 49.0000
18.820787657, 96.390, 2321.0, 48.1768
18.847048222, 96.390, 2329.0, 48.2597
18.873308787, 96.390, 2278.0, 47.7284
18.899569353, 96.390, 2282.0, 47.7703
18.925829918, 96.390, 2395.0, 48.9387
18.952090483, 96.390, 2360.0, 48.5798
18.978351049, 96.390, 2282.0, 47.7703
19.004611614, 96.390, 2308.0, 48.0416
19.030872179, 96.390, 2432.0, 49.3153
19.057132745, 96.390, 2394.0, 48.9285
19.083393310, 96.390, 2393.0, 48.9183
19.109653875, 96.390, 2308.0, 48.0416
19.135914441, 96.390, 2377.0, 48.7545
19.162175006, 96.390, 2473.0, 49.7293
19.188435572, 96.390, 2423.0, 49.2240
19.214696137, 96.390, 2401.0, 49.0000
19.240956702, 96.390, 2402.0, 49.0102
19.267217268, 96.390, 2481.0, 49.8096
19.293477833, 96.390, 2345.0, 48.4252
19.319738398, 96.390, 2427.0, 49.2646
19.345998964, 96.390, 2444.0, 49.4368
19.372259529, 96.390, 2504.0, 50.0400
19.398520094, 96.390, 2375.0, 48.7340
19.424780660, 96.390, 2447.0, 49.4672
19.451041225, 96.390, 2446.0, 49.4571
19.477301790, 96.390, 2455.0, 49.5480
19.503562356, 96.390, 2477.0, 49.7695
19.529822921, 96.390, 2414.0, 49.1325
19.556083486, 96.390, 2508.0, 50.0799
19.582344052, 96.390, 2462.0, 49.6185
19.608604617, 96.390, 2515.0, 50.1498
19.634865183, 96.390, 2446.0, 49.4571
19.661125748, 96.390, 2504.0, 50.0400
19.687386313, 96.390, 2557.0, 50.5668
19.713646879, 96.390, 2525.0, 50.2494
19.739907444, 96.390, 2417.0, 49.1630
19.766168009, 96.390, 2556.0, 50.5569
19.792428575, 96.390, 2580.0, 50.7937
19.818689140, 96.390, 2538.0, 50.3786
19.844949705, 96.390, 2617.0, 51.1566
19.871210271, 96.390, 2425.0, 49.2443
19.897470836, 96.390, 2471.0, 49.7092
19.923731401, 96.390, 2453.0, 49.5278
19.949991967, 96.390, 2506.0, 50.0600
19.976252532, 96.390, 2683.0, 51.7977
20.002513098, 96.390, 2463.0, 49.6286
20.028773663, 96.390, 2542.0, 50.4183
20.055034228, 96.390, 2534.0, 50.3389
20.081294794, 96.390, 2519.0, 50.1896
20.107555359, 96.390, 2528.0, 50.2792
20.133815924, 96.390, 2577.0, 50.7642
20.160076490, 96.390, 2504.0, 50.0400
20.186337055, 96.390, 2535.0, 50.3488
20.212597620, 96.390, 2467.0, 49.6689
20.238858186, 96.390, 2541.0, 50.4083
20.265118751, 96.390, 2536.0, 50.3587
20.291379316, 96.390, 2589.0, 50.8822
20.317639882, 96.390, 2461.0, 49.6085
20.343900447, 96.390, 2554.0, 50.5371
20.370161012, 96.390, 2654.0, 51.5170
20.396421578, 96.390, 2668.0, 51.6527
20.422682143, 96.390, 2553.0, 50.5272
20.448942709, 96.390, 2587.0, 50.8626
20.475203274, 96.390, 2644.0, 51.4198
20.501463839, 96.390, 2597.0, 50.9608
20.527724405, 96.390, 2544.0, 50.4381
20.553984970, 96.390, 2586.0, 50.8527
20.580245535, 96.390, 2515.0, 50.1498
20.606506101, 96.390, 2548.0, 50.4777
20.632766666, 96.390, 2549.0, 50.4876
20.659027231, 96.390, 2621.0, 51.1957
20.685287797, 96.390, 2620.0, 51.1859
20.711548362, 96.390, 2614.0, 51.1273
20.737808927, 96.390, 2603.0, 51.0196
20.764069493, 96.390, 2660.0, 51.5752
20.790330058, 96.390, 2591.0, 50.9019
20.816590623, 96.390, 2539.0, 50.3885
20.842851189, 96.390, 2607.0, 51.0588
20.869111754, 96.390, 2677.0, 51.7397
20.895372320, 96.390, 2678.0, 51.7494
20.921632885, 96.390, 2594.0, 50.9313
20.947893450, 96.390, 2669.0, 51.6624
20.974154016, 96.390, 2609.0, 51.0784
21.000414581, 96.390, 2683.0, 51.7977
21.026675146, 96.390, 2635.0, 51.3323
21.052935712, 96.390, 2594.0, 50.9313
21.079196277, 96.390, 2665.0, 51.6236
21.105456842, 96.390, 2664.0, 51.6140
21.131717408, 96.390, 2689.0, 51.8556
21.157977973, 96.390, 2601.0, 51.0000
21.184238538, 96.390, 2674.0, 51.7107
21.210499104, 96.390, 2671.0, 51.6817
21.236759669, 96.390, 2581.0, 50.8035
21.263020235, 96.390, 2621.0, 51.1957
21.289280800, 96.390, 2665.0, 51.6236
21.315541365, 96.390, 2677.0, 51.7397
21.341801931, 96.390, 2673.0, 51.7011
21.368062496, 96.390, 2616.0, 51.1468
21.394323061, 96.390, 2694.0, 51.9038
21.420583627, 96.390, 2690.0, 51.8652
21.446844192, 96.390, 2645.0, 51.4296
21.473104757, 96.390, 2672.0, 51.6914
21.499365323, 96.390, 2614.0, 51.1273
21.525625888, 96.390, 2670.0, 51.6720
21.551886453, 96.390, 2743.0, 52.3737
21.578147019, 96.390, 2762.0, 52.5547
21.604407584, 96.390, 2708.0, 52.0384
21.630668149, 96.390, 2580.0, 50.7937
21.656928715, 96.390, 2746.0, 52.4023
21.683189280, 96.390, 2724.0, 52.1920
21.709449846, 96.390, 2724.0, 52.1920
21.735710411, 96.390, 2654.0, 51.5170
21.761970976, 96.390, 2710.0, 52.0577
21.788231542, 96.390, 2624.0, 51.2250
21.814492107, 96.390, 2735.0, 52.2972
21.840752672, 96.390, 2720.0, 52.1536
21.867013238, 96.390, 2712.0, 52.0769
21.893273803, 96.390, 2713.0, 52.0865
21.919534368, 96.390, 2852.0, 53.4041
21.945794934, 96.390, 2610.0, 51.0882
21.972055499, 96.390, 2839.0, 53.2823
21.998316064, 96.390, 2629.0, 51.2738
22.024576630, 96.390, 2887.0, 53.7308
22.050837195, 96.390, 2759.0, 52.5262
22.077097761, 96.390, 2866.0, 53.5350
22.103358326, 96.390, 2760.0, 52.5357
22.129618891, 96.390, 2787.0, 52.7920
22.155879457, 96.390, 2762.0, 52.5547
22.182140022, 96.390, 2675.0, 51.7204
22.208400587, 96.390, 2774.0, 52.6688
22.234661153, 96.390, 2689.0, 51.8556
22.260921718, 96.390, 2750.0, 52.4404
22.287182283, 96.390, 2752.0, 52.4595
22.313442849, 96.390, 2853.0, 53.4135
22.339703414, 96.390, 2792.0, 52.8394
22.365963979, 96.390, 2813.0, 53.0377
22.392224545, 96.390, 2887.0, 53.7308
22.418485110, 96.390, 2855.0, 53.4322
22.444745675, 96.390, 2954.0, 54.3507
22.471006241, 96.390, 2865.0, 53.5257
22.497266806, 96.390, 2920.0, 54.0370
22.523527372, 96.390, 2781.0, 52.7352
22.549787937, 96.390, 2936.0, 54.1849
22.576048502, 96.390, 2935.0, 54.1756
22.602309068, 96.390, 2962.0, 54.4243
22.628569633, 96.390, 3003.0, 54.7996
22.654830198, 96.390, 2930.0, 54.1295
22.681090764, 96.390, 2831.0, 53.2071
22.707351329, 96.390, 2889.0, 53.7494
22.733611894, 96.390, 2842.0, 53.3104
22.759872460, 96.390, 2885.0, 53.7122
22.786133025, 96.390, 2778.0, 52.7067
22.812393590, 96.390, 2812.0, 53.0283
22.838654156, 96.390, 2720.0, 52.1536
22.864914721, 96.390, 2692.0, 51.8845
22.891175287, 96.390, 2673.0, 51.7011
22.917435852, 96.390, 2743.0, 52.3737
22.943696417, 96.390, 2706.0, 52.0192
22.969956983, 96.390, 2714.0, 52.0961
22.996217548, 96.390, 2638.0, 51.3615
23.022478113, 96.390, 2735.0, 52.2972
23.048738679, 96.390, 2758.0, 52.5167
23.074999244, 96.390, 2778.0, 52.7067
23.101259809, 96.390, 2665.0, 51.6236
23.127520375, 96.390, 2721.0, 52.1632
23.153780940, 96.390, 2746.0, 52.4023
23.180041505, 96.390, 2713.0, 52.0865
23.206302071, 96.390, 2681.0, 51.7784
23.232562636, 96.390, 2709.0, 52.0481
23.258823201, 96.390, 2596.0, 50.9510
23.285083767, 96.390, 2727.0, 52.2207
23.311344332, 96.390, 2708.0, 52.0384
23.337604898, 96.390, 2570.0, 50.6952
23.363865463, 96.390, 2728.0, 52.2303
23.390126028, 96.390, 2725.0, 52.2015
23.416386594, 96.390, 2738.0, 52.3259
23.442647159, 96.390, 2612.0, 51.1077
23.468907724, 96.390, 2639.0, 51.3712
23.495168290, 96.390, 2625.0, 51.2348
23.521428855, 96.390, 2588.0, 50.8724
23.547689420, 96.390, 2535.0, 50.3488
23.573949986, 96.390, 2602.0, 51.0098
23.600210551, 96.390, 2634.0, 51.3225
23.626471116, 96.390, 2592.0, 50.9117
23.652731682, 96.390, 2589.0, 50.8822
23.678992247, 96.390, 2622.0, 51.2055
23.705252813, 96.390, 2728.0, 52.2303
23.731513378, 96.390, 2549.0, 50.4876
23.757773943, 96.390, 2644.0, 51.4198
23.784034509, 96.390, 2523.0, 50.2295
23.810295074, 96.390, 2567.0, 50.6656
23.836555639, 96.390, 2626.0, 51.2445
23.862816205, 96.390, 2531.0, 50.3090
23.889076770, 96.390, 2478.0, 49.7795
23.915337335, 96.390, 2514.0, 50.1398
23.941597901, 96.390, 2529.0, 50.2892
23.967858466, 96.390, 2544.0, 50.4381
23.994119031, 96.390, 2529.0, 50.2892
24.020379597, 96.390, 2527.0, 50.2693
24.046640162, 96.390, 2522.0, 50.2195
24.072900727, 96.390, 2628.0, 51.2640
24.099161293, 96.390, 2459.0, 49.5883
24.125421858, 96.390, 2479.0, 49.7896
24.151682424, 96.390, 2525.0, 50.2494
24.177942989, 96.390, 2430.0, 49.2950
24.204203554, 96.390, 2428.0, 49.2747
24.230464120, 96.390, 2526.0, 50.2593
24.256724685, 96.390, 2400.0, 48.9898
24.282985250, 96.390, 2417.0, 49.1630
24.309245816, 96.390, 2341.0, 48.3839
24.335506381, 96.390, 2441.0, 49.4065
24.361766946, 96.390, 2471.0, 49.7092
24.388027512, 96.390, 2479.0, 49.7896
24.414288077, 96.390, 2422.0, 49.2138
24.440548642, 96.390, 2441.0, 49.4065
24.466809208, 96.390, 2407.0, 49.0612
24.493069773, 96.390, 2439.0, 49.3862
24.519330338, 96.390, 2395.0, 48.9387
24.545590904, 96.390, 2356.0, 48.5386
24.571851469, 96.390, 2313.0, 48.0937
24.598112035, 96.390, 2396.0, 48.9490
24.624372600, 96.390, 2461.0, 49.6085
24.650633165, 96.390, 2311.0, 48.0729
24.676893731, 96.390, 2331.0, 48.2804
24.703154296, 96.390, 2265.0, 47.5920
24.729414861, 96.390, 2396.0, 48.9490
24.755675427, 96.390, 2247.0, 47.4025
24.781935992, 96.390, 2334.0, 48.3115
24.808196557, 96.390, 2400.0, 48.9898
24.834457123, 96.390, 2357.0, 48.5489
24.860717688, 96.390, 2137.0, 46.2277
24.886978253, 96.390, 2250.0, 47.4342
24.913238819, 96.390, 2172.0, 46.6047
24.939499384, 96.390, 2278.0, 47.7284
24.965759950, 96.390, 2134.0, 46.1952
24.992020515, 96.390, 2213.0, 47.0425
25.018281080, 96.390, 2272.0, 47.6655
25.044541646, 96.390, 2204.0, 46.9468
25.070802211, 96.390, 2226.0, 47.1805
25.097062776, 96.390, 2238.0, 47.3075
25.123323342, 96.390, 2289.0, 47.8435
25.149583907, 96.390, 2159.0, 46.4650
25.175844472, 96.390, 2162.0, 46.4973
25.202105038, 96.390, 2225.0, 47.1699
25.228365603, 96.390, 2160.0, 46.4758
25.254626168, 96.390, 2147.0, 46.3357
25.280886734, 96.390, 2181.0, 46.7012
25.307147299, 96.390, 2152.0, 46.3897
25.333407864, 96.390, 2172.0, 46.6047
25.359668430, 96.390, 2195.0, 46.8508
25.385928995, 96.390, 2182.0, 46.7119
25.412189561, 96.390, 2127.0, 46.1194
25.438450126, 96.390, 2035.0, 45.1110
25.464710691, 96.390, 2163.0, 46.5081
25.490971257, 96.390, 2068.0, 45.4753
25.517231822, 96.390, 2101.0, 45.8367
25.543492387, 96.390, 2205.0, 46.9574
25.569752953, 96.390, 2091.0, 45.7275
25.596013518, 96.390, 2169.0, 46.5725
25.622274083, 96.390, 2147.0, 46.3357
25.648534649, 96.390, 2065.0, 45.4423
25.674795214, 96.390, 2047.0, 45.2438
25.701055779, 96.390, 2065.0, 45.4423
25.727316345, 96.390, 2054.0, 45.3211
25.753576910, 96.390, 2046.0, 45.2327
25.779837476, 96.390, 2099.0, 45.8148
25.806098041, 96.390, 2073.0, 45.5302
25.832358606, 96.390, 2091.0, 45.7275
25.858619172, 96.390, 2053.0, 45.3100
25.884879737, 96.390, 2155.0, 46.4220
25.911140302, 96.390, 2070.0, 45.4973
25.937400868, 96.390, 2115.0, 45.9891
25.963661433, 96.390, 2034.0, 45.0999
25.989921998, 96.390, 2094.0, 45.7602
26.016182564, 96.390, 2055.0, 45.3321
26.042443129, 96.390, 2056.0, 45.3431
26.068703694, 96.390, 2178.0, 46.6690
26.094964260, 96.390, 2032.0, 45.0777
26.121224825, 96.390, 2061.0, 45.3982
26.147485390, 96.390, 2132.0, 46.1736
26.173745956, 96.390, 2113.0, 45.9674
26.200006521, 96.390, 2209.0, 47.0000
26.226267087, 96.390, 2166.0, 46.5403
26.252527652, 96.390, 2168.0, 46.5618
26.278788217, 96.390, 2227.0, 47.1911
26.305048783, 96.390, 2175.0, 46.6369
26.331309348, 96.390, 2112.0, 45.9565
26.357569913, 96.390, 2117.0, 46.0109
26.383830479, 96.390, 2112.0, 45.9565
26.410091044, 96.390, 2046.0, 45.2327
26.436351609, 96.390, 2100.0, 45.8258
26.462612175, 96.390, 2079.0, 45.5961
26.488872740, 96.390, 2074.0, 45.5412
26.515133305, 96.390, 2129.0, 46.1411
26.541393871, 96.390, 2040.0, 45.1664
26.567654436, 96.390, 2044.0, 45.2106
26.593915002, 96.390, 2032.0, 45.0777
26.620175567, 96.390, 2090.0, 45.7165
26.646436132, 96.390, 2049.0, 45.2659
26.672696698, 96.390, 2095.0, 45.7712
26.698957263, 96.390, 2089.0, 45.7056
26.725217828, 96.390, 2047.0, 45.2438
26.751478394, 96.390, 1975.0, 44.4410
26.777738959, 96.390, 2036.0, 45.1221
26.803999524, 96.390, 2059.0, 45.3762
26.830260090, 96.390, 2016.0, 44.8999
26.856520655, 96.390, 2032.0, 45.0777
26.882781220, 96.390, 2041.0, 45.1774
26.909041786, 96.390, 2028.0, 45.0333
26.935302351, 96.390, 2028.0, 45.0333
26.961562916, 96.390, 2049.0, 45.2659
26.987823482, 96.390, 1915.0, 43.7607
27.014084047, 96.390, 2003.0, 44.7549
27.040344613, 96.390, 2013.0, 44.8665
27.066605178, 96.390, 1880.0, 43.3590
27.092865743, 96.390, 1919.0, 43.8064
27.119126309, 96.390, 1986.0, 44.5646
27.145386874, 96.390, 1822.0, 42.6849
27.171647439, 96.390, 1910.0, 43.7035
27.197908005, 96.390, 1850.0, 43.0116
27.224168570, 96.390, 1930.0, 43.9318
27.250429135, 96.390, 1817.0, 42.6263
27.276689701, 96.390, 1862.0, 43.1509
27.302950266, 96.390, 1817.0, 42.6263
27.329210831, 96.390, 1894.0, 43.5201
27.355471397, 96.390, 1825.0, 42.7200
27.381731962, 96.390, 1872.0, 43.2666
27.407992528, 96.390, 1825.0, 42.7200
27.434253093, 96.390, 1810.0, 42.5441
27.460513658, 96.390, 1777.0, 42.1545
27.486774224, 96.390, 1838.0, 42.8719
27.513034789, 96.390, 1857.0, 43.0929
27.539295354, 96.390, 1846.0, 42.9651
27.565555920, 96.390, 1789.0, 42.2966
27.591816485, 96.390, 1861.0, 43.1393
27.618077050, 96.390, 1820.0, 42.6615
27.644337616, 96.390, 1810.0, 42.5441
27.670598181, 96.390, 1826.0, 42.7317
27.696858746, 96.390, 1768.0, 42.0476
27.723119312, 96.390, 1810.0, 42.5441
27.749379877, 96.390, 1858.0, 43.1045
27.775640442, 96.390, 1746.0, 41.7852
27.801901008, 96.390, 1785.0, 42.2493
27.828161573, 96.390, 1841.0, 42.9069
27.854422139, 96.390, 1784.0, 42.2374
27.880682704, 96.390, 1801.0, 42.4382
27.906943269, 96.390, 1851.0, 43.0232
27.933203835, 96.390, 1835.0, 42.8369
27.959464400, 96.390, 1842.0, 42.9185
27.985724965, 96.390, 1810.0, 42.5441
28.011985531, 96.390, 1815.0, 42.6028
28.038246096, 96.390, 1790.0, 42.3084
28.064506661, 96.390, 1790.0, 42.3084
28.090767227, 96.390, 1803.0, 42.4617
28.117027792, 96.390, 1753.0, 41.8688
28.143288357, 96.390, 1789.0, 42.2966
28.169548923, 96.390, 1695.0, 41.1704
28.195809488, 96.390, 1794.0, 42.3556
28.222070054, 96.390, 1707.0, 41.3159
28.248330619, 96.390, 1758.0, 41.9285
28.274591184, 96.390, 1805.0, 42.4853
28.300851750, 96.390, 1833.0, 42.8135
28.327112315, 96.390, 1810.0, 42.5441
28.353372880, 96.390, 1782.0, 42.2137
28.379633446, 96.390, 1770.0, 42.0714
28.405894011, 96.390, 1762.0, 41.9762
28.432154576, 96.390, 1694.0, 41.1582
28.458415142, 96.390, 1750.0, 41.8330
28.484675707, 96.390, 1745.0, 41.7732
28.510936272, 96.390, 1828.0, 42.7551
28.537196838, 96.390, 1785.0, 42.2493
28.563457403, 96.390, 1801.0, 42.4382
28.589717968, 96.390, 1746.0, 41.7852
28.615978534, 96.390, 1695.0, 41.1704
28.642239099, 96.390, 1752.0, 41.8569
28.668499665, 96.390, 1796.0, 42.3792
28.694760230, 96.390, 1770.0, 42.0714
28.721020795, 96.390, 1730.0, 41.5933
28.747281361, 96.390, 1724.0, 41.5211
28.773541926, 96.390, 1782.0, 42.2137
28.799802491, 96.390, 1792.0, 42.3320
28.826063057, 96.390, 1652.0, 40.6448
28.852323622, 96.390, 1833.0, 42.8135
28.878584187, 96.390, 1707.0, 41.3159
28.904844753, 96.390, 1663.0, 40.7799
28.931105318, 96.390, 1703.0, 41.2674
28.957365883, 96.390, 1715.0, 41.4126
28.983626449, 96.390, 1695.0, 41.1704
29.009887014, 96.390, 1745.0, 41.7732
29.036147579, 96.390, 1636.0, 40.4475
29.062408145, 96.390, 1773.0, 42.1070
29.088668710, 96.390, 1768.0, 42.0476
29.114929276, 96.390, 1838.0, 42.8719
29.141189841, 96.390, 1697.0, 41.1947
29.167450406, 96.390, 1729.0, 41.5812
29.193710972, 96.390, 1725.0, 41.5331
29.219971537, 96.390, 1713.0, 41.3884
29.246232102, 96.390, 1775.0, 42.1307
29.272492668, 96.390, 1663.0, 40.7799
29.298753233, 96.390, 1706.0, 41.3038
29.325013798, 96.390, 1714.0, 41.4005
29.351274364, 96.390, 1686.0, 41.0609
29.377534929, 96.390, 1711.0, 41.3642
29.403795494, 96.390, 1759.0, 41.9404
29.430056060, 96.390, 1720.0, 41.4729
29.456316625, 96.390, 1721.0, 41.4849
29.482577191, 96.390, 1716.0, 41.4246
29.508837756, 96.390, 1693.0, 41.1461
29.535098321, 96.390, 1779.0, 42.1782
29.561358887, 96.390, 1721.0, 41.4849
29.587619452, 96.390, 1693.0, 41.1461
29.613880017, 96.390, 1673.0, 40.9023
29.640140583, 96.390, 1751.0, 41.8450
29.666401148, 96.390, 1764.0, 42.0000
29.692661713, 96.390, 1786.0, 42.2611
29.718922279, 96.390, 1738.0, 41.6893
29.745182844, 96.390, 1784.0, 42.2374
29.771443409, 96.390, 1798.0, 42.4028
29.797703975, 96.390, 1745.0, 41.7732
29.823964540, 96.390, 1745.0, 41.7732
29.850225105, 96.390, 1785.0, 42.2493
29.876485671, 96.390, 1753.0, 41.8688
29.902746236, 96.390, 1784.0, 42.2374
29.929006802, 96.390, 1810.0, 42.5441
29.955267367, 96.390, 1707.0, 41.3159
29.981527932, 96.390, 1762.0, 41.9762
30.007788498, 96.390, 1801.0, 42.4382
30.034049063, 96.390, 1717.0, 41.4367
30.060309628, 96.390, 1838.0, 42.8719
30.086570194, 96.390, 1719.0, 41.4608
30.112830759, 96.390, 1782.0, 42.2137
30.139091324, 96.390, 1700.0, 41.2311
30.165351890, 96.390, 1743.0, 41.7493
30.191612455, 96.390, 1691.0, 41.1218
30.217873020, 96.390, 1830.0, 42.7785
30.244133586, 96.390, 1724.0, 41.5211
30.270394151, 96.390, 1685.0, 41.0488
30.296654717, 96.390, 1726.0, 41.5452
30.322915282, 96.390, 1771.0, 42.0833
30.349175847, 96.390, 1731.0, 41.6053
30.375436413, 96.390, 1826.0, 42.7317
30.401696978, 96.390, 1762.0, 41.9762
30.427957543, 96.390, 1740.0, 41.7133
30.454218109, 96.390, 1750.0, 41.8330
30.480478674, 96.390, 1724.0, 41.5211
30.506739239, 96.390, 1707.0, 41.3159
30.532999805, 96.390, 1727.0, 41.5572
30.559260370, 96.390, 1701.0, 41.2432
30.585520935, 96.390, 1710.0, 41.3521
30.611781501, 96.390, 1628.0, 40.3485
30.638042066, 96.390, 1733.0, 41.6293
30.664302631, 96.390, 1714.0, 41.4005
30.690563197, 96.390, 1700.0, 41.2311
30.716823762, 96.390, 1709.0, 41.3401
30.743084328, 96.390, 1661.0, 40.7554
30.769344893, 96.390, 1642.0, 40.5216
30.795605458, 96.390, 1577.0, 39.7115
30.821866024, 96.390, 1661.0, 40.7554
30.848126589, 96.390, 1655.0, 40.6817
30.874387154, 96.390, 1612.0, 40.1497
30.900647720, 96.390, 1633.0, 40.4104
30.926908285, 96.390, 1651.0, 40.6325
30.953168850, 96.390, 1633.0, 40.4104
30.979429416, 96.390, 1600.0, 40.0000
31.005689981, 96.390, 1546.0, 39.3192
31.031950546, 96.390, 1547.0, 39.3319
31.058211112, 96.390, 1525.0, 39.0512
31.084471677, 96.390, 1577.0, 39.7115
31.110732243, 96.390, 1587.0, 39.8372
31.136992808, 96.390, 1660.0, 40.7431
31.163253373, 96.390, 1619.0, 40.2368
31.189513939, 96.390, 1555.0, 39.4335
31.215774504, 96.390, 1544.0, 39.2938
31.242035069, 96.390, 1499.0, 38.7169
31.268295635, 96.390, 1537.0, 39.2046
31.294556200, 96.390, 1580.0, 39.7492
31.320816765, 96.390, 1593.0, 39.9124
31.347077331, 96.390, 1580.0, 39.7492
31.373337896, 96.390, 1519.0, 38.9744
31.399598461, 96.390, 1539.0, 39.2301
31.425859027, 96.390, 1531.0, 39.1280
31.452119592, 96.390, 1561.0, 39.5095
31.478380157, 96.390, 1503.0, 38.7685
31.504640723, 96.390, 1568.0, 39.5980
31.530901288, 96.390, 1607.0, 40.0874
31.557161854, 96.390, 1574.0, 39.6737
31.583422419, 96.390, 1475.0, 38.4057
31.609682984, 96.390, 1592.0, 39.8999
31.635943550, 96.390, 1630.0, 40.3733
31.662204115, 96.390, 1658.0, 40.7185
31.688464680, 96.390, 1648.0, 40.5956
31.714725246, 96.390, 1707.0, 41.3159
31.740985811, 96.390, 1621.0, 40.2616
31.767246376, 96.390, 1677.0, 40.9512
31.793506942, 96.390, 1608.0, 40.0999
31.819767507, 96.390, 1650.0, 40.6202
31.846028072, 96.390, 1564.0, 39.5474
31.872288638, 96.390, 1610.0, 40.1248
31.898549203, 96.390, 1562.0, 39.5221
31.924809769, 96.390, 1606.0, 40.0749
31.951070334, 96.390, 1611.0, 40.1373
31.977330899, 96.390, 1552.0, 39.3954
32.003591465, 96.390, 1509.0, 38.8458
32.029852030, 96.390, 1477.0, 38.4318
32.056112595, 96.390, 1532.0, 39.1408
32.082373161, 96.390, 1513.0, 38.8973
32.108633726, 96.390, 1527.0, 39.0768
32.134894291, 96.390, 1600.0, 40.0000
32.161154857, 96.390, 1460.0, 38.2099
32.187415422, 96.390, 1585.0, 39.8121
32.213675987, 96.390, 1532.0, 39.1408
32.239936553, 96.390, 1600.0, 40.0000
32.266197118, 96.390, 1537.0, 39.2046
32.292457683, 96.390, 1503.0, 38.7685
32.318718249, 96.390, 1557.0, 39.4588
32.344978814, 96.390, 1564.0, 39.5474
32.371239380, 96.390, 1509.0, 38.8458
32.397499945, 96.390, 1556.0, 39.4462
32.423760510, 96.390, 1576.0, 39.6989
32.450021076, 96.390, 1502.0, 38.7556
32.476281641, 96.390, 1450.0, 38.0789
32.502542206, 96.390, 1508.0, 38.8330
32.528802772, 96.390, 1540.0, 39.2428
32.555063337, 96.390, 1626.0, 40.3237
32.581323902, 96.390, 1533.0, 39.1535
32.607584468, 96.390, 1467.0, 38.3014
32.633845033, 96.390, 1509.0, 38.8458
32.660105598, 96.390, 1552.0, 39.3954
32.686366164, 96.390, 1530.0, 39.1152
32.712626729, 96.390, 1549.0, 39.3573
32.738887295, 96.390, 1451.0, 38.0920
32.765147860, 96.390, 1529.0, 39.1024
32.791408425, 96.390, 1540.0, 39.2428
32.817668991, 96.390, 1496.0, 38.6782
32.843929556, 96.390, 1528.0, 39.0896
32.870190121, 96.390, 1594.0, 39.9249
32.896450687, 96.390, 1565.0, 39.5601
32.922711252, 96.390, 1504.0, 38.7814
32.948971817, 96.390, 1500.0, 38.7298
32.975232383, 96.390, 1495.0, 38.6652
33.001492948, 96.390, 1506.0, 38.8072
33.027753513, 96.390, 1502.0, 38.7556
33.054014079, 96.390, 1539.0, 39.2301
33.080274644, 96.390, 1511.0, 38.8716
33.106535209, 96.390, 1609.0, 40.1123
33.132795775, 96.390, 1539.0, 39.2301
33.159056340, 96.390, 1546.0, 39.3192
33.185316906, 96.390, 1512.0, 38.8844
33.211577471, 96.390, 1475.0, 38.4057
33.237838036, 96.390, 1475.0, 38.4057
33.264098602, 96.390, 1546.0, 39.3192
33.290359167, 96.390, 1444.0, 38.0000
33.316619732, 96.390, 1544.0, 39.2938
33.342880298, 96.390, 1562.0, 39.5221
33.369140863, 96.390, 1489.0, 38.5876
33.395401428, 96.390, 1509.0, 38.8458
33.421661994, 96.390, 1460.0, 38.2099
33.447922559, 96.390, 1474.0, 38.3927
33.474183124, 96.390, 1545.0, 39.3065
33.500443690, 96.390, 1534.0, 39.1663
33.526704255, 96.390, 1469.0, 38.3275
33.552964820, 96.390, 1473.0, 38.3797
33.579225386, 96.390, 1508.0, 38.8330
33.605485951, 96.390, 1550.0, 39.3700
33.631746517, 96.390, 1529.0, 39.1024
33.658007082, 96.390, 1528.0, 39.0896
33.684267647, 96.390, 1491.0, 38.6135
33.710528213, 96.390, 1537.0, 39.2046
33.736788778, 96.390, 1480.0, 38.4708
33.763049343, 96.390, 1535.0, 39.1791
33.789309909, 96.390, 1561.0, 39.5095
33.815570474, 96.390, 1574.0, 39.6737
33.841831039, 96.390, 1490.0, 38.6005
33.868091605, 96.390, 1525.0, 39.0512
33.894352170, 96.390, 1509.0, 38.8458
33.920612735, 96.390, 1424.0, 37.7359
33.946873301, 96.390, 1539.0, 39.2301
33.973133866, 96.390, 1495.0, 38.6652
33.999394432, 96.390, 1561.0, 39.5095
34.025654997, 96.390, 1612.0, 40.1497
34.051915562, 96.390, 1500.0, 38.7298
34.078176128, 96.390, 1637.0, 40.4599
34.104436693, 96.390, 1556.0, 39.4462
34.130697258, 96.390, 1532.0, 39.1408
34.156957824, 96.390, 1566.0, 39.5727
34.183218389, 96.390, 1575.0, 39.6863
34.209478954, 96.390, 1582.0, 39.7744
34.235739520, 96.390, 1627.0, 40.3361
34.262000085, 96.390, 1560.0, 39.4968
34.288260650, 96.390, 1570.0, 39.6232
34.314521216, 96.390, 1632.0, 40.3980
34.340781781, 96.390, 1679.0, 40.9756
34.367042346, 96.390, 1615.0, 40.1871
34.393302912, 96.390, 1639.0, 40.4846
34.419563477, 96.390, 1618.0, 40.2244
34.445824043, 96.390, 1686.0, 41.0609
34.472084608, 96.390, 1648.0, 40.5956
34.498345173, 96.390, 1664.0, 40.7922
34.524605739, 96.390, 1635.0, 40.4351
34.550866304, 96.390, 1695.0, 41.1704
34.577126869, 96.390, 1659.0, 40.7308
34.603387435, 96.390, 1663.0, 40.7799
34.629648000, 96.390, 1703.0, 41.2674
34.655908565, 96.390, 1682.0, 41.0122
34.682169131, 96.390, 1775.0, 42.1307
34.708429696, 96.390, 1657.0, 40.7063
34.734690261, 96.390, 1728.0, 41.5692
34.760950827, 96.390, 1725.0, 41.5331
34.787211392, 96.390, 1726.0, 41.5452
34.813471958, 96.390, 1728.0, 41.5692
34.839732523, 96.390, 1717.0, 41.4367
34.865993088, 96.390, 1806.0, 42.4971
34.892253654, 96.390, 1823.0, 42.6966
34.918514219, 96.390, 1746.0, 41.7852
34.944774784, 96.390, 1746.0, 41.7852
34.971035350, 96.390, 1706.0, 41.3038
34.997295915, 96.390, 1787.0, 42.2729
35.023556480, 96.390, 1683.0, 41.0244
35.049817046, 96.390, 1779.0, 42.1782
35.076077611, 96.390, 1772.0, 42.0951
35.102338176, 96.390, 1727.0, 41.5572
35.128598742, 96.390, 1691.0, 41.1218
35.154859307, 96.390, 1701.0, 41.2432
35.181119872, 96.390, 1684.0, 41.0366
35.207380438, 96.390, 1724.0, 41.5211
35.233641003, 96.390, 1633.0, 40.4104
35.259901569, 96.390, 1603.0, 40.0375
35.286162134, 96.390, 1597.0, 39.9625
35.312422699, 96.390, 1600.0, 40.0000
35.338683265, 96.390, 1692.0, 41.1339
35.364943830, 96.390, 1616.0, 40.1995
35.391204395, 96.390, 1613.0, 40.1622
35.417464961, 96.390, 1595.0, 39.9375
35.443725526, 96.390, 1513.0, 38.8973
35.469986091, 96.390, 1562.0, 39.5221
35.496246657, 96.390, 1578.0, 39.7240
35.522507222, 96.390, 1618.0, 40.2244
35.548767787, 96.390, 1591.0, 39.8873
35.575028353, 96.390, 1547.0, 39.3319
35.601288918, 96.390, 1671.0, 40.8779
35.627549484, 96.390, 1571.0, 39.6358
35.653810049, 96.390, 1547.0, 39.3319
35.680070614, 96.390, 1500.0, 38.7298
35.706331180, 96.390, 1619.0, 40.2368
35.732591745, 96.390, 1555.0, 39.4335
35.758852310, 96.390, 1650.0, 40.6202
35.785112876, 96.390, 1548.0, 39.3446
35.811373441, 96.390, 1554.0, 39.4208
35.837634006, 96.390, 1560.0, 39.4968
35.863894572, 96.390, 1598.0, 39.9750
35.890155137, 96.390, 1519.0, 38.9744
35.916415702, 96.390, 1484.0, 38.5227
35.942676268, 96.390, 1465.0, 38.2753
35.968936833, 96.390, 1538.0, 39.2173
35.995197398, 96.390, 1500.0, 38.7298
36.021457964, 96.390, 1522.0, 39.0128
36.047718529, 96.390, 1525.0, 39.0512
36.073979095, 96.390, 1498.0, 38.7040
36.100239660, 96.390, 1465.0, 38.2753
36.126500225, 96.390, 1486.0, 38.5487
36.152760791, 96.390, 1491.0, 38.6135
36.179021356, 96.390, 1460.0, 38.2099
36.205281921, 96.390, 1463.0, 38.2492
36.231542487, 96.390, 1553.0, 39.4081
36.257803052, 96.390, 1489.0, 38.5876
36.284063617, 96.390, 1436.0, 37.8946
36.310324183, 96.390, 1422.0, 37.7094
36.336584748, 96.390, 1466.0, 38.2884
36.362845313, 96.390, 1444.0, 38.0000
36.389105879, 96.390, 1473.0, 38.3797
36.415366444, 96.390, 1417.0, 37.6431
36.441627010, 96.390, 1405.0, 37.4833
36.467887575, 96.390, 1403.0, 37.4566
36.494148140, 96.390, 1442.0, 37.9737
36.520408706, 96.390, 1444.0, 38.0000
36.546669271, 96.390, 1407.0, 37.5100
36.572929836, 96.390, 1425.0, 37.7492
36.599190402, 96.390, 1432.0, 37.8418
36.625450967, 96.390, 1413.0, 37.5899
36.651711532, 96.390, 1483.0, 38.5097
36.677972098, 96.390, 1442.0, 37.9737
36.704232663, 96.390, 1361.0, 36.8917
36.730493228, 96.390, 1384.0, 37.2022
36.756753794, 96.390, 1485.0, 38.5357
36.783014359, 96.390, 1384.0, 37.2022
36.809274924, 96.390, 1392.0, 37.3095
36.835535490, 96.390, 1409.0, 37.5366
36.861796055, 96.390, 1380.0, 37.1484
36.888056621, 96.390, 1450.0, 38.0789
36.914317186, 96.390, 1395.0, 37.3497
36.940577751, 96.390, 1354.0, 36.7967
36.966838317, 96.390, 1341.0, 36.6197
36.993098882, 96.390, 1332.0, 36.4966
37.019359447, 96.390, 1313.0, 36.2353
37.045620013, 96.390, 1340.0, 36.6060
37.071880578, 96.390, 1298.0, 36.0278
37.098141143, 96.390, 1306.0, 36.1386
37.124401709, 96.390, 1362.0, 36.9053
37.150662274, 96.390, 1360.0, 36.8782
37.176922839, 96.390, 1267.0, 35.5949
37.203183405, 96.390, 1280.0, 35.7771
37.229443970, 96.390, 1353.0, 36.7831
37.255704535, 96.390, 1210.0, 34.7851
37.281965101, 96.390, 1327.0, 36.4280
37.308225666, 96.390, 1279.0, 35.7631
37.334486232, 96.390, 1290.0, 35.9166
37.360746797, 96.390, 1254.0, 35.4119
37.387007362, 96.390, 1271.0, 35.6511
37.413267928, 96.390, 1246.0, 35.2987
37.439528493, 96.390, 1337.0, 36.5650
37.465789058, 96.390, 1235.0, 35.1426
37.492049624, 96.390, 1256.0, 35.4401
37.518310189, 96.390, 1240.0, 35.2136
37.544570754, 96.390, 1166.0, 34.1467
37.570831320, 96.390, 1251.0, 35.3695
37.597091885, 96.390, 1326.0, 36.4143
37.623352450, 96.390, 1230.0, 35.0714
37.649613016, 96.390, 1244.0, 35.2704
37.675873581, 96.390, 1245.0, 35.2846
37.702134147, 96.390, 1246.0, 35.2987
37.728394712, 96.390, 1192.0, 34.5254
37.754655277, 96.390, 1288.0, 35.8887
37.780915843, 96.390, 1201.0, 34.6554
37.807176408, 96.390, 1234.0, 35.1283
37.833436973, 96.390, 1219.0, 34.9142
37.859697539, 96.390, 1192.0, 34.5254
37.885958104, 96.390, 1190.0, 34.4964
37.912218669, 96.390, 1261.0, 35.5106
37.938479235, 96.390, 1265.0, 35.5668
37.964739800, 96.390, 1229.0, 35.0571
37.991000365, 96.390, 1194.0, 34.5543
38.017260931, 96.390, 1252.0, 35.3836
38.043521496, 96.390, 1228.0, 35.0428
38.069782061, 96.390, 1211.0, 34.7994
38.096042627, 96.390, 1238.0, 35.1852
38.122303192, 96.390, 1193.0, 34.5398
38.148563758, 96.390, 1176.0, 34.2929
38.174824323, 96.390, 1207.0, 34.7419
38.201084888, 96.390, 1167.0, 34.1614
38.227345454, 96.390, 1137.0, 33.7194
38.253606019, 96.390, 1210.0, 34.7851
38.279866584, 96.390, 1224.0, 34.9857
38.306127150, 96.390, 1260.0, 35.4965
38.332387715, 96.390, 1174.0, 34.2637
38.358648280, 96.390, 1214.0, 34.8425
38.384908846, 96.390, 1214.0, 34.8425
38.411169411, 96.390, 1186.0, 34.4384
38.437429976, 96.390, 1246.0, 35.2987
38.463690542, 96.390, 1204.0, 34.6987
38.489951107, 96.390, 1252.0, 35.3836
38.516211673, 96.390, 1195.0, 34.5688
38.542472238, 96.390, 1266.0, 35.5809
38.568732803, 96.390, 1200.0, 34.6410
38.594993369, 96.390, 1240.0, 35.2136
38.621253934, 96.390, 1257.0, 35.4542
38.647514499, 96.390, 1237.0, 35.1710
38.673775065, 96.390, 1191.0, 34.5109
38.700035630, 96.390, 1224.0, 34.9857
38.726296195, 96.390, 1214.0, 34.8425
38.752556761, 96.390, 1127.0, 33.5708
38.778817326, 96.390, 1091.0, 33.0303
38.805077891, 96.390, 1178.0, 34.3220
38.831338457, 96.390, 1131.0, 33.6303
38.857599022, 96.390, 1133.0, 33.6601
38.883859587, 96.390, 1115.0, 33.3916
38.910120153, 96.390, 1136.0, 33.7046
38.936380718, 96.390, 1100.0, 33.1662
38.962641284, 96.390, 1098.0, 33.1361
38.988901849, 96.390, 1159.0, 34.0441
39.015162414, 96.390, 1106.0, 33.2566
39.041422980, 96.390, 1121.0, 33.4813
39.067683545, 96.390, 1123.0, 33.5112
39.093944110, 96.390, 1061.0, 32.5730
39.120204676, 96.390, 1081.0, 32.8786
39.146465241, 96.390, 1113.0, 33.3617
39.172725806, 96.390, 1145.0, 33.8378
39.198986372, 96.390, 1078.0, 32.8329
39.225246937, 96.390, 1114.0, 33.3766
39.251507502, 96.390, 1098.0, 33.1361
39.277768068, 96.390, 1072.0, 32.7414
39.304028633, 96.390, 1075.0, 32.7872
39.330289199, 96.390, 1025.0, 32.0156
39.356549764, 96.390, 994.0, 31.5278
39.382810329, 96.390, 1138.0, 33.7343
39.409070895, 96.390, 1039.0, 32.2335
39.435331460, 96.390, 1069.0, 32.6956
39.461592025, 96.390, 1067.0, 32.6650
39.487852591, 96.390, 1020.0, 31.9374
39.514113156, 96.390, 1092.0, 33.0454
39.540373721, 96.390, 1063.0, 32.6037
39.566634287, 96.390, 1038.0, 32.2180
39.592894852, 96.390, 1012.0, 31.8119
39.619155417, 96.390, 1039.0, 32.2335
39.645415983, 96.390, 1031.0, 32.1092
39.671676548, 96.390, 1046.0, 32.3419
39.697937113, 96.390, 1016.0, 31.8748
39.724197679, 96.390, 1053.0, 32.4500
39.750458244, 96.390, 1001.0, 31.6386
39.776718810, 96.390, 1024.0, 32.0000
39.802979375, 96.390, 1008.0, 31.7490
39.829239940, 96.390, 1060.0, 32.5576
39.855500506, 96.390, 1020.0, 31.9374
39.881761071, 96.390, 1032.0, 32.1248
39.908021636, 96.390, 983.0, 31.3528
39.934282202, 96.390, 980.0, 31.3050
39.960542767, 96.390, 1079.0, 32.8481
39.986803332, 96.390, 1001.0, 31.6386
40.013063898, 96.390, 991.0, 31.4802
40.039324463, 96.390, 957.0, 30.9354
40.065585028, 96.390, 1037.0, 32.2025
40.091845594, 96.390, 1027.0, 32.0468
40.118106159, 96.390, 1021.0, 31.9531
40.144366725, 96.390, 959.0, 30.9677
40.170627290, 96.390, 1022.0, 31.9687
40.196887855, 96.390, 1001.0, 31.6386
40.223148421, 96.390, 1022.0, 31.9687
40.249408986, 96.390, 972.0, 31.1769
40.275669551, 96.390, 927.0, 30.4467
40.301930117, 96.390, 1027.0, 32.0468
40.328190682, 96.390, 1030.0, 32.0936
40.354451247, 96.390, 995.0, 31.5436
40.380711813, 96.390, 991.0, 31.4802
40.406972378, 96.390, 977.0, 31.2570
40.433232943, 96.390, 1025.0, 32.0156
40.459493509, 96.390, 1070.0, 32.7109
40.485754074, 96.390, 1002.0, 31.6544
40.512014639, 96.390, 1005.0, 31.7017
40.538275205, 96.390, 980.0, 31.3050
40.564535770, 96.390, 995.0, 31.5436
40.590796336, 96.390, 1000.0, 31.6228
40.617056901, 96.390, 983.0, 31.3528
40.643317466, 96.390, 968.0, 31.1127
40.669578032, 96.390, 989.0, 31.4484
40.695838597, 96.390, 1012.0, 31.8119
40.722099162, 96.390, 1024.0, 32.0000
40.748359728, 96.390, 968.0, 31.1127
40.774620293, 96.390, 1002.0, 31.6544
40.800880858, 96.390, 988.0, 31.4325
40.827141424, 96.390, 977.0, 31.2570
40.853401989, 96.390, 924.0, 30.3974
40.879662554, 96.390, 991.0, 31.4802
40.905923120, 96.390, 972.0, 31.1769
40.932183685, 96.390, 989.0, 31.4484
40.958444251, 96.390, 1017.0, 31.8904
40.984704816, 96.390, 976.0, 31.2410
41.010965381, 96.390, 929.0, 30.4795
41.037225947, 96.390, 939.0, 30.6431
41.063486512, 96.390, 975.0, 31.2250
41.089747077, 96.390, 994.0, 31.5278
41.116007643, 96.390, 983.0, 31.3528
41.142268208, 96.390, 967.0, 31.0966
41.168528773, 96.390, 988.0, 31.4325
41.194789339, 96.390, 906.0, 30.0998
41.221049904, 96.390, 938.0, 30.6268
41.247310469, 96.390, 951.0, 30.8383
41.273571035, 96.390, 927.0, 30.4467
41.299831600, 96.390, 919.0, 30.3150
41.326092165, 96.390, 968.0, 31.1127
41.352352731, 96.390, 924.0, 30.3974
41.378613296, 96.390, 948.0, 30.7896
41.404873862, 96.390, 970.0, 31.1448
41.431134427, 96.390, 902.0, 30.0333
41.457394992, 96.390, 971.0, 31.1609
41.483655558, 96.390, 978.0, 31.2730
41.509916123, 96.390, 915.0, 30.2490
41.536176688, 96.390, 959.0, 30.9677
41.562437254, 96.390, 966.0, 31.0805
41.588697819, 96.390, 931.0, 30.5123
41.614958384, 96.390, 911.0, 30.1828
41.641218950, 96.390, 937.0, 30.6105
41.667479515, 96.390, 969.0, 31.1288
41.693740080, 96.390, 919.0, 30.3150
41.720000646, 96.390, 984.0, 31.3688
41.746261211, 96.390, 989.0, 31.4484
41.772521776, 96.390, 945.0, 30.7409
41.798782342, 96.390, 946.0, 30.7571
41.825042907, 96.390, 937.0, 30.6105
41.851303473, 96.390, 894.0, 29.8998
41.877564038, 96.390, 898.0, 29.9666
41.903824603, 96.390, 918.0, 30.2985
41.930085169, 96.390, 912.0, 30.1993
41.956345734, 96.390, 940.0, 30.6594
41.982606299, 96.390, 954.0, 30.8869
42.008866865, 96.390, 939.0, 30.6431
42.035127430, 96.390, 949.0, 30.8058
42.061387995, 96.390, 872.0, 29.5296
42.087648561, 96.390, 952.0, 30.8545
42.113909126, 96.390, 912.0, 30.1993
42.140169691, 96.390, 939.0, 30.6431
42.166430257, 96.390, 921.0, 30.3480
42.192690822, 96.390, 919.0, 30.3150
42.218951388, 96.390, 902.0, 30.0333
42.245211953, 96.390, 967.0, 31.0966
42.271472518, 96.390, 921.0, 30.3480
42.297733084, 96.390, 910.0, 30.1662
42.323993649, 96.390, 921.0, 30.3480
42.350254214, 96.390, 916.0, 30.2655
42.376514780, 96.390, 940.0, 30.6594
42.402775345, 96.390, 976.0, 31.2410
42.429035910, 96.390, 936.0, 30.5941
42.455296476, 96.390, 959.0, 30.9677
42.481557041, 96.390, 899.0, 29.9833
42.507817606, 96.390, 925.0, 30.4138
42.534078172, 96.390, 902.0, 30.0333
42.560338737, 96.390, 933.0, 30.5450
42.586599302, 96.390, 936.0, 30.5941
42.612859868, 96.390, 934.0, 30.5614
42.639120433, 96.390, 887.0, 29.7825
42.665380999, 96.390, 906.0, 30.0998
42.691641564, 96.390, 927.0, 30.4467
42.717902129, 96.390, 886.0, 29.7658
42.744162695, 96.390, 918.0, 30.2985
42.770423260, 96.390, 947.0, 30.7734
42.796683825, 96.390, 973.0, 31.1929
42.822944391, 96.390, 888.0, 29.7993
42.849204956, 96.390, 904.0, 30.0666
42.875465521, 96.390, 878.0, 29.6311
42.901726087, 96.390, 895.0, 29.9166
42.927986652, 96.390, 882.0, 29.6985
42.954247217, 96.390, 1021.0, 31.9531
42.980507783, 96.390, 926.0, 30.4302
43.006768348, 96.390, 933.0, 30.5450
43.033028914, 96.390, 924.0, 30.3974
43.059289479, 96.390, 914.0, 30.2324
43.085550044, 96.390, 925.0, 30.4138
43.111810610, 96.390, 972.0, 31.1769
43.138071175, 96.390, 927.0, 30.4467
43.164331740, 96.390, 907.0, 30.1164
43.190592306, 96.390, 891.0, 29.8496
43.216852871, 96.390, 892.0, 29.8664
43.243113436, 96.390, 899.0, 29.9833
43.269374002, 96.390, 953.0, 30.8707
43.295634567, 96.390, 967.0, 31.0966
43.321895132, 96.390, 910.0, 30.1662
43.348155698, 96.390, 921.0, 30.3480
43.374416263, 96.390, 941.0, 30.6757
43.400676828, 96.390, 962.0, 31.0161
43.426937394, 96.390, 915.0, 30.2490
43.453197959, 96.390, 914.0, 30.2324
43.479458525, 96.390, 918.0, 30.2985
43.505719090, 96.390, 963.0, 31.0322
43.531979655, 96.390, 975.0, 31.2250
43.558240221, 96.390, 1000.0, 31.6228
43.584500786, 96.390, 1001.0, 31.6386
43.610761351, 96.390, 948.0, 30.7896
43.637021917, 96.390, 935.0, 30.5778
43.663282482, 96.390, 889.0, 29.8161
43.689543047, 96.390, 898.0, 29.9666
43.715803613, 96.390, 890.0, 29.8329
43.742064178, 96.390, 905.0, 30.0832
43.768324743, 96.390, 917.0, 30.2820
43.794585309, 96.390, 946.0, 30.7571
43.820845874, 96.390, 1000.0, 31.6228
43.847106440, 96.390, 916.0, 30.2655
43.873367005, 96.390, 935.0, 30.5778
43.899627570, 96.390, 946.0, 30.7571
43.925888136, 96.390, 921.0, 30.3480
43.952148701, 96.390, 950.0, 30.8221
43.978409266, 96.390, 876.0, 29.5973
44.004669832, 96.390, 879.0, 29.6479
44.030930397, 96.390, 920.0, 30.3315
44.057190962, 96.390, 932.0, 30.5287
44.083451528, 96.390, 891.0, 29.8496
44.109712093, 96.390, 878.0, 29.6311
44.135972658, 96.390, 949.0, 30.8058
44.162233224, 96.390, 949.0, 30.8058
44.188493789, 96.390, 924.0, 30.3974
44.214754354, 96.390, 964.0, 31.0483
44.241014920, 96.390, 913.0, 30.2159
44.267275485, 96.390, 954.0, 30.8869
44.293536051, 96.390, 885.0, 29.7489
44.319796616, 96.390, 917.0, 30.2820
44.346057181, 96.390, 943.0, 30.7083
44.372317747, 96.390, 877.0, 29.6142
44.398578312, 96.390, 912.0, 30.1993
44.424838877, 96.390, 918.0, 30.2985
44.451099443, 96.390, 881.0, 29.6816
44.477360008, 96.390, 905.0, 30.0832
44.503620573, 96.390, 932.0, 30.5287
44.529881139, 96.390, 930.0, 30.4959
44.556141704, 96.390, 900.0, 30.0000
44.582402269, 96.390, 914.0, 30.2324
44.608662835, 96.390, 942.0, 30.6920
44.634923400, 96.390, 943.0, 30.7083
44.661183966, 96.390, 925.0, 30.4138
44.687444531, 96.390, 925.0, 30.4138
44.713705096, 96.390, 933.0, 30.5450
44.739965662, 96.390, 868.0, 29.4618
44.766226227, 96.390, 1005.0, 31.7017
44.792486792, 96.390, 960.0, 30.9839
44.818747358, 96.390, 965.0, 31.0644
44.845007923, 96.390, 954.0, 30.8869
44.871268488, 96.390, 952.0, 30.8545
44.897529054, 96.390, 945.0, 30.7409
44.923789619, 96.390, 980.0, 31.3050
44.950050184, 96.390, 910.0, 30.1662
44.976310750, 96.390, 983.0, 31.3528
45.002571315, 96.390, 917.0, 30.2820
45.028831880, 96.390, 959.0, 30.9677
45.055092446, 96.390, 897.0, 29.9500
45.081353011, 96.390, 1005.0, 31.7017
45.107613577, 96.390, 928.0, 30.4631
45.133874142, 96.390, 950.0, 30.8221
45.160134707, 96.390, 897.0, 29.9500
45.186395273, 96.390, 908.0, 30.1330
45.212655838, 96.390, 905.0, 30.0832
45.238916403, 96.390, 940.0, 30.6594
45.265176969, 96.390, 964.0, 31.0483
45.291437534, 96.390, 918.0, 30.2985
45.317698099, 96.390, 875.0, 29.5804
45.343958665, 96.390, 965.0, 31.0644
45.370219230, 96.390, 918.0, 30.2985
45.396479795, 96.390, 933.0, 30.5450
45.422740361, 96.390, 872.0, 29.5296
45.449000926, 96.390, 1025.0, 32.0156
45.475261492, 96.390, 936.0, 30.5941
45.501522057, 96.390, 923.0, 30.3809
45.527782622, 96.390, 891.0, 29.8496
45.554043188, 96.390, 948.0, 30.7896
45.580303753, 96.390, 945.0, 30.7409
45.606564318, 96.390, 877.0, 29.6142
45.632824884, 96.390, 908.0, 30.1330
45.659085449, 96.390, 948.0, 30.7896
45.685346014, 96.390, 951.0, 30.8383
45.711606580, 96.390, 921.0, 30.3480
45.737867145, 96.390, 929.0, 30.4795
45.764127710, 96.390, 946.0, 30.7571
45.790388276, 96.390, 954.0, 30.8869
45.816648841, 96.390, 955.0, 30.9031
45.842909406, 96.390, 937.0, 30.6105
45.869169972, 96.390, 935.0, 30.5778
45.895430537, 96.390, 948.0, 30.7896
45.921691103, 96.390, 950.0, 30.8221
45.947951668, 96.390, 935.0, 30.5778
45.974212233, 96.390, 933.0, 30.5450
46.000472799, 96.390, 892.0, 29.8664
46.026733364, 96.390, 962.0, 31.0161
46.052993929, 96.390, 948.0, 30.7896
46.079254495, 96.390, 947.0, 30.7734
46.105515060, 96.390, 928.0, 30.4631
46.131775625, 96.390, 919.0, 30.3150
46.158036191, 96.390, 956.0, 30.9192
46.184296756, 96.390, 960.0, 30.9839
46.210557321, 96.390, 969.0, 31.1288
46.236817887, 96.390, 1098.0, 33.1361
46.263078452, 96.390, 991.0, 31.4802
46.289339017, 96.390, 1013.0, 31.8277
46.315599583, 96.390, 1017.0, 31.8904
46.341860148, 96.390, 996.0, 31.5595
46.368120714, 96.390, 1027.0, 32.0468
46.394381279, 96.390, 1058.0, 32.5269
46.420641844, 96.390, 973.0, 31.1929
46.446902410, 96.390, 994.0, 31.5278
46.473162975, 96.390, 1024.0, 32.0000
46.499423540, 96.390, 942.0, 30.6920
46.525684106, 96.390, 958.0, 30.9516
46.551944671, 96.390, 1039.0, 32.2335
46.578205236, 96.390, 948.0, 30.7896
46.604465802, 96.390, 1004.0, 31.6860
46.630726367, 96.390, 1005.0, 31.7017
46.656986932, 96.390, 950.0, 30.8221
46.683247498, 96.390, 953.0, 30.8707
46.709508063, 96.390, 948.0, 30.7896
46.735768629, 96.390, 949.0, 30.8058
46.762029194, 96.390, 945.0, 30.7409
46.788289759, 96.390, 925.0, 30.4138
46.814550325, 96.390, 927.0, 30.4467
46.840810890, 96.390, 972.0, 31.1769
46.867071455, 96.390, 902.0, 30.0333
46.893332021, 96.390, 923.0, 30.3809
46.919592586, 96.390, 901.0, 30.0167
46.945853151, 96.390, 908.0, 30.1330
46.972113717, 96.390, 914.0, 30.2324
46.998374282, 96.390, 918.0, 30.2985
47.024634847, 96.390, 983.0, 31.3528
47.050895413, 96.390, 903.0, 30.0500
47.077155978, 96.390, 927.0, 30.4467
47.103416543, 96.390, 981.0, 31.3209
47.129677109, 96.390, 949.0, 30.8058
47.155937674, 96.390, 883.0, 29.7153
47.182198240, 96.390, 905.0, 30.0832
47.208458805, 96.390, 914.0, 30.2324
47.234719370, 96.390, 939.0, 30.6431
47.260979936, 96.390, 879.0, 29.6479
47.287240501, 96.390, 907.0, 30.1164
47.313501066, 96.390, 914.0, 30.2324
47.339761632, 96.390, 895.0, 29.9166
47.366022197, 96.390, 951.0, 30.8383
47.392282762, 96.390, 917.0, 30.2820
47.418543328, 96.390, 937.0, 30.6105
47.444803893, 96.390, 912.0, 30.1993
47.471064458, 96.390, 936.0, 30.5941
47.497325024, 96.390, 932.0, 30.5287
47.523585589, 96.390, 817.0, 28.5832
47.549846155, 96.390, 909.0, 30.1496
47.576106720, 96.390, 916.0, 30.2655
47.602367285, 96.390, 942.0, 30.6920
47.628627851, 96.390, 939.0, 30.6431
47.654888416, 96.390, 873.0, 29.5466
47.681148981, 96.390, 906.0, 30.0998
47.707409547, 96.390, 845.0, 29.0689
47.733670112, 96.390, 854.0, 29.2233
47.759930677, 96.390, 923.0, 30.3809
47.786191243, 96.390, 876.0, 29.5973
47.812451808, 96.390, 857.0, 29.2746
47.838712373, 96.390, 919.0, 30.3150
47.864972939, 96.390, 899.0, 29.9833
47.891233504, 96.390, 959.0, 30.9677
47.917494069, 96.390, 889.0, 29.8161
47.943754635, 96.390, 917.0, 30.2820
47.970015200, 96.390, 863.0, 29.3769
47.996275766, 96.390, 875.0, 29.5804
48.022536331, 96.390, 908.0, 30.1330
48.048796896, 96.390, 842.0, 29.0172
48.075057462, 96.390, 895.0, 29.9166
48.101318027, 96.390, 882.0, 29.6985
48.127578592, 96.390, 856.0, 29.2575
48.153839158, 96.390, 841.0, 29.0000
48.180099723, 96.390, 864.0, 29.3939
48.206360288, 96.390, 849.0, 29.1376
48.232620854, 96.390, 871.0, 29.5127
48.258881419, 96.390, 883.0, 29.7153
48.285141984, 96.390, 853.0, 29.2062
48.311402550, 96.390, 867.0, 29.4449
48.337663115, 96.390, 827.0, 28.7576
48.363923681, 96.390, 903.0, 30.0500
48.390184246, 96.390, 809.0, 28.4429
48.416444811, 96.390, 856.0, 29.2575
48.442705377, 96.390, 829.0, 28.7924
48.468965942, 96.390, 866.0, 29.4279
48.495226507, 96.390, 876.0, 29.5973
48.521487073, 96.390, 896.0, 29.9333
48.547747638, 96.390, 824.0, 28.7054
48.574008203, 96.390, 810.0, 28.4605
48.600268769, 96.390, 857.0, 29.2746
48.626529334, 96.390, 817.0, 28.5832
48.652789899, 96.390, 835.0, 28.8964
48.679050465, 96.390, 859.0, 29.3087
48.705311030, 96.390, 836.0, 28.9137
48.731571595, 96.390, 774.0, 27.8209
48.757832161, 96.390, 825.0, 28.7228
48.784092726, 96.390, 805.0, 28.3725
48.810353292, 96.390, 816.0, 28.5657
48.836613857, 96.390, 865.0, 29.4109
48.862874422, 96.390, 861.0, 29.3428
48.889134988, 96.390, 860.0, 29.3258
48.915395553, 96.390, 801.0, 28.3019
48.941656118, 96.390, 840.0, 28.9828
48.967916684, 96.390, 765.0, 27.6586
48.994177249, 96.390, 806.0, 28.3901
49.020437814, 96.390, 752.0, 27.4226
49.046698380, 96.390, 820.0, 28.6356
49.072958945, 96.390, 835.0, 28.8964
49.099219510, 96.390, 780.0, 27.9285
49.125480076, 96.390, 823.0, 28.6880
49.151740641, 96.390, 807.0, 28.4077
49.178001207, 96.390, 792.0, 28.1425
49.204261772, 96.390, 862.0, 29.3598
49.230522337, 96.390, 796.0, 28.2135
49.256782903, 96.390, 775.0, 27.8388
49.283043468, 96.390, 799.0, 28.2666
49.309304033, 96.390, 805.0, 28.3725
49.335564599, 96.390, 803.0, 28.3373
49.361825164, 96.390, 775.0, 27.8388
49.388085729, 96.390, 795.0, 28.1957
49.414346295, 96.390, 785.0, 28.0179
49.440606860, 96.390, 807.0, 28.4077
49.466867425, 96.390, 808.0, 28.4253
49.493127991, 96.390, 776.0, 27.8568
49.519388556, 96.390, 821.0, 28.6531
49.545649121, 96.390, 745.0, 27.2947
49.571909687, 96.390, 851.0, 29.1719
49.598170252, 96.390, 794.0, 28.1780
49.624430818, 96.390, 782.0, 27.9643
49.650691383, 96.390, 777.0, 27.8747
49.676951948, 96.390, 827.0, 28.7576
49.703212514, 96.390, 765.0, 27.6586
49.729473079, 96.390, 728.0, 26.9815
49.755733644, 96.390, 764.0, 27.6405
49.781994210, 96.390, 770.0, 27.7489
49.808254775, 96.390, 773.0, 27.8029
49.834515340, 96.390, 769.0, 27.7308
49.860775906, 96.390, 764.0, 27.6405
49.887036471, 96.390, 782.0, 27.9643
49.913297036, 96.390, 735.0, 27.1109
49.939557602, 96.390, 748.0, 27.3496
49.965818167, 96.390, 720.0, 26.8328
49.992078733, 96.390, 776.0, 27.8568
50.018339298, 96.390, 754.0, 27.4591
50.044599863, 96.390, 793.0, 28.1603
50.070860429, 96.390, 722.0, 26.8701
50.097120994, 96.390, 785.0, 28.0179
50.123381559, 96.390, 795.0, 28.1957
50.149642125, 96.390, 750.0, 27.3861
50.175902690, 96.390, 811.0, 28.4781
50.202163255, 96.390, 725.0, 26.9258
50.228423821, 96.390, 787.0, 28.0535
50.254684386, 96.390, 789.0, 28.0891
50.280944951, 96.390, 753.0, 27.4408
50.307205517, 96.390, 773.0, 27.8029
50.333466082, 96.390, 815.0, 28.5482
50.359726647, 96.390, 772.0, 27.7849
50.385987213, 96.390, 742.0, 27.2397
50.412247778, 96.390, 764.0, 27.6405
50.438508344, 96.390, 778.0, 27.8927
50.464768909, 96.390, 755.0, 27.4773
50.491029474, 96.390, 728.0, 26.9815
50.517290040, 96.390, 712.0, 26.6833
50.543550605, 96.390, 747.0, 27.3313
50.569811170, 96.390, 764.0, 27.6405
50.596071736, 96.390, 755.0, 27.4773
50.622332301, 96.390, 746.0, 27.3130
50.648592866, 96.390, 762.0, 27.6043
50.674853432, 96.390, 791.0, 28.1247
50.701113997, 96.390, 784.0, 28.0000
50.727374562, 96.390, 725.0, 26.9258
50.753635128, 96.390, 765.0, 27.6586
50.779895693, 96.390, 774.0, 27.8209
50.806156258, 96.390, 754.0, 27.4591
50.832416824, 96.390, 714.0, 26.7208
50.858677389, 96.390, 765.0, 27.6586
50.884937955, 96.390, 746.0, 27.3130
50.911198520, 96.390, 690.0, 26.2679
50.937459085, 96.390, 750.0, 27.3861
50.963719651, 96.390, 699.0, 26.4386
50.989980216, 96.390, 723.0, 26.8887
51.016240781, 96.390, 774.0, 27.8209
51.042501347, 96.390, 750.0, 27.3861
51.068761912, 96.390, 752.0, 27.4226
51.095022477, 96.390, 709.0, 26.6271
51.121283043, 96.390, 755.0, 27.4773
51.147543608, 96.390, 669.0, 25.8650
51.173804173, 96.390, 732.0, 27.0555
51.200064739, 96.390, 707.0, 26.5895
51.226325304, 96.390, 724.0, 26.9072
51.252585870, 96.390, 696.0, 26.3818
51.278846435, 96.390, 708.0, 26.6083
51.305107000, 96.390, 720.0, 26.8328
51.331367566, 96.390, 717.0, 26.7769
51.357628131, 96.390, 682.0, 26.1151
51.383888696, 96.390, 735.0, 27.1109
51.410149262, 96.390, 749.0, 27.3679
51.436409827, 96.390, 704.0, 26.5330
51.462670392, 96.390, 725.0, 26.9258
51.488930958, 96.390, 766.0, 27.6767
51.515191523, 96.390, 738.0, 27.1662
51.541452088, 96.390, 719.0, 26.8142
51.567712654, 96.390, 673.0, 25.9422
51.593973219, 96.390, 694.0, 26.3439
51.620233784, 96.390, 697.0, 26.4008
51.646494350, 96.390, 676.0, 26.0000
51.672754915, 96.390, 710.0, 26.6458
51.699015481, 96.390, 704.0, 26.5330
51.725276046, 96.390, 716.0, 26.7582
51.751536611, 96.390, 742.0, 27.2397
51.777797177, 96.390, 689.0, 26.2488
51.804057742, 96.390, 705.0, 26.5518
51.830318307, 96.390, 726.0, 26.9444
51.856578873, 96.390, 685.0, 26.1725
51.882839438, 96.390, 697.0, 26.4008
51.909100003, 96.390, 727.0, 26.9629
51.935360569, 96.390, 684.0, 26.1534
51.961621134, 96.390, 693.0, 26.3249
51.987881699, 96.390, 737.0, 27.1477
52.014142265, 96.390, 731.0, 27.0370
52.040402830, 96.390, 754.0, 27.4591
52.066663396, 96.390, 731.0, 27.0370
52.092923961, 96.390, 670.0, 25.8844
52.119184526, 96.390, 726.0, 26.9444
52.145445092, 96.390, 711.0, 26.6646
52.171705657, 96.390, 722.0, 26.8701
52.197966222, 96.390, 724.0, 26.9072
52.224226788, 96.390, 732.0, 27.0555
52.250487353, 96.390, 676.0, 26.0000
52.276747918, 96.390, 725.0, 26.9258
52.303008484, 96.390, 698.0, 26.4197
52.329269049, 96.390, 689.0, 26.2488
52.355529614, 96.390, 660.0, 25.6905
52.381790180, 96.390, 676.0, 26.0000
52.408050745, 96.390, 728.0, 26.9815
52.434311310, 96.390, 715.0, 26.7395
52.460571876, 96.390, 682.0, 26.1151
52.486832441, 96.390, 701.0, 26.4764
52.513093007, 96.390, 675.0, 25.9808
52.539353572, 96.390, 727.0, 26.9629
52.565614137, 96.390, 686.0, 26.1916
52.591874703, 96.390, 714.0, 26.7208
52.618135268, 96.390, 664.0, 25.7682
52.644395833, 96.390, 661.0, 25.7099
52.670656399, 96.390, 656.0, 25.6125
52.696916964, 96.390, 665.0, 25.7876
52.723177529, 96.390, 702.0, 26.4953
52.749438095, 96.390, 678.0, 26.0384
52.775698660, 96.390, 693.0, 26.3249
52.801959225, 96.390, 696.0, 26.3818
52.828219791, 96.390, 722.0, 26.8701
52.854480356, 96.390, 719.0, 26.8142
52.880740922, 96.390, 643.0, 25.3574
52.907001487, 96.390, 700.0, 26.4575
52.933262052, 96.390, 750.0, 27.3861
52.959522618, 96.390, 693.0, 26.3249
52.985783183, 96.390, 704.0, 26.5330
53.012043748, 96.390, 730.0, 27.0185
53.038304314, 96.390, 703.0, 26.5141
53.064564879, 96.390, 702.0, 26.4953
53.090825444, 96.390, 718.0, 26.7955
53.117086010, 96.390, 734.0, 27.0924
53.143346575, 96.390, 651.0, 25.5147
53.169607140, 96.390, 701.0, 26.4764
53.195867706, 96.390, 693.0, 26.3249
53.222128271, 96.390, 697.0, 26.4008
53.248388836, 96.390, 748.0, 27.3496
53.274649402, 96.390, 711.0, 26.6646
53.300909967, 96.390, 735.0, 27.1109
53.327170533, 96.390, 740.0, 27.2029
53.353431098, 96.390, 689.0, 26.2488
53.379691663, 96.390, 722.0, 26.8701
53.405952229, 96.390, 722.0, 26.8701
53.432212794, 96.390, 670.0, 25.8844
53.458473359, 96.390, 745.0, 27.2947
53.484733925, 96.390, 664.0, 25.7682
53.510994490, 96.390, 710.0, 26.6458
53.537255055, 96.390, 717.0, 26.7769
53.563515621, 96.390, 730.0, 27.0185
53.589776186, 96.390, 723.0, 26.8887
53.616036751, 96.390, 720.0, 26.8328
53.642297317, 96.390, 703.0, 26.5141
53.668557882, 96.390, 739.0, 27.1846
53.694818448, 96.390, 726.0, 26.9444
53.721079013, 96.390, 712.0, 26.6833
53.747339578, 96.390, 726.0, 26.9444
53.773600144, 96.390, 731.0, 27.0370
53.799860709, 96.390, 716.0, 26.7582
53.826121274, 96.390, 671.0, 25.9037
53.852381840, 96.390, 721.0, 26.8514
53.878642405, 96.390, 720.0, 26.8328
53.904902970, 96.390, 719.0, 26.8142
53.931163536, 96.390, 751.0, 27.4044
53.957424101, 96.390, 740.0, 27.2029
53.983684666, 96.390, 731.0, 27.0370
54.009945232, 96.390, 723.0, 26.8887
54.036205797, 96.390, 712.0, 26.6833
54.062466362, 96.390, 761.0, 27.5862
54.088726928, 96.390, 725.0, 26.9258
54.114987493, 96.390, 748.0, 27.3496
54.141248059, 96.390, 743.0, 27.2580
54.167508624, 96.390, 775.0, 27.8388
54.193769189, 96.390, 736.0, 27.1293
54.220029755, 96.390, 754.0, 27.4591
54.246290320, 96.390, 727.0, 26.9629
54.272550885, 96.390, 742.0, 27.2397
54.298811451, 96.390, 758.0, 27.5318
54.325072016, 96.390, 747.0, 27.3313
54.351332581, 96.390, 703.0, 26.5141
54.377593147, 96.390, 696.0, 26.3818
54.403853712, 96.390, 721.0, 26.8514
54.430114277, 96.390, 713.0, 26.7021
54.456374843, 96.390, 680.0, 26.0768
54.482635408, 96.390, 679.0, 26.0576
54.508895973, 96.390, 656.0, 25.6125
54.535156539, 96.390, 690.0, 26.2679
54.561417104, 96.390, 687.0, 26.2107
54.587677670, 96.390, 691.0, 26.2869
54.613938235, 96.390, 697.0, 26.4008
54.640198800, 96.390, 637.0, 25.2389
54.666459366, 96.390, 673.0, 25.9422
54.692719931, 96.390, 693.0, 26.3249
54.718980496, 96.390, 679.0, 26.0576
54.745241062, 96.390, 681.0, 26.0960
54.771501627, 96.390, 665.0, 25.7876
54.797762192, 96.390, 748.0, 27.3496
54.824022758, 96.390, 676.0, 26.0000
54.850283323, 96.390, 680.0, 26.0768
54.876543888, 96.390, 729.0, 27.0000
54.902804454, 96.390, 700.0, 26.4575
54.929065019, 96.390, 674.0, 25.9615
54.955325585, 96.390, 668.0, 25.8457
54.981586150, 96.390, 691.0, 26.2869
55.007846715, 96.390, 680.0, 26.0768
55.034107281, 96.390, 722.0, 26.8701
55.060367846, 96.390, 719.0, 26.8142
55.086628411, 96.390, 712.0, 26.6833
55.112888977, 96.390, 702.0, 26.4953
55.139149542, 96.390, 706.0, 26.5707
55.165410107, 96.390, 669.0, 25.8650
55.191670673, 96.390, 674.0, 25.9615
55.217931238, 96.390, 695.0, 26.3629
55.244191803, 96.390, 706.0, 26.5707
55.270452369, 96.390, 689.0, 26.2488
55.296712934, 96.390, 674.0, 25.9615
55.322973499, 96.390, 671.0, 25.9037
55.349234065, 96.390, 677.0, 26.0192
55.375494630, 96.390, 666.0, 25.8070
55.401755196, 96.390, 658.0, 25.6515
55.428015761, 96.390, 659.0, 25.6710
55.454276326, 96.390, 638.0, 25.2587
55.480536892, 96.390, 682.0, 26.1151
55.506797457, 96.390, 675.0, 25.9808
55.533058022, 96.390, 678.0, 26.0384
55.559318588, 96.390, 675.0, 25.9808
55.585579153, 96.390, 637.0, 25.2389
55.611839718, 96.390, 671.0, 25.9037
55.638100284, 96.390, 690.0, 26.2679
55.664360849, 96.390, 683.0, 26.1343
55.690621414, 96.390, 683.0, 26.1343
55.716881980, 96.390, 662.0, 25.7294
55.743142545, 96.390, 695.0, 26.3629
55.769403111, 96.390, 671.0, 25.9037
55.795663676, 96.390, 626.0, 25.0200
55.821924241, 96.390, 608.0, 24.6577
55.848184807, 96.390, 654.0, 25.5734
55.874445372, 96.390, 678.0, 26.0384
55.900705937, 96.390, 683.0, 26.1343
55.926966503, 96.390, 676.0, 26.0000
55.953227068, 96.390, 642.0, 25.3377
55.979487633, 96.390, 624.0, 24.9800
56.005748199, 96.390, 627.0, 25.0400
56.032008764, 96.390, 651.0, 25.5147
56.058269329, 96.390, 661.0, 25.7099
56.084529895, 96.390, 679.0, 26.0576
56.110790460, 96.390, 621.0, 24.9199
56.137051025, 96.390, 621.0, 24.9199
56.163311591, 96.390, 684.0, 26.1534
56.189572156, 96.390, 600.0, 24.4949
56.215832722, 96.390, 638.0, 25.2587
56.242093287, 96.390, 634.0, 25.1794
56.268353852, 96.390, 688.0, 26.2298
56.294614418, 96.390, 663.0, 25.7488
56.320874983, 96.390, 642.0, 25.3377
56.347135548, 96.390, 713.0, 26.7021
56.373396114, 96.390, 681.0, 26.0960
56.399656679, 96.390, 648.0, 25.4558
56.425917244, 96.390, 640.0, 25.2982
56.452177810, 96.390, 627.0, 25.0400
56.478438375, 96.390, 665.0, 25.7876
56.504698940, 96.390, 647.0, 25.4362
56.530959506, 96.390, 636.0, 25.2190
56.557220071, 96.390, 661.0, 25.7099
56.583480637, 96.390, 685.0, 26.1725
56.609741202, 96.390, 645.0, 25.3969
56.636001767, 96.390, 674.0, 25.9615
56.662262333, 96.390, 697.0, 26.4008
56.688522898, 96.390, 620.0, 24.8998
56.714783463, 96.390, 698.0, 26.4197
56.741044029, 96.390, 590.0, 24.2899
56.767304594, 96.390, 627.0, 25.0400
56.793565159, 96.390, 628.0, 25.0599
56.819825725, 96.390, 645.0, 25.3969
56.846086290, 96.390, 706.0, 26.5707
56.872346855, 96.390, 622.0, 24.9399
56.898607421, 96.390, 622.0, 24.9399
56.924867986, 96.390, 681.0, 26.0960
56.951128551, 96.390, 636.0, 25.2190
56.977389117, 96.390, 629.0, 25.0799
57.003649682, 96.390, 670.0, 25.8844
57.029910248, 96.390, 636.0, 25.2190
57.056170813, 96.390, 634.0, 25.1794
57.082431378, 96.390, 657.0, 25.6320
57.108691944, 96.390, 647.0, 25.4362
57.134952509, 96.390, 646.0, 25.4165
57.161213074, 96.390, 650.0, 25.4951
57.187473640, 96.390, 590.0, 24.2899
57.213734205, 96.390, 672.0, 25.9230
57.239994770, 96.390, 642.0, 25.3377
57.266255336, 96.390, 633.0, 25.1595
57.292515901, 96.390, 608.0, 24.6577
57.318776466, 96.390, 624.0, 24.9800
57.345037032, 96.390, 613.0, 24.7588
57.371297597, 96.390, 627.0, 25.0400
57.397558163, 96.390, 630.0, 25.0998
57.423818728, 96.390, 605.0, 24.5967
57.450079293, 96.390, 642.0, 25.3377
57.476339859, 96.390, 619.0, 24.8797
57.502600424, 96.390, 632.0, 25.1396
57.528860989, 96.390, 604.0, 24.5764
57.555121555, 96.390, 635.0, 25.1992
57.581382120, 96.390, 640.0, 25.2982
57.607642685, 96.390, 619.0, 24.8797
57.633903251, 96.390, 580.0, 24.0832
57.660163816, 96.390, 651.0, 25.5147
57.686424381, 96.390, 683.0, 26.1343
57.712684947, 96.390, 631.0, 25.1197
57.738945512, 96.390, 646.0, 25.4165
57.765206077, 96.390, 612.0, 24.7386
57.791466643, 96.390, 590.0, 24.2899
57.817727208, 96.390, 620.0, 24.8998
57.843987774, 96.390, 637.0, 25.2389
57.870248339, 96.390, 633.0, 25.1595
57.896508904, 96.390, 652.0, 25.5343
57.922769470, 96.390, 610.0, 24.6982
57.949030035, 96.390, 656.0, 25.6125
57.975290600, 96.390, 646.0, 25.4165
58.001551166, 96.390, 592.0, 24.3311
58.027811731, 96.390, 619.0, 24.8797
58.054072296, 96.390, 621.0, 24.9199
58.080332862, 96.390, 610.0, 24.6982
58.106593427, 96.390, 650.0, 25.4951
58.132853992, 96.390, 625.0, 25.0000
58.159114558, 96.390, 633.0, 25.1595
58.185375123, 96.390, 604.0, 24.5764
58.211635689, 96.390, 623.0, 24.9600
58.237896254, 96.390, 638.0, 25.2587
58.264156819, 96.390, 620.0, 24.8998
58.290417385, 96.390, 667.0, 25.8263
58.316677950, 96.390, 628.0, 25.0599
58.342938515, 96.390, 621.0, 24.9199
58.369199081, 96.390, 582.0, 24.1247
58.395459646, 96.390, 593.0, 24.3516
58.421720211, 96.390, 621.0, 24.9199
58.447980777, 96.390, 640.0, 25.2982
58.474241342, 96.390, 622.0, 24.9399
58.500501907, 96.390, 620.0, 24.8998
58.526762473, 96.390, 643.0, 25.3574
58.553023038, 96.390, 646.0, 25.4165
58.579283603, 96.390, 634.0, 25.1794
58.605544169, 96.390, 630.0, 25.0998
58.631804734, 96.390, 635.0, 25.1992
58.658065300, 96.390, 633.0, 25.1595
58.684325865, 96.390, 637.0, 25.2389
58.710586430, 96.390, 624.0, 24.9800
58.736846996, 96.390, 575.0, 23.9792
58.763107561, 96.390, 621.0, 24.9199
58.789368126, 96.390, 623.0, 24.9600
58.815628692, 96.390, 643.0, 25.3574
58.841889257, 96.390, 659.0, 25.6710
58.868149822, 96.390, 636.0, 25.2190
58.894410388, 96.390, 678.0, 26.0384
58.920670953, 96.390, 610.0, 24.6982
58.946931518, 96.390, 651.0, 25.5147
58.973192084, 96.390, 635.0, 25.1992
58.999452649, 96.390, 663.0, 25.7488
59.025713214, 96.390, 624.0, 24.9800
59.051973780, 96.390, 610.0, 24.6982
59.078234345, 96.390, 616.0, 24.8193
59.104494911, 96.390, 666.0, 25.8070
59.130755476, 96.390, 634.0, 25.1794
59.157016041, 96.390, 631.0, 25.1197
59.183276607, 96.390, 629.0, 25.0799
59.209537172, 96.390, 654.0, 25.5734
59.235797737, 96.390, 615.0, 24.7992
59.262058303, 96.390, 656.0, 25.6125
59.288318868, 96.390, 633.0, 25.1595
59.314579433, 96.390, 599.0, 24.4745
59.340839999, 96.390, 589.0, 24.2693
59.367100564, 96.390, 631.0, 25.1197
59.393361129, 96.390, 608.0, 24.6577
59.419621695, 96.390, 686.0, 26.1916
59.445882260, 96.390, 650.0, 25.4951
59.472142826, 96.390, 643.0, 25.3574
59.498403391, 96.390, 679.0, 26.0576
59.524663956, 96.390, 621.0, 24.9199
59.550924522, 96.390, 664.0, 25.7682
59.577185087, 96.390, 626.0, 25.0200
59.603445652, 96.390, 705.0, 26.5518
59.629706218, 96.390, 587.0, 24.2281
59.655966783, 96.390, 608.0, 24.6577
59.682227348, 96.390, 635.0, 25.1992
59.708487914, 96.390, 593.0, 24.3516
59.734748479, 96.390, 628.0, 25.0599
59.761009044, 96.390, 647.0, 25.4362
59.787269610, 96.390, 650.0, 25.4951
59.813530175, 96.390, 689.0, 26.2488
59.839790740, 96.390, 702.0, 26.4953
59.866051306, 96.390, 671.0, 25.9037
59.892311871, 96.390, 648.0, 25.4558
59.918572437, 96.390, 676.0, 26.0000
59.944833002, 96.390, 692.0, 26.3059
59.971093567, 96.390, 676.0, 26.0000
59.997354133, 96.390, 659.0, 25.6710
60.023614698, 96.390, 652.0, 25.5343
60.049875263, 96.390, 655.0, 25.5930
60.076135829, 96.390, 698.0, 26.4197
60.102396394, 96.390, 708.0, 26.6083
60.128656959, 96.390, 666.0, 25.8070
60.154917525, 96.390, 709.0, 26.6271
60.181178090, 96.390, 605.0, 24.5967
60.207438655, 96.390, 675.0, 25.9808
60.233699221, 96.390, 689.0, 26.2488
60.259959786, 96.390, 695.0, 26.3629
60.286220352, 96.390, 680.0, 26.0768
60.312480917, 96.390, 690.0, 26.2679
60.338741482, 96.390, 708.0, 26.6083
60.365002048, 96.390, 718.0, 26.7955
60.391262613, 96.390, 711.0, 26.6646
60.417523178, 96.390, 653.0, 25.5539
60.443783744, 96.390, 707.0, 26.5895
60.470044309, 96.390, 766.0, 27.6767
60.496304874, 96.390, 717.0, 26.7769
60.522565440, 96.390, 719.0, 26.8142
60.548826005, 96.390, 735.0, 27.1109
60.575086570, 96.390, 734.0, 27.0924
60.601347136, 96.390, 739.0, 27.1846
60.627607701, 96.390, 742.0, 27.2397
60.653868266, 96.390, 787.0, 28.0535
60.680128832, 96.390, 753.0, 27.4408
60.706389397, 96.390, 776.0, 27.8568
60.732649963, 96.390, 760.0, 27.5681
60.758910528, 96.390, 702.0, 26.4953
60.785171093, 96.390, 727.0, 26.9629
60.811431659, 96.390, 779.0, 27.9106
60.837692224, 96.390, 797.0, 28.2312
60.863952789, 96.390, 788.0, 28.0713
60.890213355, 96.390, 757.0, 27.5136
60.916473920, 96.390, 776.0, 27.8568
60.942734485, 96.390, 788.0, 28.0713
60.968995051, 96.390, 788.0, 28.0713
60.995255616, 96.390, 816.0, 28.5657
61.021516181, 96.390, 831.0, 28.8271
61.047776747, 96.390, 764.0, 27.6405
61.074037312, 96.390, 802.0, 28.3196
61.100297878, 96.390, 823.0, 28.6880
61.126558443, 96.390, 810.0, 28.4605
61.152819008, 96.390, 829.0, 28.7924
61.179079574, 96.390, 821.0, 28.6531
61.205340139, 96.390, 816.0, 28.5657
61.231600704, 96.390, 852.0, 29.1890
61.257861270, 96.390, 805.0, 28.3725
61.284121835, 96.390, 811.0, 28.4781
61.310382400, 96.390, 848.0, 29.1204
61.336642966, 96.390, 806.0, 28.3901
61.362903531, 96.390, 785.0, 28.0179
61.389164096, 96.390, 813.0, 28.5132
61.415424662, 96.390, 813.0, 28.5132
61.441685227, 96.390, 831.0, 28.8271
61.467945792, 96.390, 782.0, 27.9643
61.494206358, 96.390, 807.0, 28.4077
61.520466923, 96.390, 790.0, 28.1069
61.546727489, 96.390, 874.0, 29.5635
61.572988054, 96.390, 839.0, 28.9655
61.599248619, 96.390, 860.0, 29.3258
61.625509185, 96.390, 769.0, 27.7308
61.651769750, 96.390, 843.0, 29.0345
61.678030315, 96.390, 854.0, 29.2233
61.704290881, 96.390, 821.0, 28.6531
61.730551446, 96.390, 798.0, 28.2489
61.756812011, 96.390, 799.0, 28.2666
61.783072577, 96.390, 830.0, 28.8097
61.809333142, 96.390, 799.0, 28.2666
61.835593707, 96.390, 772.0, 27.7849
61.861854273, 96.390, 758.0, 27.5318
61.888114838, 96.390, 796.0, 28.2135
61.914375404, 96.390, 831.0, 28.8271
61.940635969, 96.390, 776.0, 27.8568
61.966896534, 96.390, 768.0, 27.7128
61.993157100, 96.390, 757.0, 27.5136
62.019417665, 96.390, 760.0, 27.5681
62.045678230, 96.390, 761.0, 27.5862
62.071938796, 96.390, 754.0, 27.4591
62.098199361, 96.390, 739.0, 27.1846
62.124459926, 96.390, 788.0, 28.0713
62.150720492, 96.390, 778.0, 27.8927
62.176981057, 96.390, 725.0, 26.9258
62.203241622, 96.390, 799.0, 28.2666
62.229502188, 96.390, 728.0, 26.9815
62.255762753, 96.390, 765.0, 27.6586
62.282023318, 96.390, 753.0, 27.4408
62.308283884, 96.390, 719.0, 26.8142
62.334544449, 96.390, 729.0, 27.0000
62.360805015, 96.390, 737.0, 27.1477
62.387065580, 96.390, 754.0, 27.4591
62.413326145, 96.390, 718.0, 26.7955
62.439586711, 96.390, 704.0, 26.5330
62.465847276, 96.390, 739.0, 27.1846
62.492107841, 96.390, 707.0, 26.5895
62.518368407, 96.390, 758.0, 27.5318
62.544628972, 96.390, 757.0, 27.5136
62.570889537, 96.390, 737.0, 27.1477
62.597150103, 96.390, 744.0, 27.2764
62.623410668, 96.390, 676.0, 26.0000
62.649671233, 96.390, 686.0, 26.1916
62.675931799, 96.390, 662.0, 25.7294
62.702192364, 96.390, 650.0, 25.4951
62.728452930, 96.390, 728.0, 26.9815
62.754713495, 96.390, 701.0, 26.4764
62.780974060, 96.390, 713.0, 26.7021
62.807234626, 96.390, 687.0, 26.2107
62.833495191, 96.390, 652.0, 25.5343
62.859755756, 96.390, 711.0, 26.6646
62.886016322, 96.390, 681.0, 26.0960
62.912276887, 96.390, 681.0, 26.0960
62.938537452, 96.390, 644.0, 25.3772
62.964798018, 96.390, 711.0, 26.6646
62.991058583, 96.390, 684.0, 26.1534
63.017319148, 96.390, 692.0, 26.3059
63.043579714, 96.390, 739.0, 27.1846
63.069840279, 96.390, 636.0, 25.2190
63.096100844, 96.390, 653.0, 25.5539
63.122361410, 96.390, 664.0, 25.7682
63.148621975, 96.390, 668.0, 25.8457
63.174882541, 96.390, 663.0, 25.7488
63.201143106, 96.390, 657.0, 25.6320
63.227403671, 96.390, 687.0, 26.2107
63.253664237, 96.390, 681.0, 26.0960
63.279924802, 96.390, 685.0, 26.1725
63.306185367, 96.390, 662.0, 25.7294
63.332445933, 96.390, 656.0, 25.6125
63.358706498, 96.390, 642.0, 25.3377
63.384967063, 96.390, 592.0, 24.3311
63.411227629, 96.390, 640.0, 25.2982
63.437488194, 96.390, 624.0, 24.9800
63.463748759, 96.390, 643.0, 25.3574
63.490009325, 96.390, 630.0, 25.0998
63.516269890, 96.390, 604.0, 24.5764
63.542530455, 96.390, 641.0, 25.3180
63.568791021, 96.390, 626.0, 25.0200
63.595051586, 96.390, 603.0, 24.5561
63.621312152, 96.390, 619.0, 24.8797
63.647572717, 96.390, 622.0, 24.9399
63.673833282, 96.390, 578.0, 24.0416
63.700093848, 96.390, 588.0, 24.2487
63.726354413, 96.390, 641.0, 25.3180
63.752614978, 96.390, 676.0, 26.0000
63.778875544, 96.390, 644.0, 25.3772
63.805136109, 96.390, 638.0, 25.2587
63.831396674, 96.390, 597.0, 24.4336
63.857657240, 96.390, 579.0, 24.0624
63.883917805, 96.390, 622.0, 24.9399
63.910178370, 96.390, 586.0, 24.2074
63.936438936, 96.390, 635.0, 25.1992
63.962699501, 96.390, 610.0, 24.6982
63.988960067, 96.390, 625.0, 25.0000
64.015220632, 96.390, 653.0, 25.5539
64.041481197, 96.390, 602.0, 24.5357
64.067741763, 96.390, 620.0, 24.8998
64.094002328, 96.390, 653.0, 25.5539
64.120262893, 96.390, 618.0, 24.8596
64.146523459, 96.390, 639.0, 25.2784
64.172784024, 96.390, 654.0, 25.5734
64.199044589, 96.390, 623.0, 24.9600
64.225305155, 96.390, 598.0, 24.4540
64.251565720, 96.390, 615.0, 24.7992
64.277826285, 96.390, 698.0, 26.4197
64.304086851, 96.390, 601.0, 24.5153
64.330347416, 96.390, 596.0, 24.4131
64.356607981, 96.390, 579.0, 24.0624
64.382868547, 96.390, 588.0, 24.2487
64.409129112, 96.390, 627.0, 25.0400
64.435389678, 96.390, 619.0, 24.8797
64.461650243, 96.390, 584.0, 24.1661
64.487910808, 96.390, 633.0, 25.1595
64.514171374, 96.390, 628.0, 25.0599
64.540431939, 96.390, 606.0, 24.6171
64.566692504, 96.390, 580.0, 24.0832
64.592953070, 96.390, 620.0, 24.8998
64.619213635, 96.390, 633.0, 25.1595
64.645474200, 96.390, 584.0, 24.1661
64.671734766, 96.390, 659.0, 25.6710
64.697995331, 96.390, 606.0, 24.6171
64.724255896, 96.390, 562.0, 23.7065
64.750516462, 96.390, 601.0, 24.5153
64.776777027, 96.390, 576.0, 24.0000
64.803037593, 96.390, 628.0, 25.0599
64.829298158, 96.390, 565.0, 23.7697
64.855558723, 96.390, 578.0, 24.0416
64.881819289, 96.390, 559.0, 23.6432
64.908079854, 96.390, 584.0, 24.1661
64.934340419, 96.390, 612.0, 24.7386
64.960600985, 96.390, 620.0, 24.8998
64.986861550, 96.390, 596.0, 24.4131
