[Measurement conditions]
Sample identification,132_SiCorner03Feb22_Act16Nov22_B1_0833M_NaOH_LS0153
Comment - 1,"Configuration=Stage for Flat Samples/Holders, Owner=User-1, Creation date=7/1/2020 9:53:24 AM"
Comment - 2,"Goniometer=Theta/Theta; Minimum step size 2Theta:0.0001; Minimum step size Omega:0.0001"
Comment - 3,"Sample stage=Stage for flat samples/holders"
Comment - 4,"Diffractometer system=EMPYREAN"
Comment - 5,"Measurement program=C:\Users\tmr79\OneDrive - The Pennsylvania State University\Documents\NEUP\XRD\Cement\Zerobackground scan.xrdmp, Identifier={98A3B11C-88F9-4AA6-982C-73314A311EF5}"
Anode material,Cu
K-Alpha1 wavelength,1.5405980
K-Alpha2 wavelength,1.5444260
Ratio K-Alpha2/K-Alpha1,0.500
Divergence slit,Fixed,0.25
Monochromator used,NO
Generator voltage, 45
Tube current, 40
File date and time,03/Apr/2023 09:24
Unit cell,
h k l, 0 0 0
Scan axis,Gonio
Scan range,4.994599997,64.999991833
Scan step size,0.0262606
No. of points, 2285
Scan type,CONTINUOUS
Time per step,96.390
[Scan points]
Angle, TimePerStep, Intensity, ESD
5.007730280, 96.390, 4514.0, 67.1863
5.033990845, 96.390, 4411.0, 66.4154
5.060251411, 96.390, 4426.0, 66.5282
5.086511976, 96.390, 4437.0, 66.6108
5.112772541, 96.390, 4398.0, 66.3174
5.139033107, 96.390, 4328.0, 65.7875
5.165293672, 96.390, 4217.0, 64.9384
5.191554237, 96.390, 4198.0, 64.7920
5.217814803, 96.390, 4276.0, 65.3911
5.244075368, 96.390, 4130.0, 64.2651
5.270335934, 96.390, 4202.0, 64.8228
5.296596499, 96.390, 4109.0, 64.1015
5.322857064, 96.390, 4163.0, 64.5213
5.349117630, 96.390, 4060.0, 63.7181
5.375378195, 96.390, 4000.0, 63.2456
5.401638760, 96.390, 4090.0, 63.9531
5.427899326, 96.390, 3922.0, 62.6259
5.454159891, 96.390, 3992.0, 63.1823
5.480420456, 96.390, 3931.0, 62.6977
5.506681022, 96.390, 3935.0, 62.7296
5.532941587, 96.390, 3887.0, 62.3458
5.559202152, 96.390, 3901.0, 62.4580
5.585462718, 96.390, 3971.0, 63.0159
5.611723283, 96.390, 3881.0, 62.2977
5.637983849, 96.390, 3875.0, 62.2495
5.664244414, 96.390, 3858.0, 62.1128
5.690504979, 96.390, 3788.0, 61.5467
5.716765545, 96.390, 3757.0, 61.2944
5.743026110, 96.390, 3833.0, 61.9112
5.769286675, 96.390, 3874.0, 62.2415
5.795547241, 96.390, 3840.0, 61.9677
5.821807806, 96.390, 3668.0, 60.5640
5.848068371, 96.390, 3774.0, 61.4329
5.874328937, 96.390, 3755.0, 61.2781
5.900589502, 96.390, 3730.0, 61.0737
5.926850067, 96.390, 3810.0, 61.7252
5.953110633, 96.390, 3777.0, 61.4573
5.979371198, 96.390, 3711.0, 60.9180
6.005631763, 96.390, 3729.0, 61.0655
6.031892329, 96.390, 3734.0, 61.1065
6.058152894, 96.390, 3629.0, 60.2412
6.084413460, 96.390, 3648.0, 60.3987
6.110674025, 96.390, 3543.0, 59.5231
6.136934590, 96.390, 3626.0, 60.2163
6.163195156, 96.390, 3761.0, 61.3270
6.189455721, 96.390, 3731.0, 61.0819
6.215716286, 96.390, 3566.0, 59.7160
6.241976852, 96.390, 3709.0, 60.9016
6.268237417, 96.390, 3552.0, 59.5987
6.294497982, 96.390, 3571.0, 59.7578
6.320758548, 96.390, 3585.0, 59.8749
6.347019113, 96.390, 3478.0, 58.9746
6.373279678, 96.390, 3454.0, 58.7707
6.399540244, 96.390, 3554.0, 59.6154
6.425800809, 96.390, 3458.0, 58.8048
6.452061375, 96.390, 3541.0, 59.5063
6.478321940, 96.390, 3482.0, 59.0085
6.504582505, 96.390, 3384.0, 58.1722
6.530843071, 96.390, 3379.0, 58.1292
6.557103636, 96.390, 3386.0, 58.1893
6.583364201, 96.390, 3487.0, 59.0508
6.609624767, 96.390, 3484.0, 59.0254
6.635885332, 96.390, 3588.0, 59.8999
6.662145897, 96.390, 3425.0, 58.5235
6.688406463, 96.390, 3492.0, 59.0931
6.714667028, 96.390, 3367.0, 58.0259
6.740927593, 96.390, 3386.0, 58.1893
6.767188159, 96.390, 3358.0, 57.9483
6.793448724, 96.390, 3388.0, 58.2065
6.819709289, 96.390, 3385.0, 58.1808
6.845969855, 96.390, 3375.0, 58.0948
6.872230420, 96.390, 3355.0, 57.9224
6.898490986, 96.390, 3466.0, 58.8727
6.924751551, 96.390, 3458.0, 58.8048
6.951012116, 96.390, 3327.0, 57.6802
6.977272682, 96.390, 3274.0, 57.2189
7.003533247, 96.390, 3453.0, 58.7622
7.029793812, 96.390, 3390.0, 58.2237
7.056054378, 96.390, 3340.0, 57.7927
7.082314943, 96.390, 3359.0, 57.9569
7.108575508, 96.390, 3453.0, 58.7622
7.134836074, 96.390, 3376.0, 58.1034
7.161096639, 96.390, 3304.0, 57.4804
7.187357204, 96.390, 3340.0, 57.7927
7.213617770, 96.390, 3292.0, 57.3760
7.239878335, 96.390, 3257.0, 57.0701
7.266138900, 96.390, 3293.0, 57.3847
7.292399466, 96.390, 3336.0, 57.7581
7.318660031, 96.390, 3361.0, 57.9741
7.344920597, 96.390, 3225.0, 56.7891
7.371181162, 96.390, 3241.0, 56.9298
7.397441727, 96.390, 3409.0, 58.3866
7.423702293, 96.390, 3307.0, 57.5065
7.449962858, 96.390, 3282.0, 57.2887
7.476223423, 96.390, 3254.0, 57.0438
7.502483989, 96.390, 3252.0, 57.0263
7.528744554, 96.390, 3415.0, 58.4380
7.555005119, 96.390, 3243.0, 56.9473
7.581265685, 96.390, 3309.0, 57.5239
7.607526250, 96.390, 3153.0, 56.1516
7.633786815, 96.390, 3142.0, 56.0535
7.660047381, 96.390, 3160.0, 56.2139
7.686307946, 96.390, 3227.0, 56.8067
7.712568512, 96.390, 3136.0, 56.0000
7.738829077, 96.390, 3196.0, 56.5332
7.765089642, 96.390, 3293.0, 57.3847
7.791350208, 96.390, 3199.0, 56.5597
7.817610773, 96.390, 3222.0, 56.7627
7.843871338, 96.390, 3137.0, 56.0089
7.870131904, 96.390, 3176.0, 56.3560
7.896392469, 96.390, 3085.0, 55.5428
7.922653034, 96.390, 3228.0, 56.8155
7.948913600, 96.390, 3122.0, 55.8749
7.975174165, 96.390, 3155.0, 56.1694
8.001434730, 96.390, 3135.0, 55.9911
8.027695296, 96.390, 3099.0, 55.6687
8.053955861, 96.390, 3123.0, 55.8838
8.080216426, 96.390, 3163.0, 56.2406
8.106476992, 96.390, 3102.0, 55.6956
8.132737557, 96.390, 3091.0, 55.5968
8.158998123, 96.390, 3155.0, 56.1694
8.185258688, 96.390, 3130.0, 55.9464
8.211519253, 96.390, 3056.0, 55.2811
8.237779819, 96.390, 3163.0, 56.2406
8.264040384, 96.390, 3050.0, 55.2268
8.290300949, 96.390, 3009.0, 54.8544
8.316561515, 96.390, 3034.0, 55.0818
8.342822080, 96.390, 3139.0, 56.0268
8.369082645, 96.390, 3102.0, 55.6956
8.395343211, 96.390, 3083.0, 55.5248
8.421603776, 96.390, 3108.0, 55.7494
8.447864341, 96.390, 3037.0, 55.1090
8.474124907, 96.390, 3014.0, 54.8999
8.500385472, 96.390, 3058.0, 55.2992
8.526646038, 96.390, 3093.0, 55.6147
8.552906603, 96.390, 3015.0, 54.9090
8.579167168, 96.390, 2909.0, 53.9351
8.605427734, 96.390, 2921.0, 54.0463
8.631688299, 96.390, 2938.0, 54.2033
8.657948864, 96.390, 3034.0, 55.0818
8.684209430, 96.390, 3059.0, 55.3082
8.710469995, 96.390, 2954.0, 54.3507
8.736730560, 96.390, 2955.0, 54.3599
8.762991126, 96.390, 3028.0, 55.0273
8.789251691, 96.390, 2975.0, 54.5436
8.815512256, 96.390, 2957.0, 54.3783
8.841772822, 96.390, 2991.0, 54.6900
8.868033387, 96.390, 3020.0, 54.9545
8.894293952, 96.390, 3076.0, 55.4617
8.920554518, 96.390, 2901.0, 53.8609
8.946815083, 96.390, 3021.0, 54.9636
8.973075649, 96.390, 2875.0, 53.6190
8.999336214, 96.390, 2916.0, 54.0000
9.025596779, 96.390, 2853.0, 53.4135
9.051857345, 96.390, 2927.0, 54.1018
9.078117910, 96.390, 2872.0, 53.5910
9.104378475, 96.390, 2914.0, 53.9815
9.130639041, 96.390, 2850.0, 53.3854
9.156899606, 96.390, 2940.0, 54.2218
9.183160171, 96.390, 2896.0, 53.8145
9.209420737, 96.390, 2869.0, 53.5630
9.235681302, 96.390, 3019.0, 54.9454
9.261941867, 96.390, 2844.0, 53.3292
9.288202433, 96.390, 2911.0, 53.9537
9.314462998, 96.390, 2813.0, 53.0377
9.340723564, 96.390, 2844.0, 53.3292
9.366984129, 96.390, 2819.0, 53.0943
9.393244694, 96.390, 2928.0, 54.1110
9.419505260, 96.390, 2923.0, 54.0648
9.445765825, 96.390, 2820.0, 53.1037
9.472026390, 96.390, 2855.0, 53.4322
9.498286956, 96.390, 2846.0, 53.3479
9.524547521, 96.390, 3017.0, 54.9272
9.550808086, 96.390, 2777.0, 52.6972
9.577068652, 96.390, 2775.0, 52.6783
9.603329217, 96.390, 2807.0, 52.9811
9.629589782, 96.390, 2856.0, 53.4416
9.655850348, 96.390, 2795.0, 52.8678
9.682110913, 96.390, 2823.0, 53.1319
9.708371478, 96.390, 2839.0, 53.2823
9.734632044, 96.390, 2802.0, 52.9339
9.760892609, 96.390, 2873.0, 53.6004
9.787153175, 96.390, 2790.0, 52.8205
9.813413740, 96.390, 2773.0, 52.6593
9.839674305, 96.390, 2750.0, 52.4404
9.865934871, 96.390, 2737.0, 52.3163
9.892195436, 96.390, 2834.0, 53.2353
9.918456001, 96.390, 2803.0, 52.9434
9.944716567, 96.390, 2774.0, 52.6688
9.970977132, 96.390, 2672.0, 51.6914
9.997237697, 96.390, 2788.0, 52.8015
10.023498263, 96.390, 2647.0, 51.4490
10.049758828, 96.390, 2719.0, 52.1440
10.076019393, 96.390, 2626.0, 51.2445
10.102279959, 96.390, 2750.0, 52.4404
10.128540524, 96.390, 2698.0, 51.9423
10.154801090, 96.390, 2630.0, 51.2835
10.181061655, 96.390, 2638.0, 51.3615
10.207322220, 96.390, 2610.0, 51.0882
10.233582786, 96.390, 2774.0, 52.6688
10.259843351, 96.390, 2682.0, 51.7880
10.286103916, 96.390, 2639.0, 51.3712
10.312364482, 96.390, 2667.0, 51.6430
10.338625047, 96.390, 2656.0, 51.5364
10.364885612, 96.390, 2604.0, 51.0294
10.391146178, 96.390, 2619.0, 51.1762
10.417406743, 96.390, 2656.0, 51.5364
10.443667308, 96.390, 2553.0, 50.5272
10.469927874, 96.390, 2608.0, 51.0686
10.496188439, 96.390, 2583.0, 50.8232
10.522449004, 96.390, 2605.0, 51.0392
10.548709570, 96.390, 2567.0, 50.6656
10.574970135, 96.390, 2591.0, 50.9019
10.601230701, 96.390, 2580.0, 50.7937
10.627491266, 96.390, 2551.0, 50.5074
10.653751831, 96.390, 2565.0, 50.6458
10.680012397, 96.390, 2482.0, 49.8197
10.706272962, 96.390, 2480.0, 49.7996
10.732533527, 96.390, 2576.0, 50.7543
10.758794093, 96.390, 2491.0, 49.9099
10.785054658, 96.390, 2577.0, 50.7642
10.811315223, 96.390, 2562.0, 50.6162
10.837575789, 96.390, 2544.0, 50.4381
10.863836354, 96.390, 2462.0, 49.6185
10.890096919, 96.390, 2487.0, 49.8698
10.916357485, 96.390, 2529.0, 50.2892
10.942618050, 96.390, 2548.0, 50.4777
10.968878616, 96.390, 2533.0, 50.3289
10.995139181, 96.390, 2490.0, 49.8999
11.021399746, 96.390, 2510.0, 50.0999
11.047660312, 96.390, 2560.0, 50.5964
11.073920877, 96.390, 2540.0, 50.3984
11.100181442, 96.390, 2543.0, 50.4282
11.126442008, 96.390, 2396.0, 48.9490
11.152702573, 96.390, 2446.0, 49.4571
11.178963138, 96.390, 2434.0, 49.3356
11.205223704, 96.390, 2593.0, 50.9215
11.231484269, 96.390, 2510.0, 50.0999
11.257744834, 96.390, 2589.0, 50.8822
11.284005400, 96.390, 2401.0, 49.0000
11.310265965, 96.390, 2497.0, 49.9700
11.336526530, 96.390, 2469.0, 49.6890
11.362787096, 96.390, 2443.0, 49.4267
11.389047661, 96.390, 2511.0, 50.1099
11.415308227, 96.390, 2427.0, 49.2646
11.441568792, 96.390, 2356.0, 48.5386
11.467829357, 96.390, 2455.0, 49.5480
11.494089923, 96.390, 2441.0, 49.4065
11.520350488, 96.390, 2396.0, 48.9490
11.546611053, 96.390, 2381.0, 48.7955
11.572871619, 96.390, 2440.0, 49.3964
11.599132184, 96.390, 2414.0, 49.1325
11.625392749, 96.390, 2335.0, 48.3218
11.651653315, 96.390, 2473.0, 49.7293
11.677913880, 96.390, 2294.0, 47.8957
11.704174445, 96.390, 2365.0, 48.6313
11.730435011, 96.390, 2333.0, 48.3011
11.756695576, 96.390, 2302.0, 47.9792
11.782956141, 96.390, 2332.0, 48.2908
11.809216707, 96.390, 2305.0, 48.0104
11.835477272, 96.390, 2269.0, 47.6340
11.861737838, 96.390, 2312.0, 48.0833
11.887998403, 96.390, 2307.0, 48.0312
11.914258968, 96.390, 2332.0, 48.2908
11.940519534, 96.390, 2346.0, 48.4355
11.966780099, 96.390, 2453.0, 49.5278
11.993040664, 96.390, 2284.0, 47.7912
12.019301230, 96.390, 2372.0, 48.7032
12.045561795, 96.390, 2189.0, 46.7868
12.071822360, 96.390, 2344.0, 48.4149
12.098082926, 96.390, 2269.0, 47.6340
12.124343491, 96.390, 2288.0, 47.8330
12.150604056, 96.390, 2272.0, 47.6655
12.176864622, 96.390, 2304.0, 48.0000
12.203125187, 96.390, 2306.0, 48.0208
12.229385753, 96.390, 2259.0, 47.5289
12.255646318, 96.390, 2341.0, 48.3839
12.281906883, 96.390, 2277.0, 47.7179
12.308167449, 96.390, 2302.0, 47.9792
12.334428014, 96.390, 2240.0, 47.3286
12.360688579, 96.390, 2270.0, 47.6445
12.386949145, 96.390, 2224.0, 47.1593
12.413209710, 96.390, 2307.0, 48.0312
12.439470275, 96.390, 2174.0, 46.6262
12.465730841, 96.390, 2265.0, 47.5920
12.491991406, 96.390, 2187.0, 46.7654
12.518251971, 96.390, 2267.0, 47.6130
12.544512537, 96.390, 2068.0, 45.4753
12.570773102, 96.390, 2226.0, 47.1805
12.597033667, 96.390, 2153.0, 46.4004
12.623294233, 96.390, 2198.0, 46.8828
12.649554798, 96.390, 2235.0, 47.2758
12.675815364, 96.390, 2148.0, 46.3465
12.702075929, 96.390, 2229.0, 47.2123
12.728336494, 96.390, 2126.0, 46.1086
12.754597060, 96.390, 2210.0, 47.0106
12.780857625, 96.390, 2213.0, 47.0425
12.807118190, 96.390, 2235.0, 47.2758
12.833378756, 96.390, 2179.0, 46.6798
12.859639321, 96.390, 2252.0, 47.4552
12.885899886, 96.390, 2150.0, 46.3681
12.912160452, 96.390, 2118.0, 46.0217
12.938421017, 96.390, 2295.0, 47.9062
12.964681582, 96.390, 2103.0, 45.8585
12.990942148, 96.390, 2201.0, 46.9148
13.017202713, 96.390, 2238.0, 47.3075
13.043463279, 96.390, 2151.0, 46.3789
13.069723844, 96.390, 2177.0, 46.6583
13.095984409, 96.390, 2125.0, 46.0977
13.122244975, 96.390, 2171.0, 46.5940
13.148505540, 96.390, 2265.0, 47.5920
13.174766105, 96.390, 2129.0, 46.1411
13.201026671, 96.390, 2137.0, 46.2277
13.227287236, 96.390, 2169.0, 46.5725
13.253547801, 96.390, 2180.0, 46.6905
13.279808367, 96.390, 2134.0, 46.1952
13.306068932, 96.390, 2160.0, 46.4758
13.332329497, 96.390, 2191.0, 46.8081
13.358590063, 96.390, 2090.0, 45.7165
13.384850628, 96.390, 2067.0, 45.4643
13.411111193, 96.390, 2106.0, 45.8912
13.437371759, 96.390, 2187.0, 46.7654
13.463632324, 96.390, 2110.0, 45.9347
13.489892890, 96.390, 2116.0, 46.0000
13.516153455, 96.390, 2082.0, 45.6289
13.542414020, 96.390, 2190.0, 46.7974
13.568674586, 96.390, 2082.0, 45.6289
13.594935151, 96.390, 2130.0, 46.1519
13.621195716, 96.390, 2139.0, 46.2493
13.647456282, 96.390, 2067.0, 45.4643
13.673716847, 96.390, 2063.0, 45.4203
13.699977412, 96.390, 1984.0, 44.5421
13.726237978, 96.390, 2160.0, 46.4758
13.752498543, 96.390, 2126.0, 46.1086
13.778759108, 96.390, 2088.0, 45.6946
13.805019674, 96.390, 2141.0, 46.2709
13.831280239, 96.390, 2084.0, 45.6508
13.857540805, 96.390, 2065.0, 45.4423
13.883801370, 96.390, 2035.0, 45.1110
13.910061935, 96.390, 2026.0, 45.0111
13.936322501, 96.390, 2053.0, 45.3100
13.962583066, 96.390, 2034.0, 45.0999
13.988843631, 96.390, 2097.0, 45.7930
14.015104197, 96.390, 2101.0, 45.8367
14.041364762, 96.390, 2107.0, 45.9021
14.067625327, 96.390, 2086.0, 45.6727
14.093885893, 96.390, 2100.0, 45.8258
14.120146458, 96.390, 2070.0, 45.4973
14.146407023, 96.390, 2076.0, 45.5631
14.172667589, 96.390, 1997.0, 44.6878
14.198928154, 96.390, 2109.0, 45.9239
14.225188719, 96.390, 1986.0, 44.5646
14.251449285, 96.390, 2067.0, 45.4643
14.277709850, 96.390, 2061.0, 45.3982
14.303970416, 96.390, 2051.0, 45.2880
14.330230981, 96.390, 2004.0, 44.7661
14.356491546, 96.390, 2099.0, 45.8148
14.382752112, 96.390, 2056.0, 45.3431
14.409012677, 96.390, 2079.0, 45.5961
14.435273242, 96.390, 1993.0, 44.6430
14.461533808, 96.390, 2087.0, 45.6837
14.487794373, 96.390, 1995.0, 44.6654
14.514054938, 96.390, 2060.0, 45.3872
14.540315504, 96.390, 2038.0, 45.1442
14.566576069, 96.390, 2059.0, 45.3762
14.592836634, 96.390, 2039.0, 45.1553
14.619097200, 96.390, 1976.0, 44.4522
14.645357765, 96.390, 2014.0, 44.8776
14.671618331, 96.390, 2139.0, 46.2493
14.697878896, 96.390, 2006.0, 44.7884
14.724139461, 96.390, 2046.0, 45.2327
14.750400027, 96.390, 2077.0, 45.5741
14.776660592, 96.390, 2021.0, 44.9555
14.802921157, 96.390, 2000.0, 44.7214
14.829181723, 96.390, 1984.0, 44.5421
14.855442288, 96.390, 2012.0, 44.8553
14.881702853, 96.390, 1976.0, 44.4522
14.907963419, 96.390, 1965.0, 44.3283
14.934223984, 96.390, 1945.0, 44.1022
14.960484549, 96.390, 1998.0, 44.6990
14.986745115, 96.390, 2024.0, 44.9889
15.013005680, 96.390, 2049.0, 45.2659
15.039266245, 96.390, 2063.0, 45.4203
15.065526811, 96.390, 2013.0, 44.8665
15.091787376, 96.390, 1952.0, 44.1814
15.118047942, 96.390, 1995.0, 44.6654
15.144308507, 96.390, 1998.0, 44.6990
15.170569072, 96.390, 1979.0, 44.4860
15.196829638, 96.390, 2004.0, 44.7661
15.223090203, 96.390, 2046.0, 45.2327
15.249350768, 96.390, 1997.0, 44.6878
15.275611334, 96.390, 2034.0, 45.0999
15.301871899, 96.390, 2003.0, 44.7549
15.328132464, 96.390, 2081.0, 45.6180
15.354393030, 96.390, 2033.0, 45.0888
15.380653595, 96.390, 2055.0, 45.3321
15.406914160, 96.390, 1977.0, 44.4635
15.433174726, 96.390, 2133.0, 46.1844
15.459435291, 96.390, 2005.0, 44.7772
15.485695857, 96.390, 2031.0, 45.0666
15.511956422, 96.390, 2002.0, 44.7437
15.538216987, 96.390, 1956.0, 44.2267
15.564477553, 96.390, 2007.0, 44.7996
15.590738118, 96.390, 2017.0, 44.9110
15.616998683, 96.390, 2049.0, 45.2659
15.643259249, 96.390, 2009.0, 44.8219
15.669519814, 96.390, 2006.0, 44.7884
15.695780379, 96.390, 2050.0, 45.2769
15.722040945, 96.390, 2029.0, 45.0444
15.748301510, 96.390, 1957.0, 44.2380
15.774562075, 96.390, 2011.0, 44.8442
15.800822641, 96.390, 1989.0, 44.5982
15.827083206, 96.390, 2012.0, 44.8553
15.853343771, 96.390, 2107.0, 45.9021
15.879604337, 96.390, 2043.0, 45.1996
15.905864902, 96.390, 1984.0, 44.5421
15.932125468, 96.390, 1970.0, 44.3847
15.958386033, 96.390, 2022.0, 44.9667
15.984646598, 96.390, 1980.0, 44.4972
16.010907164, 96.390, 2099.0, 45.8148
16.037167729, 96.390, 2012.0, 44.8553
16.063428294, 96.390, 2045.0, 45.2217
16.089688860, 96.390, 1997.0, 44.6878
16.115949425, 96.390, 2042.0, 45.1885
16.142209990, 96.390, 2064.0, 45.4313
16.168470556, 96.390, 1996.0, 44.6766
16.194731121, 96.390, 2042.0, 45.1885
16.220991686, 96.390, 2106.0, 45.8912
16.247252252, 96.390, 2122.0, 46.0652
16.273512817, 96.390, 2065.0, 45.4423
16.299773382, 96.390, 1980.0, 44.4972
16.326033948, 96.390, 2062.0, 45.4093
16.352294513, 96.390, 2058.0, 45.3652
16.378555079, 96.390, 2195.0, 46.8508
16.404815644, 96.390, 2141.0, 46.2709
16.431076209, 96.390, 2112.0, 45.9565
16.457336775, 96.390, 2053.0, 45.3100
16.483597340, 96.390, 1971.0, 44.3959
16.509857905, 96.390, 2084.0, 45.6508
16.536118471, 96.390, 2004.0, 44.7661
16.562379036, 96.390, 2100.0, 45.8258
16.588639601, 96.390, 2050.0, 45.2769
16.614900167, 96.390, 2168.0, 46.5618
16.641160732, 96.390, 2076.0, 45.5631
16.667421297, 96.390, 2111.0, 45.9456
16.693681863, 96.390, 2126.0, 46.1086
16.719942428, 96.390, 2108.0, 45.9130
16.746202994, 96.390, 2086.0, 45.6727
16.772463559, 96.390, 2125.0, 46.0977
16.798724124, 96.390, 2113.0, 45.9674
16.824984690, 96.390, 2080.0, 45.6070
16.851245255, 96.390, 2037.0, 45.1331
16.877505820, 96.390, 2169.0, 46.5725
16.903766386, 96.390, 2134.0, 46.1952
16.930026951, 96.390, 2208.0, 46.9894
16.956287516, 96.390, 2197.0, 46.8722
16.982548082, 96.390, 2121.0, 46.0543
17.008808647, 96.390, 2213.0, 47.0425
17.035069212, 96.390, 2102.0, 45.8476
17.061329778, 96.390, 2230.0, 47.2229
17.087590343, 96.390, 2227.0, 47.1911
17.113850908, 96.390, 2190.0, 46.7974
17.140111474, 96.390, 2149.0, 46.3573
17.166372039, 96.390, 2118.0, 46.0217
17.192632605, 96.390, 2102.0, 45.8476
17.218893170, 96.390, 2203.0, 46.9361
17.245153735, 96.390, 2246.0, 47.3920
17.271414301, 96.390, 2111.0, 45.9456
17.297674866, 96.390, 2077.0, 45.5741
17.323935431, 96.390, 2229.0, 47.2123
17.350195997, 96.390, 2257.0, 47.5079
17.376456562, 96.390, 2225.0, 47.1699
17.402717127, 96.390, 2192.0, 46.8188
17.428977693, 96.390, 2289.0, 47.8435
17.455238258, 96.390, 2233.0, 47.2546
17.481498823, 96.390, 2196.0, 46.8615
17.507759389, 96.390, 2351.0, 48.4871
17.534019954, 96.390, 2239.0, 47.3181
17.560280520, 96.390, 2149.0, 46.3573
17.586541085, 96.390, 2283.0, 47.7807
17.612801650, 96.390, 2230.0, 47.2229
17.639062216, 96.390, 2252.0, 47.4552
17.665322781, 96.390, 2209.0, 47.0000
17.691583346, 96.390, 2298.0, 47.9375
17.717843912, 96.390, 2252.0, 47.4552
17.744104477, 96.390, 2338.0, 48.3529
17.770365042, 96.390, 2202.0, 46.9255
17.796625608, 96.390, 2301.0, 47.9687
17.822886173, 96.390, 2339.0, 48.3632
17.849146738, 96.390, 2249.0, 47.4236
17.875407304, 96.390, 2332.0, 48.2908
17.901667869, 96.390, 2225.0, 47.1699
17.927928434, 96.390, 2301.0, 47.9687
17.954189000, 96.390, 2294.0, 47.8957
17.980449565, 96.390, 2276.0, 47.7074
18.006710131, 96.390, 2257.0, 47.5079
18.032970696, 96.390, 2334.0, 48.3115
18.059231261, 96.390, 2319.0, 48.1560
18.085491827, 96.390, 2283.0, 47.7807
18.111752392, 96.390, 2438.0, 49.3761
18.138012957, 96.390, 2328.0, 48.2494
18.164273523, 96.390, 2269.0, 47.6340
18.190534088, 96.390, 2413.0, 49.1223
18.216794653, 96.390, 2423.0, 49.2240
18.243055219, 96.390, 2374.0, 48.7237
18.269315784, 96.390, 2364.0, 48.6210
18.295576349, 96.390, 2338.0, 48.3529
18.321836915, 96.390, 2371.0, 48.6929
18.348097480, 96.390, 2425.0, 49.2443
18.374358046, 96.390, 2449.0, 49.4874
18.400618611, 96.390, 2398.0, 48.9694
18.426879176, 96.390, 2410.0, 49.0918
18.453139742, 96.390, 2437.0, 49.3660
18.479400307, 96.390, 2447.0, 49.4672
18.505660872, 96.390, 2417.0, 49.1630
18.531921438, 96.390, 2398.0, 48.9694
18.558182003, 96.390, 2420.0, 49.1935
18.584442568, 96.390, 2504.0, 50.0400
18.610703134, 96.390, 2546.0, 50.4579
18.636963699, 96.390, 2504.0, 50.0400
18.663224264, 96.390, 2500.0, 50.0000
18.689484830, 96.390, 2490.0, 49.8999
18.715745395, 96.390, 2485.0, 49.8498
18.742005960, 96.390, 2438.0, 49.3761
18.768266526, 96.390, 2457.0, 49.5681
18.794527091, 96.390, 2587.0, 50.8626
18.820787657, 96.390, 2555.0, 50.5470
18.847048222, 96.390, 2536.0, 50.3587
18.873308787, 96.390, 2524.0, 50.2394
18.899569353, 96.390, 2452.0, 49.5177
18.925829918, 96.390, 2568.0, 50.6754
18.952090483, 96.390, 2544.0, 50.4381
18.978351049, 96.390, 2597.0, 50.9608
19.004611614, 96.390, 2465.0, 49.6488
19.030872179, 96.390, 2494.0, 49.9400
19.057132745, 96.390, 2568.0, 50.6754
19.083393310, 96.390, 2625.0, 51.2348
19.109653875, 96.390, 2600.0, 50.9902
19.135914441, 96.390, 2643.0, 51.4101
19.162175006, 96.390, 2644.0, 51.4198
19.188435572, 96.390, 2587.0, 50.8626
19.214696137, 96.390, 2623.0, 51.2152
19.240956702, 96.390, 2635.0, 51.3323
19.267217268, 96.390, 2627.0, 51.2543
19.293477833, 96.390, 2754.0, 52.4786
19.319738398, 96.390, 2600.0, 50.9902
19.345998964, 96.390, 2782.0, 52.7447
19.372259529, 96.390, 2748.0, 52.4214
19.398520094, 96.390, 2706.0, 52.0192
19.424780660, 96.390, 2626.0, 51.2445
19.451041225, 96.390, 2723.0, 52.1824
19.477301790, 96.390, 2656.0, 51.5364
19.503562356, 96.390, 2733.0, 52.2781
19.529822921, 96.390, 2760.0, 52.5357
19.556083486, 96.390, 2780.0, 52.7257
19.582344052, 96.390, 2681.0, 51.7784
19.608604617, 96.390, 2830.0, 53.1977
19.634865183, 96.390, 2671.0, 51.6817
19.661125748, 96.390, 2727.0, 52.2207
19.687386313, 96.390, 2706.0, 52.0192
19.713646879, 96.390, 2848.0, 53.3667
19.739907444, 96.390, 2778.0, 52.7067
19.766168009, 96.390, 2870.0, 53.5724
19.792428575, 96.390, 2873.0, 53.6004
19.818689140, 96.390, 2827.0, 53.1695
19.844949705, 96.390, 2911.0, 53.9537
19.871210271, 96.390, 2890.0, 53.7587
19.897470836, 96.390, 2859.0, 53.4696
19.923731401, 96.390, 2860.0, 53.4790
19.949991967, 96.390, 2904.0, 53.8888
19.976252532, 96.390, 2955.0, 54.3599
20.002513098, 96.390, 2876.0, 53.6284
20.028773663, 96.390, 2873.0, 53.6004
20.055034228, 96.390, 2843.0, 53.3198
20.081294794, 96.390, 2825.0, 53.1507
20.107555359, 96.390, 2898.0, 53.8331
20.133815924, 96.390, 2895.0, 53.8052
20.160076490, 96.390, 3013.0, 54.8908
20.186337055, 96.390, 3056.0, 55.2811
20.212597620, 96.390, 2898.0, 53.8331
20.238858186, 96.390, 3005.0, 54.8179
20.265118751, 96.390, 2915.0, 53.9907
20.291379316, 96.390, 2991.0, 54.6900
20.317639882, 96.390, 3063.0, 55.3444
20.343900447, 96.390, 2933.0, 54.1572
20.370161012, 96.390, 3051.0, 55.2359
20.396421578, 96.390, 2988.0, 54.6626
20.422682143, 96.390, 3011.0, 54.8726
20.448942709, 96.390, 2990.0, 54.6809
20.475203274, 96.390, 3037.0, 55.1090
20.501463839, 96.390, 2940.0, 54.2218
20.527724405, 96.390, 2946.0, 54.2771
20.553984970, 96.390, 2916.0, 54.0000
20.580245535, 96.390, 3032.0, 55.0636
20.606506101, 96.390, 3094.0, 55.6237
20.632766666, 96.390, 3125.0, 55.9017
20.659027231, 96.390, 2974.0, 54.5344
20.685287797, 96.390, 3087.0, 55.5608
20.711548362, 96.390, 3111.0, 55.7763
20.737808927, 96.390, 3063.0, 55.3444
20.764069493, 96.390, 2959.0, 54.3967
20.790330058, 96.390, 3110.0, 55.7674
20.816590623, 96.390, 3065.0, 55.3624
20.842851189, 96.390, 3077.0, 55.4707
20.869111754, 96.390, 3075.0, 55.4527
20.895372320, 96.390, 3017.0, 54.9272
20.921632885, 96.390, 3034.0, 55.0818
20.947893450, 96.390, 3095.0, 55.6327
20.974154016, 96.390, 3092.0, 55.6058
21.000414581, 96.390, 3190.0, 56.4801
21.026675146, 96.390, 3097.0, 55.6507
21.052935712, 96.390, 3097.0, 55.6507
21.079196277, 96.390, 3147.0, 56.0981
21.105456842, 96.390, 3165.0, 56.2583
21.131717408, 96.390, 3129.0, 55.9375
21.157977973, 96.390, 3141.0, 56.0446
21.184238538, 96.390, 3194.0, 56.5155
21.210499104, 96.390, 3041.0, 55.1453
21.236759669, 96.390, 3163.0, 56.2406
21.263020235, 96.390, 3118.0, 55.8391
21.289280800, 96.390, 3222.0, 56.7627
21.315541365, 96.390, 3200.0, 56.5685
21.341801931, 96.390, 3169.0, 56.2939
21.368062496, 96.390, 3151.0, 56.1338
21.394323061, 96.390, 3132.0, 55.9643
21.420583627, 96.390, 3140.0, 56.0357
21.446844192, 96.390, 3042.0, 55.1543
21.473104757, 96.390, 3232.0, 56.8507
21.499365323, 96.390, 3245.0, 56.9649
21.525625888, 96.390, 3203.0, 56.5951
21.551886453, 96.390, 3209.0, 56.6480
21.578147019, 96.390, 3250.0, 57.0088
21.604407584, 96.390, 3182.0, 56.4092
21.630668149, 96.390, 3118.0, 55.8391
21.656928715, 96.390, 3293.0, 57.3847
21.683189280, 96.390, 3243.0, 56.9473
21.709449846, 96.390, 3182.0, 56.4092
21.735710411, 96.390, 3245.0, 56.9649
21.761970976, 96.390, 3171.0, 56.3116
21.788231542, 96.390, 3200.0, 56.5685
21.814492107, 96.390, 3185.0, 56.4358
21.840752672, 96.390, 3254.0, 57.0438
21.867013238, 96.390, 3211.0, 56.6657
21.893273803, 96.390, 3182.0, 56.4092
21.919534368, 96.390, 3237.0, 56.8946
21.945794934, 96.390, 3244.0, 56.9561
21.972055499, 96.390, 3238.0, 56.9034
21.998316064, 96.390, 3286.0, 57.3236
22.024576630, 96.390, 3093.0, 55.6147
22.050837195, 96.390, 3186.0, 56.4447
22.077097761, 96.390, 3098.0, 55.6597
22.103358326, 96.390, 3200.0, 56.5685
22.129618891, 96.390, 3183.0, 56.4181
22.155879457, 96.390, 3202.0, 56.5862
22.182140022, 96.390, 3239.0, 56.9122
22.208400587, 96.390, 3263.0, 57.1227
22.234661153, 96.390, 3069.0, 55.3986
22.260921718, 96.390, 3214.0, 56.6922
22.287182283, 96.390, 3201.0, 56.5774
22.313442849, 96.390, 3202.0, 56.5862
22.339703414, 96.390, 3193.0, 56.5066
22.365963979, 96.390, 3148.0, 56.1070
22.392224545, 96.390, 3277.0, 57.2451
22.418485110, 96.390, 3125.0, 55.9017
22.444745675, 96.390, 3134.0, 55.9821
22.471006241, 96.390, 3216.0, 56.7098
22.497266806, 96.390, 3131.0, 55.9553
22.523527372, 96.390, 3186.0, 56.4447
22.549787937, 96.390, 3164.0, 56.2494
22.576048502, 96.390, 3132.0, 55.9643
22.602309068, 96.390, 3215.0, 56.7010
22.628569633, 96.390, 3197.0, 56.5420
22.654830198, 96.390, 3178.0, 56.3738
22.681090764, 96.390, 3095.0, 55.6327
22.707351329, 96.390, 3196.0, 56.5332
22.733611894, 96.390, 3090.0, 55.5878
22.759872460, 96.390, 3242.0, 56.9386
22.786133025, 96.390, 3036.0, 55.0999
22.812393590, 96.390, 3098.0, 55.6597
22.838654156, 96.390, 3145.0, 56.0803
22.864914721, 96.390, 3070.0, 55.4076
22.891175287, 96.390, 3173.0, 56.3294
22.917435852, 96.390, 3172.0, 56.3205
22.943696417, 96.390, 3159.0, 56.2050
22.969956983, 96.390, 3107.0, 55.7405
22.996217548, 96.390, 3093.0, 55.6147
23.022478113, 96.390, 3111.0, 55.7763
23.048738679, 96.390, 2972.0, 54.5161
23.074999244, 96.390, 3066.0, 55.3715
23.101259809, 96.390, 3036.0, 55.0999
23.127520375, 96.390, 3130.0, 55.9464
23.153780940, 96.390, 3044.0, 55.1725
23.180041505, 96.390, 3200.0, 56.5685
23.206302071, 96.390, 3038.0, 55.1181
23.232562636, 96.390, 2998.0, 54.7540
23.258823201, 96.390, 3040.0, 55.1362
23.285083767, 96.390, 3014.0, 54.8999
23.311344332, 96.390, 3086.0, 55.5518
23.337604898, 96.390, 2976.0, 54.5527
23.363865463, 96.390, 3037.0, 55.1090
23.390126028, 96.390, 2887.0, 53.7308
23.416386594, 96.390, 3062.0, 55.3353
23.442647159, 96.390, 2955.0, 54.3599
23.468907724, 96.390, 2855.0, 53.4322
23.495168290, 96.390, 2923.0, 54.0648
23.521428855, 96.390, 2965.0, 54.4518
23.547689420, 96.390, 2914.0, 53.9815
23.573949986, 96.390, 2968.0, 54.4794
23.600210551, 96.390, 2935.0, 54.1756
23.626471116, 96.390, 2952.0, 54.3323
23.652731682, 96.390, 2909.0, 53.9351
23.678992247, 96.390, 2933.0, 54.1572
23.705252813, 96.390, 2972.0, 54.5161
23.731513378, 96.390, 2962.0, 54.4243
23.757773943, 96.390, 2887.0, 53.7308
23.784034509, 96.390, 2932.0, 54.1479
23.810295074, 96.390, 2949.0, 54.3047
23.836555639, 96.390, 2913.0, 53.9722
23.862816205, 96.390, 2883.0, 53.6936
23.889076770, 96.390, 2855.0, 53.4322
23.915337335, 96.390, 2917.0, 54.0093
23.941597901, 96.390, 2850.0, 53.3854
23.967858466, 96.390, 2948.0, 54.2955
23.994119031, 96.390, 2841.0, 53.3010
24.020379597, 96.390, 2858.0, 53.4603
24.046640162, 96.390, 2929.0, 54.1202
24.072900727, 96.390, 2905.0, 53.8981
24.099161293, 96.390, 2879.0, 53.6563
24.125421858, 96.390, 2907.0, 53.9166
24.151682424, 96.390, 2795.0, 52.8678
24.177942989, 96.390, 2835.0, 53.2447
24.204203554, 96.390, 2802.0, 52.9339
24.230464120, 96.390, 2742.0, 52.3641
24.256724685, 96.390, 2720.0, 52.1536
24.282985250, 96.390, 2746.0, 52.4023
24.309245816, 96.390, 2685.0, 51.8170
24.335506381, 96.390, 2723.0, 52.1824
24.361766946, 96.390, 2734.0, 52.2877
24.388027512, 96.390, 2696.0, 51.9230
24.414288077, 96.390, 2730.0, 52.2494
24.440548642, 96.390, 2794.0, 52.8583
24.466809208, 96.390, 2696.0, 51.9230
24.493069773, 96.390, 2833.0, 53.2259
24.519330338, 96.390, 2645.0, 51.4296
24.545590904, 96.390, 2676.0, 51.7301
24.571851469, 96.390, 2680.0, 51.7687
24.598112035, 96.390, 2678.0, 51.7494
24.624372600, 96.390, 2688.0, 51.8459
24.650633165, 96.390, 2616.0, 51.1468
24.676893731, 96.390, 2696.0, 51.9230
24.703154296, 96.390, 2632.0, 51.3030
24.729414861, 96.390, 2718.0, 52.1344
24.755675427, 96.390, 2668.0, 51.6527
24.781935992, 96.390, 2564.0, 50.6360
24.808196557, 96.390, 2640.0, 51.3809
24.834457123, 96.390, 2636.0, 51.3420
24.860717688, 96.390, 2657.0, 51.5461
24.886978253, 96.390, 2638.0, 51.3615
24.913238819, 96.390, 2633.0, 51.3128
24.939499384, 96.390, 2565.0, 50.6458
24.965759950, 96.390, 2689.0, 51.8556
24.992020515, 96.390, 2667.0, 51.6430
25.018281080, 96.390, 2546.0, 50.4579
25.044541646, 96.390, 2469.0, 49.6890
25.070802211, 96.390, 2515.0, 50.1498
25.097062776, 96.390, 2555.0, 50.5470
25.123323342, 96.390, 2483.0, 49.8297
25.149583907, 96.390, 2566.0, 50.6557
25.175844472, 96.390, 2596.0, 50.9510
25.202105038, 96.390, 2559.0, 50.5866
25.228365603, 96.390, 2528.0, 50.2792
25.254626168, 96.390, 2551.0, 50.5074
25.280886734, 96.390, 2472.0, 49.7192
25.307147299, 96.390, 2558.0, 50.5767
25.333407864, 96.390, 2612.0, 51.1077
25.359668430, 96.390, 2536.0, 50.3587
25.385928995, 96.390, 2464.0, 49.6387
25.412189561, 96.390, 2484.0, 49.8397
25.438450126, 96.390, 2485.0, 49.8498
25.464710691, 96.390, 2493.0, 49.9300
25.490971257, 96.390, 2493.0, 49.9300
25.517231822, 96.390, 2536.0, 50.3587
25.543492387, 96.390, 2448.0, 49.4773
25.569752953, 96.390, 2514.0, 50.1398
25.596013518, 96.390, 2324.0, 48.2079
25.622274083, 96.390, 2542.0, 50.4183
25.648534649, 96.390, 2455.0, 49.5480
25.674795214, 96.390, 2376.0, 48.7442
25.701055779, 96.390, 2391.0, 48.8979
25.727316345, 96.390, 2427.0, 49.2646
25.753576910, 96.390, 2479.0, 49.7896
25.779837476, 96.390, 2393.0, 48.9183
25.806098041, 96.390, 2333.0, 48.3011
25.832358606, 96.390, 2377.0, 48.7545
25.858619172, 96.390, 2347.0, 48.4458
25.884879737, 96.390, 2403.0, 49.0204
25.911140302, 96.390, 2394.0, 48.9285
25.937400868, 96.390, 2395.0, 48.9387
25.963661433, 96.390, 2319.0, 48.1560
25.989921998, 96.390, 2323.0, 48.1975
26.016182564, 96.390, 2368.0, 48.6621
26.042443129, 96.390, 2401.0, 49.0000
26.068703694, 96.390, 2325.0, 48.2183
26.094964260, 96.390, 2408.0, 49.0714
26.121224825, 96.390, 2335.0, 48.3218
26.147485390, 96.390, 2352.0, 48.4974
26.173745956, 96.390, 2342.0, 48.3942
26.200006521, 96.390, 2314.0, 48.1041
26.226267087, 96.390, 2299.0, 47.9479
26.252527652, 96.390, 2281.0, 47.7598
26.278788217, 96.390, 2279.0, 47.7389
26.305048783, 96.390, 2289.0, 47.8435
26.331309348, 96.390, 2222.0, 47.1381
26.357569913, 96.390, 2264.0, 47.5815
26.383830479, 96.390, 2215.0, 47.0638
26.410091044, 96.390, 2216.0, 47.0744
26.436351609, 96.390, 2173.0, 46.6154
26.462612175, 96.390, 2302.0, 47.9792
26.488872740, 96.390, 2220.0, 47.1169
26.515133305, 96.390, 2242.0, 47.3498
26.541393871, 96.390, 2250.0, 47.4342
26.567654436, 96.390, 2215.0, 47.0638
26.593915002, 96.390, 2249.0, 47.4236
26.620175567, 96.390, 2298.0, 47.9375
26.646436132, 96.390, 2253.0, 47.4658
26.672696698, 96.390, 2218.0, 47.0956
26.698957263, 96.390, 2238.0, 47.3075
26.725217828, 96.390, 2248.0, 47.4131
26.751478394, 96.390, 2152.0, 46.3897
26.777738959, 96.390, 2198.0, 46.8828
26.803999524, 96.390, 2170.0, 46.5833
26.830260090, 96.390, 2223.0, 47.1487
26.856520655, 96.390, 2153.0, 46.4004
26.882781220, 96.390, 2170.0, 46.5833
26.909041786, 96.390, 2182.0, 46.7119
26.935302351, 96.390, 2189.0, 46.7868
26.961562916, 96.390, 2205.0, 46.9574
26.987823482, 96.390, 2162.0, 46.4973
27.014084047, 96.390, 2234.0, 47.2652
27.040344613, 96.390, 2145.0, 46.3141
27.066605178, 96.390, 2193.0, 46.8295
27.092865743, 96.390, 2145.0, 46.3141
27.119126309, 96.390, 2167.0, 46.5510
27.145386874, 96.390, 2102.0, 45.8476
27.171647439, 96.390, 2189.0, 46.7868
27.197908005, 96.390, 2192.0, 46.8188
27.224168570, 96.390, 2187.0, 46.7654
27.250429135, 96.390, 2142.0, 46.2817
27.276689701, 96.390, 2183.0, 46.7226
27.302950266, 96.390, 2075.0, 45.5522
27.329210831, 96.390, 2067.0, 45.4643
27.355471397, 96.390, 2088.0, 45.6946
27.381731962, 96.390, 2059.0, 45.3762
27.407992528, 96.390, 2072.0, 45.5192
27.434253093, 96.390, 2112.0, 45.9565
27.460513658, 96.390, 2034.0, 45.0999
27.486774224, 96.390, 2068.0, 45.4753
27.513034789, 96.390, 2127.0, 46.1194
27.539295354, 96.390, 2079.0, 45.5961
27.565555920, 96.390, 2136.0, 46.2169
27.591816485, 96.390, 2029.0, 45.0444
27.618077050, 96.390, 2013.0, 44.8665
27.644337616, 96.390, 2082.0, 45.6289
27.670598181, 96.390, 2017.0, 44.9110
27.696858746, 96.390, 2149.0, 46.3573
27.723119312, 96.390, 2082.0, 45.6289
27.749379877, 96.390, 1951.0, 44.1701
27.775640442, 96.390, 2104.0, 45.8694
27.801901008, 96.390, 2005.0, 44.7772
27.828161573, 96.390, 2084.0, 45.6508
27.854422139, 96.390, 2016.0, 44.8999
27.880682704, 96.390, 2051.0, 45.2880
27.906943269, 96.390, 1963.0, 44.3058
27.933203835, 96.390, 1998.0, 44.6990
27.959464400, 96.390, 1974.0, 44.4297
27.985724965, 96.390, 1949.0, 44.1475
28.011985531, 96.390, 2049.0, 45.2659
28.038246096, 96.390, 2071.0, 45.5082
28.064506661, 96.390, 1989.0, 44.5982
28.090767227, 96.390, 2079.0, 45.5961
28.117027792, 96.390, 2052.0, 45.2990
28.143288357, 96.390, 1922.0, 43.8406
28.169548923, 96.390, 1937.0, 44.0114
28.195809488, 96.390, 1947.0, 44.1248
28.222070054, 96.390, 2006.0, 44.7884
28.248330619, 96.390, 1994.0, 44.6542
28.274591184, 96.390, 1979.0, 44.4860
28.300851750, 96.390, 1980.0, 44.4972
28.327112315, 96.390, 1987.0, 44.5758
28.353372880, 96.390, 1933.0, 43.9659
28.379633446, 96.390, 1973.0, 44.4185
28.405894011, 96.390, 1945.0, 44.1022
28.432154576, 96.390, 1912.0, 43.7264
28.458415142, 96.390, 1930.0, 43.9318
28.484675707, 96.390, 1864.0, 43.1741
28.510936272, 96.390, 1927.0, 43.8976
28.537196838, 96.390, 1985.0, 44.5533
28.563457403, 96.390, 1955.0, 44.2154
28.589717968, 96.390, 1991.0, 44.6206
28.615978534, 96.390, 1867.0, 43.2088
28.642239099, 96.390, 1950.0, 44.1588
28.668499665, 96.390, 1927.0, 43.8976
28.694760230, 96.390, 1836.0, 42.8486
28.721020795, 96.390, 1865.0, 43.1856
28.747281361, 96.390, 1858.0, 43.1045
28.773541926, 96.390, 1931.0, 43.9431
28.799802491, 96.390, 1926.0, 43.8862
28.826063057, 96.390, 1847.0, 42.9767
28.852323622, 96.390, 1862.0, 43.1509
28.878584187, 96.390, 1933.0, 43.9659
28.904844753, 96.390, 1881.0, 43.3705
28.931105318, 96.390, 1906.0, 43.6578
28.957365883, 96.390, 1890.0, 43.4741
28.983626449, 96.390, 1840.0, 42.8952
29.009887014, 96.390, 1934.0, 43.9773
29.036147579, 96.390, 1898.0, 43.5660
29.062408145, 96.390, 1857.0, 43.0929
29.088668710, 96.390, 1853.0, 43.0465
29.114929276, 96.390, 1859.0, 43.1161
29.141189841, 96.390, 1849.0, 43.0000
29.167450406, 96.390, 1800.0, 42.4264
29.193710972, 96.390, 1880.0, 43.3590
29.219971537, 96.390, 1877.0, 43.3244
29.246232102, 96.390, 1835.0, 42.8369
29.272492668, 96.390, 1886.0, 43.4281
29.298753233, 96.390, 1809.0, 42.5323
29.325013798, 96.390, 1811.0, 42.5558
29.351274364, 96.390, 1807.0, 42.5088
29.377534929, 96.390, 1862.0, 43.1509
29.403795494, 96.390, 1874.0, 43.2897
29.430056060, 96.390, 1910.0, 43.7035
29.456316625, 96.390, 1881.0, 43.3705
29.482577191, 96.390, 1905.0, 43.6463
29.508837756, 96.390, 1857.0, 43.0929
29.535098321, 96.390, 1749.0, 41.8210
29.561358887, 96.390, 1818.0, 42.6380
29.587619452, 96.390, 1829.0, 42.7668
29.613880017, 96.390, 1774.0, 42.1189
29.640140583, 96.390, 1784.0, 42.2374
29.666401148, 96.390, 1839.0, 42.8836
29.692661713, 96.390, 1825.0, 42.7200
29.718922279, 96.390, 1709.0, 41.3401
29.745182844, 96.390, 1836.0, 42.8486
29.771443409, 96.390, 1763.0, 41.9881
29.797703975, 96.390, 1792.0, 42.3320
29.823964540, 96.390, 1769.0, 42.0595
29.850225105, 96.390, 1818.0, 42.6380
29.876485671, 96.390, 1756.0, 41.9047
29.902746236, 96.390, 1852.0, 43.0349
29.929006802, 96.390, 1864.0, 43.1741
29.955267367, 96.390, 1798.0, 42.4028
29.981527932, 96.390, 1740.0, 41.7133
30.007788498, 96.390, 1818.0, 42.6380
30.034049063, 96.390, 1794.0, 42.3556
30.060309628, 96.390, 1784.0, 42.2374
30.086570194, 96.390, 1719.0, 41.4608
30.112830759, 96.390, 1790.0, 42.3084
30.139091324, 96.390, 1749.0, 41.8210
30.165351890, 96.390, 1757.0, 41.9166
30.191612455, 96.390, 1677.0, 40.9512
30.217873020, 96.390, 1782.0, 42.2137
30.244133586, 96.390, 1674.0, 40.9145
30.270394151, 96.390, 1822.0, 42.6849
30.296654717, 96.390, 1798.0, 42.4028
30.322915282, 96.390, 1744.0, 41.7612
30.349175847, 96.390, 1732.0, 41.6173
30.375436413, 96.390, 1678.0, 40.9634
30.401696978, 96.390, 1704.0, 41.2795
30.427957543, 96.390, 1638.0, 40.4722
30.454218109, 96.390, 1702.0, 41.2553
30.480478674, 96.390, 1683.0, 41.0244
30.506739239, 96.390, 1735.0, 41.6533
30.532999805, 96.390, 1781.0, 42.2019
30.559260370, 96.390, 1712.0, 41.3763
30.585520935, 96.390, 1735.0, 41.6533
30.611781501, 96.390, 1726.0, 41.5452
30.638042066, 96.390, 1687.0, 41.0731
30.664302631, 96.390, 1751.0, 41.8450
30.690563197, 96.390, 1841.0, 42.9069
30.716823762, 96.390, 1724.0, 41.5211
30.743084328, 96.390, 1662.0, 40.7676
30.769344893, 96.390, 1687.0, 41.0731
30.795605458, 96.390, 1665.0, 40.8044
30.821866024, 96.390, 1707.0, 41.3159
30.848126589, 96.390, 1637.0, 40.4599
30.874387154, 96.390, 1668.0, 40.8412
30.900647720, 96.390, 1724.0, 41.5211
30.926908285, 96.390, 1670.0, 40.8656
30.953168850, 96.390, 1734.0, 41.6413
30.979429416, 96.390, 1691.0, 41.1218
31.005689981, 96.390, 1612.0, 40.1497
31.031950546, 96.390, 1607.0, 40.0874
31.058211112, 96.390, 1748.0, 41.8091
31.084471677, 96.390, 1722.0, 41.4970
31.110732243, 96.390, 1698.0, 41.2068
31.136992808, 96.390, 1723.0, 41.5090
31.163253373, 96.390, 1729.0, 41.5812
31.189513939, 96.390, 1790.0, 42.3084
31.215774504, 96.390, 1655.0, 40.6817
31.242035069, 96.390, 1646.0, 40.5709
31.268295635, 96.390, 1705.0, 41.2916
31.294556200, 96.390, 1710.0, 41.3521
31.320816765, 96.390, 1667.0, 40.8289
31.347077331, 96.390, 1647.0, 40.5832
31.373337896, 96.390, 1649.0, 40.6079
31.399598461, 96.390, 1600.0, 40.0000
31.425859027, 96.390, 1704.0, 41.2795
31.452119592, 96.390, 1669.0, 40.8534
31.478380157, 96.390, 1613.0, 40.1622
31.504640723, 96.390, 1651.0, 40.6325
31.530901288, 96.390, 1691.0, 41.1218
31.557161854, 96.390, 1649.0, 40.6079
31.583422419, 96.390, 1644.0, 40.5463
31.609682984, 96.390, 1687.0, 41.0731
31.635943550, 96.390, 1564.0, 39.5474
31.662204115, 96.390, 1641.0, 40.5093
31.688464680, 96.390, 1633.0, 40.4104
31.714725246, 96.390, 1621.0, 40.2616
31.740985811, 96.390, 1584.0, 39.7995
31.767246376, 96.390, 1615.0, 40.1871
31.793506942, 96.390, 1599.0, 39.9875
31.819767507, 96.390, 1568.0, 39.5980
31.846028072, 96.390, 1608.0, 40.0999
31.872288638, 96.390, 1602.0, 40.0250
31.898549203, 96.390, 1557.0, 39.4588
31.924809769, 96.390, 1580.0, 39.7492
31.951070334, 96.390, 1560.0, 39.4968
31.977330899, 96.390, 1513.0, 38.8973
32.003591465, 96.390, 1516.0, 38.9358
32.029852030, 96.390, 1627.0, 40.3361
32.056112595, 96.390, 1568.0, 39.5980
32.082373161, 96.390, 1656.0, 40.6940
32.108633726, 96.390, 1532.0, 39.1408
32.134894291, 96.390, 1611.0, 40.1373
32.161154857, 96.390, 1538.0, 39.2173
32.187415422, 96.390, 1547.0, 39.3319
32.213675987, 96.390, 1569.0, 39.6106
32.239936553, 96.390, 1583.0, 39.7869
32.266197118, 96.390, 1521.0, 39.0000
32.292457683, 96.390, 1527.0, 39.0768
32.318718249, 96.390, 1446.0, 38.0263
32.344978814, 96.390, 1570.0, 39.6232
32.371239380, 96.390, 1582.0, 39.7744
32.397499945, 96.390, 1480.0, 38.4708
32.423760510, 96.390, 1516.0, 38.9358
32.450021076, 96.390, 1510.0, 38.8587
32.476281641, 96.390, 1515.0, 38.9230
32.502542206, 96.390, 1548.0, 39.3446
32.528802772, 96.390, 1606.0, 40.0749
32.555063337, 96.390, 1493.0, 38.6394
32.581323902, 96.390, 1519.0, 38.9744
32.607584468, 96.390, 1526.0, 39.0640
32.633845033, 96.390, 1516.0, 38.9358
32.660105598, 96.390, 1464.0, 38.2623
32.686366164, 96.390, 1521.0, 39.0000
32.712626729, 96.390, 1544.0, 39.2938
32.738887295, 96.390, 1426.0, 37.7624
32.765147860, 96.390, 1447.0, 38.0395
32.791408425, 96.390, 1479.0, 38.4578
32.817668991, 96.390, 1485.0, 38.5357
32.843929556, 96.390, 1492.0, 38.6264
32.870190121, 96.390, 1503.0, 38.7685
32.896450687, 96.390, 1486.0, 38.5487
32.922711252, 96.390, 1418.0, 37.6563
32.948971817, 96.390, 1466.0, 38.2884
32.975232383, 96.390, 1446.0, 38.0263
33.001492948, 96.390, 1480.0, 38.4708
33.027753513, 96.390, 1530.0, 39.1152
33.054014079, 96.390, 1470.0, 38.3406
33.080274644, 96.390, 1539.0, 39.2301
33.106535209, 96.390, 1445.0, 38.0132
33.132795775, 96.390, 1506.0, 38.8072
33.159056340, 96.390, 1520.0, 38.9872
33.185316906, 96.390, 1480.0, 38.4708
33.211577471, 96.390, 1446.0, 38.0263
33.237838036, 96.390, 1483.0, 38.5097
33.264098602, 96.390, 1430.0, 37.8153
33.290359167, 96.390, 1402.0, 37.4433
33.316619732, 96.390, 1429.0, 37.8021
33.342880298, 96.390, 1459.0, 38.1969
33.369140863, 96.390, 1458.0, 38.1838
33.395401428, 96.390, 1351.0, 36.7560
33.421661994, 96.390, 1462.0, 38.2361
33.447922559, 96.390, 1448.0, 38.0526
33.474183124, 96.390, 1478.0, 38.4448
33.500443690, 96.390, 1446.0, 38.0263
33.526704255, 96.390, 1435.0, 37.8814
33.552964820, 96.390, 1440.0, 37.9473
33.579225386, 96.390, 1442.0, 37.9737
33.605485951, 96.390, 1457.0, 38.1707
33.631746517, 96.390, 1433.0, 37.8550
33.658007082, 96.390, 1409.0, 37.5366
33.684267647, 96.390, 1390.0, 37.2827
33.710528213, 96.390, 1407.0, 37.5100
33.736788778, 96.390, 1451.0, 38.0920
33.763049343, 96.390, 1416.0, 37.6298
33.789309909, 96.390, 1410.0, 37.5500
33.815570474, 96.390, 1408.0, 37.5233
33.841831039, 96.390, 1420.0, 37.6829
33.868091605, 96.390, 1403.0, 37.4566
33.894352170, 96.390, 1377.0, 37.1080
33.920612735, 96.390, 1397.0, 37.3765
33.946873301, 96.390, 1479.0, 38.4578
33.973133866, 96.390, 1410.0, 37.5500
33.999394432, 96.390, 1314.0, 36.2491
34.025654997, 96.390, 1402.0, 37.4433
34.051915562, 96.390, 1357.0, 36.8375
34.078176128, 96.390, 1387.0, 37.2424
34.104436693, 96.390, 1405.0, 37.4833
34.130697258, 96.390, 1379.0, 37.1349
34.156957824, 96.390, 1509.0, 38.8458
34.183218389, 96.390, 1347.0, 36.7015
34.209478954, 96.390, 1463.0, 38.2492
34.235739520, 96.390, 1472.0, 38.3667
34.262000085, 96.390, 1427.0, 37.7757
34.288260650, 96.390, 1453.0, 38.1182
34.314521216, 96.390, 1454.0, 38.1314
34.340781781, 96.390, 1476.0, 38.4187
34.367042346, 96.390, 1386.0, 37.2290
34.393302912, 96.390, 1417.0, 37.6431
34.419563477, 96.390, 1475.0, 38.4057
34.445824043, 96.390, 1416.0, 37.6298
34.472084608, 96.390, 1518.0, 38.9615
34.498345173, 96.390, 1399.0, 37.4032
34.524605739, 96.390, 1413.0, 37.5899
34.550866304, 96.390, 1387.0, 37.2424
34.577126869, 96.390, 1426.0, 37.7624
34.603387435, 96.390, 1399.0, 37.4032
34.629648000, 96.390, 1521.0, 39.0000
34.655908565, 96.390, 1527.0, 39.0768
34.682169131, 96.390, 1453.0, 38.1182
34.708429696, 96.390, 1419.0, 37.6696
34.734690261, 96.390, 1388.0, 37.2559
34.760950827, 96.390, 1430.0, 37.8153
34.787211392, 96.390, 1338.0, 36.5787
34.813471958, 96.390, 1449.0, 38.0657
34.839732523, 96.390, 1412.0, 37.5766
34.865993088, 96.390, 1450.0, 38.0789
34.892253654, 96.390, 1469.0, 38.3275
34.918514219, 96.390, 1451.0, 38.0920
34.944774784, 96.390, 1457.0, 38.1707
34.971035350, 96.390, 1432.0, 37.8418
34.997295915, 96.390, 1457.0, 38.1707
35.023556480, 96.390, 1480.0, 38.4708
35.049817046, 96.390, 1461.0, 38.2230
35.076077611, 96.390, 1402.0, 37.4433
35.102338176, 96.390, 1423.0, 37.7227
35.128598742, 96.390, 1488.0, 38.5746
35.154859307, 96.390, 1449.0, 38.0657
35.181119872, 96.390, 1353.0, 36.7831
35.207380438, 96.390, 1385.0, 37.2156
35.233641003, 96.390, 1450.0, 38.0789
35.259901569, 96.390, 1382.0, 37.1753
35.286162134, 96.390, 1447.0, 38.0395
35.312422699, 96.390, 1358.0, 36.8511
35.338683265, 96.390, 1396.0, 37.3631
35.364943830, 96.390, 1464.0, 38.2623
35.391204395, 96.390, 1408.0, 37.5233
35.417464961, 96.390, 1423.0, 37.7227
35.443725526, 96.390, 1365.0, 36.9459
35.469986091, 96.390, 1416.0, 37.6298
35.496246657, 96.390, 1383.0, 37.1887
35.522507222, 96.390, 1357.0, 36.8375
35.548767787, 96.390, 1414.0, 37.6032
35.575028353, 96.390, 1358.0, 36.8511
35.601288918, 96.390, 1345.0, 36.6742
35.627549484, 96.390, 1430.0, 37.8153
35.653810049, 96.390, 1368.0, 36.9865
35.680070614, 96.390, 1332.0, 36.4966
35.706331180, 96.390, 1361.0, 36.8917
35.732591745, 96.390, 1361.0, 36.8917
35.758852310, 96.390, 1335.0, 36.5377
35.785112876, 96.390, 1426.0, 37.7624
35.811373441, 96.390, 1346.0, 36.6879
35.837634006, 96.390, 1346.0, 36.6879
35.863894572, 96.390, 1440.0, 37.9473
35.890155137, 96.390, 1329.0, 36.4555
35.916415702, 96.390, 1378.0, 37.1214
35.942676268, 96.390, 1389.0, 37.2693
35.968936833, 96.390, 1400.0, 37.4166
35.995197398, 96.390, 1379.0, 37.1349
36.021457964, 96.390, 1325.0, 36.4005
36.047718529, 96.390, 1387.0, 37.2424
36.073979095, 96.390, 1322.0, 36.3593
36.100239660, 96.390, 1411.0, 37.5633
36.126500225, 96.390, 1328.0, 36.4417
36.152760791, 96.390, 1316.0, 36.2767
36.179021356, 96.390, 1286.0, 35.8608
36.205281921, 96.390, 1348.0, 36.7151
36.231542487, 96.390, 1394.0, 37.3363
36.257803052, 96.390, 1342.0, 36.6333
36.284063617, 96.390, 1269.0, 35.6230
36.310324183, 96.390, 1292.0, 35.9444
36.336584748, 96.390, 1368.0, 36.9865
36.362845313, 96.390, 1249.0, 35.3412
36.389105879, 96.390, 1339.0, 36.5923
36.415366444, 96.390, 1300.0, 36.0555
36.441627010, 96.390, 1276.0, 35.7211
36.467887575, 96.390, 1296.0, 36.0000
36.494148140, 96.390, 1291.0, 35.9305
36.520408706, 96.390, 1323.0, 36.3731
36.546669271, 96.390, 1226.0, 35.0143
36.572929836, 96.390, 1225.0, 35.0000
36.599190402, 96.390, 1292.0, 35.9444
36.625450967, 96.390, 1319.0, 36.3180
36.651711532, 96.390, 1320.0, 36.3318
36.677972098, 96.390, 1315.0, 36.2629
36.704232663, 96.390, 1195.0, 34.5688
36.730493228, 96.390, 1302.0, 36.0832
36.756753794, 96.390, 1229.0, 35.0571
36.783014359, 96.390, 1208.0, 34.7563
36.809274924, 96.390, 1248.0, 35.3270
36.835535490, 96.390, 1211.0, 34.7994
36.861796055, 96.390, 1266.0, 35.5809
36.888056621, 96.390, 1239.0, 35.1994
36.914317186, 96.390, 1281.0, 35.7911
36.940577751, 96.390, 1207.0, 34.7419
36.966838317, 96.390, 1194.0, 34.5543
36.993098882, 96.390, 1257.0, 35.4542
37.019359447, 96.390, 1281.0, 35.7911
37.045620013, 96.390, 1306.0, 36.1386
37.071880578, 96.390, 1306.0, 36.1386
37.098141143, 96.390, 1191.0, 34.5109
37.124401709, 96.390, 1230.0, 35.0714
37.150662274, 96.390, 1257.0, 35.4542
37.176922839, 96.390, 1288.0, 35.8887
37.203183405, 96.390, 1182.0, 34.3802
37.229443970, 96.390, 1200.0, 34.6410
37.255704535, 96.390, 1171.0, 34.2199
37.281965101, 96.390, 1228.0, 35.0428
37.308225666, 96.390, 1133.0, 33.6601
37.334486232, 96.390, 1140.0, 33.7639
37.360746797, 96.390, 1158.0, 34.0294
37.387007362, 96.390, 1196.0, 34.5832
37.413267928, 96.390, 1223.0, 34.9714
37.439528493, 96.390, 1191.0, 34.5109
37.465789058, 96.390, 1233.0, 35.1141
37.492049624, 96.390, 1153.0, 33.9559
37.518310189, 96.390, 1180.0, 34.3511
37.544570754, 96.390, 1150.0, 33.9116
37.570831320, 96.390, 1177.0, 34.3074
37.597091885, 96.390, 1164.0, 34.1174
37.623352450, 96.390, 1209.0, 34.7707
37.649613016, 96.390, 1194.0, 34.5543
37.675873581, 96.390, 1159.0, 34.0441
37.702134147, 96.390, 1199.0, 34.6266
37.728394712, 96.390, 1179.0, 34.3366
37.754655277, 96.390, 1141.0, 33.7787
37.780915843, 96.390, 1196.0, 34.5832
37.807176408, 96.390, 1132.0, 33.6452
37.833436973, 96.390, 1202.0, 34.6699
37.859697539, 96.390, 1246.0, 35.2987
37.885958104, 96.390, 1200.0, 34.6410
37.912218669, 96.390, 1194.0, 34.5543
37.938479235, 96.390, 1123.0, 33.5112
37.964739800, 96.390, 1162.0, 34.0881
37.991000365, 96.390, 1164.0, 34.1174
38.017260931, 96.390, 1177.0, 34.3074
38.043521496, 96.390, 1103.0, 33.2114
38.069782061, 96.390, 1133.0, 33.6601
38.096042627, 96.390, 1203.0, 34.6843
38.122303192, 96.390, 1171.0, 34.2199
38.148563758, 96.390, 1160.0, 34.0588
38.174824323, 96.390, 1160.0, 34.0588
38.201084888, 96.390, 1124.0, 33.5261
38.227345454, 96.390, 1130.0, 33.6155
38.253606019, 96.390, 1128.0, 33.5857
38.279866584, 96.390, 1142.0, 33.7935
38.306127150, 96.390, 1108.0, 33.2866
38.332387715, 96.390, 1076.0, 32.8024
38.358648280, 96.390, 1080.0, 32.8634
38.384908846, 96.390, 1059.0, 32.5423
38.411169411, 96.390, 1130.0, 33.6155
38.437429976, 96.390, 1118.0, 33.4365
38.463690542, 96.390, 1114.0, 33.3766
38.489951107, 96.390, 1080.0, 32.8634
38.516211673, 96.390, 1077.0, 32.8177
38.542472238, 96.390, 1073.0, 32.7567
38.568732803, 96.390, 1110.0, 33.3167
38.594993369, 96.390, 1053.0, 32.4500
38.621253934, 96.390, 1090.0, 33.0151
38.647514499, 96.390, 1082.0, 32.8938
38.673775065, 96.390, 1118.0, 33.4365
38.700035630, 96.390, 1074.0, 32.7719
38.726296195, 96.390, 1085.0, 32.9393
38.752556761, 96.390, 1056.0, 32.4962
38.778817326, 96.390, 1053.0, 32.4500
38.805077891, 96.390, 1074.0, 32.7719
38.831338457, 96.390, 1105.0, 33.2415
38.857599022, 96.390, 1048.0, 32.3728
38.883859587, 96.390, 1065.0, 32.6343
38.910120153, 96.390, 1089.0, 33.0000
38.936380718, 96.390, 1020.0, 31.9374
38.962641284, 96.390, 1086.0, 32.9545
38.988901849, 96.390, 1098.0, 33.1361
39.015162414, 96.390, 1067.0, 32.6650
39.041422980, 96.390, 1022.0, 31.9687
39.067683545, 96.390, 1094.0, 33.0757
39.093944110, 96.390, 1045.0, 32.3265
39.120204676, 96.390, 1051.0, 32.4191
39.146465241, 96.390, 1038.0, 32.2180
39.172725806, 96.390, 1040.0, 32.2490
39.198986372, 96.390, 1078.0, 32.8329
39.225246937, 96.390, 1031.0, 32.1092
39.251507502, 96.390, 1045.0, 32.3265
39.277768068, 96.390, 1062.0, 32.5883
39.304028633, 96.390, 1024.0, 32.0000
39.330289199, 96.390, 1063.0, 32.6037
39.356549764, 96.390, 1062.0, 32.5883
39.382810329, 96.390, 1053.0, 32.4500
39.409070895, 96.390, 995.0, 31.5436
39.435331460, 96.390, 1060.0, 32.5576
39.461592025, 96.390, 1084.0, 32.9242
39.487852591, 96.390, 1032.0, 32.1248
39.514113156, 96.390, 979.0, 31.2890
39.540373721, 96.390, 1013.0, 31.8277
39.566634287, 96.390, 1013.0, 31.8277
39.592894852, 96.390, 1074.0, 32.7719
39.619155417, 96.390, 992.0, 31.4960
39.645415983, 96.390, 1060.0, 32.5576
39.671676548, 96.390, 1079.0, 32.8481
39.697937113, 96.390, 1028.0, 32.0624
39.724197679, 96.390, 973.0, 31.1929
39.750458244, 96.390, 1021.0, 31.9531
39.776718810, 96.390, 975.0, 31.2250
39.802979375, 96.390, 972.0, 31.1769
39.829239940, 96.390, 1021.0, 31.9531
39.855500506, 96.390, 1010.0, 31.7805
39.881761071, 96.390, 1074.0, 32.7719
39.908021636, 96.390, 972.0, 31.1769
39.934282202, 96.390, 992.0, 31.4960
39.960542767, 96.390, 964.0, 31.0483
39.986803332, 96.390, 1028.0, 32.0624
40.013063898, 96.390, 1011.0, 31.7962
40.039324463, 96.390, 1022.0, 31.9687
40.065585028, 96.390, 1015.0, 31.8591
40.091845594, 96.390, 989.0, 31.4484
40.118106159, 96.390, 991.0, 31.4802
40.144366725, 96.390, 984.0, 31.3688
40.170627290, 96.390, 953.0, 30.8707
40.196887855, 96.390, 1025.0, 32.0156
40.223148421, 96.390, 1002.0, 31.6544
40.249408986, 96.390, 981.0, 31.3209
40.275669551, 96.390, 994.0, 31.5278
40.301930117, 96.390, 1008.0, 31.7490
40.328190682, 96.390, 934.0, 30.5614
40.354451247, 96.390, 1011.0, 31.7962
40.380711813, 96.390, 945.0, 30.7409
40.406972378, 96.390, 978.0, 31.2730
40.433232943, 96.390, 976.0, 31.2410
40.459493509, 96.390, 961.0, 31.0000
40.485754074, 96.390, 1015.0, 31.8591
40.512014639, 96.390, 955.0, 30.9031
40.538275205, 96.390, 974.0, 31.2090
40.564535770, 96.390, 1021.0, 31.9531
40.590796336, 96.390, 983.0, 31.3528
40.617056901, 96.390, 1008.0, 31.7490
40.643317466, 96.390, 984.0, 31.3688
40.669578032, 96.390, 993.0, 31.5119
40.695838597, 96.390, 968.0, 31.1127
40.722099162, 96.390, 1074.0, 32.7719
40.748359728, 96.390, 1011.0, 31.7962
40.774620293, 96.390, 957.0, 30.9354
40.800880858, 96.390, 1040.0, 32.2490
40.827141424, 96.390, 958.0, 30.9516
40.853401989, 96.390, 942.0, 30.6920
40.879662554, 96.390, 1023.0, 31.9844
40.905923120, 96.390, 1006.0, 31.7175
40.932183685, 96.390, 922.0, 30.3645
40.958444251, 96.390, 952.0, 30.8545
40.984704816, 96.390, 972.0, 31.1769
41.010965381, 96.390, 963.0, 31.0322
41.037225947, 96.390, 1003.0, 31.6702
41.063486512, 96.390, 930.0, 30.4959
41.089747077, 96.390, 970.0, 31.1448
41.116007643, 96.390, 994.0, 31.5278
41.142268208, 96.390, 966.0, 31.0805
41.168528773, 96.390, 1032.0, 32.1248
41.194789339, 96.390, 968.0, 31.1127
41.221049904, 96.390, 1003.0, 31.6702
41.247310469, 96.390, 979.0, 31.2890
41.273571035, 96.390, 1001.0, 31.6386
41.299831600, 96.390, 971.0, 31.1609
41.326092165, 96.390, 989.0, 31.4484
41.352352731, 96.390, 1017.0, 31.8904
41.378613296, 96.390, 978.0, 31.2730
41.404873862, 96.390, 1045.0, 32.3265
41.431134427, 96.390, 1002.0, 31.6544
41.457394992, 96.390, 946.0, 30.7571
41.483655558, 96.390, 916.0, 30.2655
41.509916123, 96.390, 959.0, 30.9677
41.536176688, 96.390, 1001.0, 31.6386
41.562437254, 96.390, 961.0, 31.0000
41.588697819, 96.390, 1000.0, 31.6228
41.614958384, 96.390, 981.0, 31.3209
41.641218950, 96.390, 1008.0, 31.7490
41.667479515, 96.390, 891.0, 29.8496
41.693740080, 96.390, 995.0, 31.5436
41.720000646, 96.390, 940.0, 30.6594
41.746261211, 96.390, 983.0, 31.3528
41.772521776, 96.390, 1011.0, 31.7962
41.798782342, 96.390, 945.0, 30.7409
41.825042907, 96.390, 983.0, 31.3528
41.851303473, 96.390, 936.0, 30.5941
41.877564038, 96.390, 1001.0, 31.6386
41.903824603, 96.390, 940.0, 30.6594
41.930085169, 96.390, 929.0, 30.4795
41.956345734, 96.390, 980.0, 31.3050
41.982606299, 96.390, 984.0, 31.3688
42.008866865, 96.390, 891.0, 29.8496
42.035127430, 96.390, 924.0, 30.3974
42.061387995, 96.390, 960.0, 30.9839
42.087648561, 96.390, 916.0, 30.2655
42.113909126, 96.390, 951.0, 30.8383
42.140169691, 96.390, 988.0, 31.4325
42.166430257, 96.390, 920.0, 30.3315
42.192690822, 96.390, 966.0, 31.0805
42.218951388, 96.390, 942.0, 30.6920
42.245211953, 96.390, 961.0, 31.0000
42.271472518, 96.390, 978.0, 31.2730
42.297733084, 96.390, 1011.0, 31.7962
42.323993649, 96.390, 926.0, 30.4302
42.350254214, 96.390, 965.0, 31.0644
42.376514780, 96.390, 945.0, 30.7409
42.402775345, 96.390, 928.0, 30.4631
42.429035910, 96.390, 898.0, 29.9666
42.455296476, 96.390, 983.0, 31.3528
42.481557041, 96.390, 973.0, 31.1929
42.507817606, 96.390, 908.0, 30.1330
42.534078172, 96.390, 972.0, 31.1769
42.560338737, 96.390, 958.0, 30.9516
42.586599302, 96.390, 930.0, 30.4959
42.612859868, 96.390, 935.0, 30.5778
42.639120433, 96.390, 950.0, 30.8221
42.665380999, 96.390, 928.0, 30.4631
42.691641564, 96.390, 902.0, 30.0333
42.717902129, 96.390, 944.0, 30.7246
42.744162695, 96.390, 932.0, 30.5287
42.770423260, 96.390, 969.0, 31.1288
42.796683825, 96.390, 1012.0, 31.8119
42.822944391, 96.390, 958.0, 30.9516
42.849204956, 96.390, 977.0, 31.2570
42.875465521, 96.390, 886.0, 29.7658
42.901726087, 96.390, 987.0, 31.4166
42.927986652, 96.390, 1018.0, 31.9061
42.954247217, 96.390, 988.0, 31.4325
42.980507783, 96.390, 908.0, 30.1330
43.006768348, 96.390, 984.0, 31.3688
43.033028914, 96.390, 981.0, 31.3209
43.059289479, 96.390, 982.0, 31.3369
43.085550044, 96.390, 986.0, 31.4006
43.111810610, 96.390, 938.0, 30.6268
43.138071175, 96.390, 960.0, 30.9839
43.164331740, 96.390, 981.0, 31.3209
43.190592306, 96.390, 923.0, 30.3809
43.216852871, 96.390, 927.0, 30.4467
43.243113436, 96.390, 897.0, 29.9500
43.269374002, 96.390, 980.0, 31.3050
43.295634567, 96.390, 953.0, 30.8707
43.321895132, 96.390, 926.0, 30.4302
43.348155698, 96.390, 931.0, 30.5123
43.374416263, 96.390, 963.0, 31.0322
43.400676828, 96.390, 932.0, 30.5287
43.426937394, 96.390, 953.0, 30.8707
43.453197959, 96.390, 996.0, 31.5595
43.479458525, 96.390, 944.0, 30.7246
43.505719090, 96.390, 980.0, 31.3050
43.531979655, 96.390, 935.0, 30.5778
43.558240221, 96.390, 964.0, 31.0483
43.584500786, 96.390, 961.0, 31.0000
43.610761351, 96.390, 891.0, 29.8496
43.637021917, 96.390, 967.0, 31.0966
43.663282482, 96.390, 1000.0, 31.6228
43.689543047, 96.390, 941.0, 30.6757
43.715803613, 96.390, 967.0, 31.0966
43.742064178, 96.390, 973.0, 31.1929
43.768324743, 96.390, 949.0, 30.8058
43.794585309, 96.390, 879.0, 29.6479
43.820845874, 96.390, 955.0, 30.9031
43.847106440, 96.390, 912.0, 30.1993
43.873367005, 96.390, 1014.0, 31.8434
43.899627570, 96.390, 928.0, 30.4631
43.925888136, 96.390, 935.0, 30.5778
43.952148701, 96.390, 921.0, 30.3480
43.978409266, 96.390, 998.0, 31.5911
44.004669832, 96.390, 975.0, 31.2250
44.030930397, 96.390, 921.0, 30.3480
44.057190962, 96.390, 909.0, 30.1496
44.083451528, 96.390, 912.0, 30.1993
44.109712093, 96.390, 874.0, 29.5635
44.135972658, 96.390, 1025.0, 32.0156
44.162233224, 96.390, 918.0, 30.2985
44.188493789, 96.390, 915.0, 30.2490
44.214754354, 96.390, 945.0, 30.7409
44.241014920, 96.390, 942.0, 30.6920
44.267275485, 96.390, 982.0, 31.3369
44.293536051, 96.390, 952.0, 30.8545
44.319796616, 96.390, 970.0, 31.1448
44.346057181, 96.390, 920.0, 30.3315
44.372317747, 96.390, 937.0, 30.6105
44.398578312, 96.390, 930.0, 30.4959
44.424838877, 96.390, 923.0, 30.3809
44.451099443, 96.390, 950.0, 30.8221
44.477360008, 96.390, 934.0, 30.5614
44.503620573, 96.390, 945.0, 30.7409
44.529881139, 96.390, 906.0, 30.0998
44.556141704, 96.390, 1017.0, 31.8904
44.582402269, 96.390, 916.0, 30.2655
44.608662835, 96.390, 938.0, 30.6268
44.634923400, 96.390, 939.0, 30.6431
44.661183966, 96.390, 913.0, 30.2159
44.687444531, 96.390, 944.0, 30.7246
44.713705096, 96.390, 918.0, 30.2985
44.739965662, 96.390, 920.0, 30.3315
44.766226227, 96.390, 905.0, 30.0832
44.792486792, 96.390, 929.0, 30.4795
44.818747358, 96.390, 984.0, 31.3688
44.845007923, 96.390, 972.0, 31.1769
44.871268488, 96.390, 924.0, 30.3974
44.897529054, 96.390, 990.0, 31.4643
44.923789619, 96.390, 903.0, 30.0500
44.950050184, 96.390, 929.0, 30.4795
44.976310750, 96.390, 892.0, 29.8664
45.002571315, 96.390, 940.0, 30.6594
45.028831880, 96.390, 948.0, 30.7896
45.055092446, 96.390, 926.0, 30.4302
45.081353011, 96.390, 935.0, 30.5778
45.107613577, 96.390, 907.0, 30.1164
45.133874142, 96.390, 909.0, 30.1496
45.160134707, 96.390, 924.0, 30.3974
45.186395273, 96.390, 958.0, 30.9516
45.212655838, 96.390, 875.0, 29.5804
45.238916403, 96.390, 874.0, 29.5635
45.265176969, 96.390, 946.0, 30.7571
45.291437534, 96.390, 947.0, 30.7734
45.317698099, 96.390, 911.0, 30.1828
45.343958665, 96.390, 875.0, 29.5804
45.370219230, 96.390, 950.0, 30.8221
45.396479795, 96.390, 889.0, 29.8161
45.422740361, 96.390, 961.0, 31.0000
45.449000926, 96.390, 890.0, 29.8329
45.475261492, 96.390, 878.0, 29.6311
45.501522057, 96.390, 919.0, 30.3150
45.527782622, 96.390, 912.0, 30.1993
45.554043188, 96.390, 886.0, 29.7658
45.580303753, 96.390, 899.0, 29.9833
45.606564318, 96.390, 888.0, 29.7993
45.632824884, 96.390, 872.0, 29.5296
45.659085449, 96.390, 909.0, 30.1496
45.685346014, 96.390, 921.0, 30.3480
45.711606580, 96.390, 959.0, 30.9677
45.737867145, 96.390, 930.0, 30.4959
45.764127710, 96.390, 909.0, 30.1496
45.790388276, 96.390, 924.0, 30.3974
45.816648841, 96.390, 884.0, 29.7321
45.842909406, 96.390, 897.0, 29.9500
45.869169972, 96.390, 936.0, 30.5941
45.895430537, 96.390, 901.0, 30.0167
45.921691103, 96.390, 986.0, 31.4006
45.947951668, 96.390, 911.0, 30.1828
45.974212233, 96.390, 859.0, 29.3087
46.000472799, 96.390, 932.0, 30.5287
46.026733364, 96.390, 940.0, 30.6594
46.052993929, 96.390, 948.0, 30.7896
46.079254495, 96.390, 909.0, 30.1496
46.105515060, 96.390, 877.0, 29.6142
46.131775625, 96.390, 822.0, 28.6705
46.158036191, 96.390, 878.0, 29.6311
46.184296756, 96.390, 939.0, 30.6431
46.210557321, 96.390, 937.0, 30.6105
46.236817887, 96.390, 940.0, 30.6594
46.263078452, 96.390, 904.0, 30.0666
46.289339017, 96.390, 878.0, 29.6311
46.315599583, 96.390, 917.0, 30.2820
46.341860148, 96.390, 850.0, 29.1548
46.368120714, 96.390, 910.0, 30.1662
46.394381279, 96.390, 860.0, 29.3258
46.420641844, 96.390, 920.0, 30.3315
46.446902410, 96.390, 896.0, 29.9333
46.473162975, 96.390, 869.0, 29.4788
46.499423540, 96.390, 912.0, 30.1993
46.525684106, 96.390, 882.0, 29.6985
46.551944671, 96.390, 902.0, 30.0333
46.578205236, 96.390, 927.0, 30.4467
46.604465802, 96.390, 913.0, 30.2159
46.630726367, 96.390, 991.0, 31.4802
46.656986932, 96.390, 848.0, 29.1204
46.683247498, 96.390, 883.0, 29.7153
46.709508063, 96.390, 903.0, 30.0500
46.735768629, 96.390, 883.0, 29.7153
46.762029194, 96.390, 912.0, 30.1993
46.788289759, 96.390, 860.0, 29.3258
46.814550325, 96.390, 885.0, 29.7489
46.840810890, 96.390, 911.0, 30.1828
46.867071455, 96.390, 871.0, 29.5127
46.893332021, 96.390, 913.0, 30.2159
46.919592586, 96.390, 812.0, 28.4956
46.945853151, 96.390, 859.0, 29.3087
46.972113717, 96.390, 872.0, 29.5296
46.998374282, 96.390, 883.0, 29.7153
47.024634847, 96.390, 814.0, 28.5307
47.050895413, 96.390, 854.0, 29.2233
47.077155978, 96.390, 875.0, 29.5804
47.103416543, 96.390, 829.0, 28.7924
47.129677109, 96.390, 908.0, 30.1330
47.155937674, 96.390, 833.0, 28.8617
47.182198240, 96.390, 890.0, 29.8329
47.208458805, 96.390, 885.0, 29.7489
47.234719370, 96.390, 819.0, 28.6182
47.260979936, 96.390, 893.0, 29.8831
47.287240501, 96.390, 847.0, 29.1033
47.313501066, 96.390, 832.0, 28.8444
47.339761632, 96.390, 877.0, 29.6142
47.366022197, 96.390, 864.0, 29.3939
47.392282762, 96.390, 913.0, 30.2159
47.418543328, 96.390, 889.0, 29.8161
47.444803893, 96.390, 829.0, 28.7924
47.471064458, 96.390, 862.0, 29.3598
47.497325024, 96.390, 862.0, 29.3598
47.523585589, 96.390, 830.0, 28.8097
47.549846155, 96.390, 877.0, 29.6142
47.576106720, 96.390, 887.0, 29.7825
47.602367285, 96.390, 842.0, 29.0172
47.628627851, 96.390, 831.0, 28.8271
47.654888416, 96.390, 934.0, 30.5614
47.681148981, 96.390, 834.0, 28.8791
47.707409547, 96.390, 858.0, 29.2916
47.733670112, 96.390, 829.0, 28.7924
47.759930677, 96.390, 863.0, 29.3769
47.786191243, 96.390, 799.0, 28.2666
47.812451808, 96.390, 904.0, 30.0666
47.838712373, 96.390, 849.0, 29.1376
47.864972939, 96.390, 836.0, 28.9137
47.891233504, 96.390, 872.0, 29.5296
47.917494069, 96.390, 794.0, 28.1780
47.943754635, 96.390, 865.0, 29.4109
47.970015200, 96.390, 865.0, 29.4109
47.996275766, 96.390, 893.0, 29.8831
48.022536331, 96.390, 853.0, 29.2062
48.048796896, 96.390, 886.0, 29.7658
48.075057462, 96.390, 845.0, 29.0689
48.101318027, 96.390, 795.0, 28.1957
48.127578592, 96.390, 784.0, 28.0000
48.153839158, 96.390, 785.0, 28.0179
48.180099723, 96.390, 830.0, 28.8097
48.206360288, 96.390, 794.0, 28.1780
48.232620854, 96.390, 843.0, 29.0345
48.258881419, 96.390, 875.0, 29.5804
48.285141984, 96.390, 863.0, 29.3769
48.311402550, 96.390, 842.0, 29.0172
48.337663115, 96.390, 835.0, 28.8964
48.363923681, 96.390, 824.0, 28.7054
48.390184246, 96.390, 818.0, 28.6007
48.416444811, 96.390, 746.0, 27.3130
48.442705377, 96.390, 810.0, 28.4605
48.468965942, 96.390, 842.0, 29.0172
48.495226507, 96.390, 827.0, 28.7576
48.521487073, 96.390, 841.0, 29.0000
48.547747638, 96.390, 803.0, 28.3373
48.574008203, 96.390, 858.0, 29.2916
48.600268769, 96.390, 867.0, 29.4449
48.626529334, 96.390, 838.0, 28.9482
48.652789899, 96.390, 778.0, 27.8927
48.679050465, 96.390, 826.0, 28.7402
48.705311030, 96.390, 798.0, 28.2489
48.731571595, 96.390, 795.0, 28.1957
48.757832161, 96.390, 817.0, 28.5832
48.784092726, 96.390, 867.0, 29.4449
48.810353292, 96.390, 821.0, 28.6531
48.836613857, 96.390, 839.0, 28.9655
48.862874422, 96.390, 817.0, 28.5832
48.889134988, 96.390, 804.0, 28.3549
48.915395553, 96.390, 818.0, 28.6007
48.941656118, 96.390, 888.0, 29.7993
48.967916684, 96.390, 854.0, 29.2233
48.994177249, 96.390, 816.0, 28.5657
49.020437814, 96.390, 743.0, 27.2580
49.046698380, 96.390, 787.0, 28.0535
49.072958945, 96.390, 769.0, 27.7308
49.099219510, 96.390, 792.0, 28.1425
49.125480076, 96.390, 822.0, 28.6705
49.151740641, 96.390, 833.0, 28.8617
49.178001207, 96.390, 836.0, 28.9137
49.204261772, 96.390, 815.0, 28.5482
49.230522337, 96.390, 807.0, 28.4077
49.256782903, 96.390, 810.0, 28.4605
49.283043468, 96.390, 801.0, 28.3019
49.309304033, 96.390, 826.0, 28.7402
49.335564599, 96.390, 814.0, 28.5307
49.361825164, 96.390, 791.0, 28.1247
49.388085729, 96.390, 798.0, 28.2489
49.414346295, 96.390, 814.0, 28.5307
49.440606860, 96.390, 784.0, 28.0000
49.466867425, 96.390, 828.0, 28.7750
49.493127991, 96.390, 816.0, 28.5657
49.519388556, 96.390, 819.0, 28.6182
49.545649121, 96.390, 808.0, 28.4253
49.571909687, 96.390, 779.0, 27.9106
49.598170252, 96.390, 770.0, 27.7489
49.624430818, 96.390, 800.0, 28.2843
49.650691383, 96.390, 853.0, 29.2062
49.676951948, 96.390, 824.0, 28.7054
49.703212514, 96.390, 782.0, 27.9643
49.729473079, 96.390, 853.0, 29.2062
49.755733644, 96.390, 818.0, 28.6007
49.781994210, 96.390, 758.0, 27.5318
49.808254775, 96.390, 818.0, 28.6007
49.834515340, 96.390, 872.0, 29.5296
49.860775906, 96.390, 831.0, 28.8271
49.887036471, 96.390, 772.0, 27.7849
49.913297036, 96.390, 819.0, 28.6182
49.939557602, 96.390, 808.0, 28.4253
49.965818167, 96.390, 798.0, 28.2489
49.992078733, 96.390, 745.0, 27.2947
50.018339298, 96.390, 757.0, 27.5136
50.044599863, 96.390, 812.0, 28.4956
50.070860429, 96.390, 831.0, 28.8271
50.097120994, 96.390, 745.0, 27.2947
50.123381559, 96.390, 789.0, 28.0891
50.149642125, 96.390, 785.0, 28.0179
50.175902690, 96.390, 770.0, 27.7489
50.202163255, 96.390, 779.0, 27.9106
50.228423821, 96.390, 807.0, 28.4077
50.254684386, 96.390, 833.0, 28.8617
50.280944951, 96.390, 783.0, 27.9821
50.307205517, 96.390, 777.0, 27.8747
50.333466082, 96.390, 796.0, 28.2135
50.359726647, 96.390, 794.0, 28.1780
50.385987213, 96.390, 780.0, 27.9285
50.412247778, 96.390, 778.0, 27.8927
50.438508344, 96.390, 748.0, 27.3496
50.464768909, 96.390, 754.0, 27.4591
50.491029474, 96.390, 772.0, 27.7849
50.517290040, 96.390, 837.0, 28.9310
50.543550605, 96.390, 803.0, 28.3373
50.569811170, 96.390, 788.0, 28.0713
50.596071736, 96.390, 767.0, 27.6948
50.622332301, 96.390, 779.0, 27.9106
50.648592866, 96.390, 763.0, 27.6225
50.674853432, 96.390, 755.0, 27.4773
50.701113997, 96.390, 771.0, 27.7669
50.727374562, 96.390, 761.0, 27.5862
50.753635128, 96.390, 797.0, 28.2312
50.779895693, 96.390, 788.0, 28.0713
50.806156258, 96.390, 738.0, 27.1662
50.832416824, 96.390, 823.0, 28.6880
50.858677389, 96.390, 755.0, 27.4773
50.884937955, 96.390, 727.0, 26.9629
50.911198520, 96.390, 766.0, 27.6767
50.937459085, 96.390, 769.0, 27.7308
50.963719651, 96.390, 736.0, 27.1293
50.989980216, 96.390, 818.0, 28.6007
51.016240781, 96.390, 795.0, 28.1957
51.042501347, 96.390, 818.0, 28.6007
51.068761912, 96.390, 739.0, 27.1846
51.095022477, 96.390, 742.0, 27.2397
51.121283043, 96.390, 760.0, 27.5681
51.147543608, 96.390, 716.0, 26.7582
51.173804173, 96.390, 794.0, 28.1780
51.200064739, 96.390, 724.0, 26.9072
51.226325304, 96.390, 771.0, 27.7669
51.252585870, 96.390, 746.0, 27.3130
51.278846435, 96.390, 779.0, 27.9106
51.305107000, 96.390, 715.0, 26.7395
51.331367566, 96.390, 728.0, 26.9815
51.357628131, 96.390, 702.0, 26.4953
51.383888696, 96.390, 803.0, 28.3373
51.410149262, 96.390, 721.0, 26.8514
51.436409827, 96.390, 801.0, 28.3019
51.462670392, 96.390, 774.0, 27.8209
51.488930958, 96.390, 783.0, 27.9821
51.515191523, 96.390, 781.0, 27.9464
51.541452088, 96.390, 795.0, 28.1957
51.567712654, 96.390, 728.0, 26.9815
51.593973219, 96.390, 777.0, 27.8747
51.620233784, 96.390, 753.0, 27.4408
51.646494350, 96.390, 776.0, 27.8568
51.672754915, 96.390, 777.0, 27.8747
51.699015481, 96.390, 718.0, 26.7955
51.725276046, 96.390, 767.0, 27.6948
51.751536611, 96.390, 781.0, 27.9464
51.777797177, 96.390, 789.0, 28.0891
51.804057742, 96.390, 791.0, 28.1247
51.830318307, 96.390, 803.0, 28.3373
51.856578873, 96.390, 742.0, 27.2397
51.882839438, 96.390, 699.0, 26.4386
51.909100003, 96.390, 792.0, 28.1425
51.935360569, 96.390, 764.0, 27.6405
51.961621134, 96.390, 763.0, 27.6225
51.987881699, 96.390, 745.0, 27.2947
52.014142265, 96.390, 770.0, 27.7489
52.040402830, 96.390, 721.0, 26.8514
52.066663396, 96.390, 754.0, 27.4591
52.092923961, 96.390, 734.0, 27.0924
52.119184526, 96.390, 746.0, 27.3130
52.145445092, 96.390, 758.0, 27.5318
52.171705657, 96.390, 731.0, 27.0370
52.197966222, 96.390, 736.0, 27.1293
52.224226788, 96.390, 752.0, 27.4226
52.250487353, 96.390, 727.0, 26.9629
52.276747918, 96.390, 783.0, 27.9821
52.303008484, 96.390, 737.0, 27.1477
52.329269049, 96.390, 773.0, 27.8029
52.355529614, 96.390, 755.0, 27.4773
52.381790180, 96.390, 732.0, 27.0555
52.408050745, 96.390, 745.0, 27.2947
52.434311310, 96.390, 746.0, 27.3130
52.460571876, 96.390, 748.0, 27.3496
52.486832441, 96.390, 709.0, 26.6271
52.513093007, 96.390, 714.0, 26.7208
52.539353572, 96.390, 728.0, 26.9815
52.565614137, 96.390, 810.0, 28.4605
52.591874703, 96.390, 757.0, 27.5136
52.618135268, 96.390, 757.0, 27.5136
52.644395833, 96.390, 745.0, 27.2947
52.670656399, 96.390, 713.0, 26.7021
52.696916964, 96.390, 717.0, 26.7769
52.723177529, 96.390, 724.0, 26.9072
52.749438095, 96.390, 728.0, 26.9815
52.775698660, 96.390, 764.0, 27.6405
52.801959225, 96.390, 697.0, 26.4008
52.828219791, 96.390, 762.0, 27.6043
52.854480356, 96.390, 709.0, 26.6271
52.880740922, 96.390, 720.0, 26.8328
52.907001487, 96.390, 747.0, 27.3313
52.933262052, 96.390, 715.0, 26.7395
52.959522618, 96.390, 772.0, 27.7849
52.985783183, 96.390, 736.0, 27.1293
53.012043748, 96.390, 745.0, 27.2947
53.038304314, 96.390, 709.0, 26.6271
53.064564879, 96.390, 726.0, 26.9444
53.090825444, 96.390, 766.0, 27.6767
53.117086010, 96.390, 732.0, 27.0555
53.143346575, 96.390, 747.0, 27.3313
53.169607140, 96.390, 749.0, 27.3679
53.195867706, 96.390, 739.0, 27.1846
53.222128271, 96.390, 758.0, 27.5318
53.248388836, 96.390, 722.0, 26.8701
53.274649402, 96.390, 756.0, 27.4955
53.300909967, 96.390, 733.0, 27.0740
53.327170533, 96.390, 754.0, 27.4591
53.353431098, 96.390, 720.0, 26.8328
53.379691663, 96.390, 723.0, 26.8887
53.405952229, 96.390, 779.0, 27.9106
53.432212794, 96.390, 667.0, 25.8263
53.458473359, 96.390, 712.0, 26.6833
53.484733925, 96.390, 726.0, 26.9444
53.510994490, 96.390, 720.0, 26.8328
53.537255055, 96.390, 685.0, 26.1725
53.563515621, 96.390, 671.0, 25.9037
53.589776186, 96.390, 685.0, 26.1725
53.616036751, 96.390, 697.0, 26.4008
53.642297317, 96.390, 691.0, 26.2869
53.668557882, 96.390, 706.0, 26.5707
53.694818448, 96.390, 730.0, 27.0185
53.721079013, 96.390, 743.0, 27.2580
53.747339578, 96.390, 724.0, 26.9072
53.773600144, 96.390, 679.0, 26.0576
53.799860709, 96.390, 751.0, 27.4044
53.826121274, 96.390, 751.0, 27.4044
53.852381840, 96.390, 658.0, 25.6515
53.878642405, 96.390, 727.0, 26.9629
53.904902970, 96.390, 709.0, 26.6271
53.931163536, 96.390, 766.0, 27.6767
53.957424101, 96.390, 704.0, 26.5330
53.983684666, 96.390, 721.0, 26.8514
54.009945232, 96.390, 717.0, 26.7769
54.036205797, 96.390, 716.0, 26.7582
54.062466362, 96.390, 757.0, 27.5136
54.088726928, 96.390, 728.0, 26.9815
54.114987493, 96.390, 630.0, 25.0998
54.141248059, 96.390, 760.0, 27.5681
54.167508624, 96.390, 683.0, 26.1343
54.193769189, 96.390, 723.0, 26.8887
54.220029755, 96.390, 686.0, 26.1916
54.246290320, 96.390, 725.0, 26.9258
54.272550885, 96.390, 710.0, 26.6458
54.298811451, 96.390, 719.0, 26.8142
54.325072016, 96.390, 666.0, 25.8070
54.351332581, 96.390, 741.0, 27.2213
54.377593147, 96.390, 700.0, 26.4575
54.403853712, 96.390, 755.0, 27.4773
54.430114277, 96.390, 719.0, 26.8142
54.456374843, 96.390, 704.0, 26.5330
54.482635408, 96.390, 710.0, 26.6458
54.508895973, 96.390, 649.0, 25.4755
54.535156539, 96.390, 759.0, 27.5500
54.561417104, 96.390, 712.0, 26.6833
54.587677670, 96.390, 777.0, 27.8747
54.613938235, 96.390, 686.0, 26.1916
54.640198800, 96.390, 682.0, 26.1151
54.666459366, 96.390, 654.0, 25.5734
54.692719931, 96.390, 681.0, 26.0960
54.718980496, 96.390, 787.0, 28.0535
54.745241062, 96.390, 690.0, 26.2679
54.771501627, 96.390, 720.0, 26.8328
54.797762192, 96.390, 690.0, 26.2679
54.824022758, 96.390, 734.0, 27.0924
54.850283323, 96.390, 726.0, 26.9444
54.876543888, 96.390, 700.0, 26.4575
54.902804454, 96.390, 745.0, 27.2947
54.929065019, 96.390, 665.0, 25.7876
54.955325585, 96.390, 731.0, 27.0370
54.981586150, 96.390, 674.0, 25.9615
55.007846715, 96.390, 702.0, 26.4953
55.034107281, 96.390, 693.0, 26.3249
55.060367846, 96.390, 691.0, 26.2869
55.086628411, 96.390, 667.0, 25.8263
55.112888977, 96.390, 733.0, 27.0740
55.139149542, 96.390, 735.0, 27.1109
55.165410107, 96.390, 705.0, 26.5518
55.191670673, 96.390, 696.0, 26.3818
55.217931238, 96.390, 733.0, 27.0740
55.244191803, 96.390, 728.0, 26.9815
55.270452369, 96.390, 759.0, 27.5500
55.296712934, 96.390, 718.0, 26.7955
55.322973499, 96.390, 669.0, 25.8650
55.349234065, 96.390, 717.0, 26.7769
55.375494630, 96.390, 726.0, 26.9444
55.401755196, 96.390, 672.0, 25.9230
55.428015761, 96.390, 705.0, 26.5518
55.454276326, 96.390, 642.0, 25.3377
55.480536892, 96.390, 744.0, 27.2764
55.506797457, 96.390, 675.0, 25.9808
55.533058022, 96.390, 721.0, 26.8514
55.559318588, 96.390, 672.0, 25.9230
55.585579153, 96.390, 673.0, 25.9422
55.611839718, 96.390, 714.0, 26.7208
55.638100284, 96.390, 717.0, 26.7769
55.664360849, 96.390, 721.0, 26.8514
55.690621414, 96.390, 666.0, 25.8070
55.716881980, 96.390, 748.0, 27.3496
55.743142545, 96.390, 653.0, 25.5539
55.769403111, 96.390, 669.0, 25.8650
55.795663676, 96.390, 686.0, 26.1916
55.821924241, 96.390, 685.0, 26.1725
55.848184807, 96.390, 697.0, 26.4008
55.874445372, 96.390, 658.0, 25.6515
55.900705937, 96.390, 708.0, 26.6083
55.926966503, 96.390, 686.0, 26.1916
55.953227068, 96.390, 677.0, 26.0192
55.979487633, 96.390, 694.0, 26.3439
56.005748199, 96.390, 737.0, 27.1477
56.032008764, 96.390, 753.0, 27.4408
56.058269329, 96.390, 681.0, 26.0960
56.084529895, 96.390, 684.0, 26.1534
56.110790460, 96.390, 709.0, 26.6271
56.137051025, 96.390, 711.0, 26.6646
56.163311591, 96.390, 730.0, 27.0185
56.189572156, 96.390, 679.0, 26.0576
56.215832722, 96.390, 722.0, 26.8701
56.242093287, 96.390, 703.0, 26.5141
56.268353852, 96.390, 653.0, 25.5539
56.294614418, 96.390, 690.0, 26.2679
56.320874983, 96.390, 775.0, 27.8388
56.347135548, 96.390, 744.0, 27.2764
56.373396114, 96.390, 677.0, 26.0192
56.399656679, 96.390, 703.0, 26.5141
56.425917244, 96.390, 655.0, 25.5930
56.452177810, 96.390, 687.0, 26.2107
56.478438375, 96.390, 675.0, 25.9808
56.504698940, 96.390, 652.0, 25.5343
56.530959506, 96.390, 729.0, 27.0000
56.557220071, 96.390, 702.0, 26.4953
56.583480637, 96.390, 693.0, 26.3249
56.609741202, 96.390, 687.0, 26.2107
56.636001767, 96.390, 719.0, 26.8142
56.662262333, 96.390, 684.0, 26.1534
56.688522898, 96.390, 696.0, 26.3818
56.714783463, 96.390, 713.0, 26.7021
56.741044029, 96.390, 674.0, 25.9615
56.767304594, 96.390, 681.0, 26.0960
56.793565159, 96.390, 637.0, 25.2389
56.819825725, 96.390, 712.0, 26.6833
56.846086290, 96.390, 681.0, 26.0960
56.872346855, 96.390, 756.0, 27.4955
56.898607421, 96.390, 704.0, 26.5330
56.924867986, 96.390, 661.0, 25.7099
56.951128551, 96.390, 718.0, 26.7955
56.977389117, 96.390, 715.0, 26.7395
57.003649682, 96.390, 720.0, 26.8328
57.029910248, 96.390, 727.0, 26.9629
57.056170813, 96.390, 743.0, 27.2580
57.082431378, 96.390, 679.0, 26.0576
57.108691944, 96.390, 673.0, 25.9422
57.134952509, 96.390, 689.0, 26.2488
57.161213074, 96.390, 735.0, 27.1109
57.187473640, 96.390, 697.0, 26.4008
57.213734205, 96.390, 728.0, 26.9815
57.239994770, 96.390, 682.0, 26.1151
57.266255336, 96.390, 700.0, 26.4575
57.292515901, 96.390, 745.0, 27.2947
57.318776466, 96.390, 683.0, 26.1343
57.345037032, 96.390, 702.0, 26.4953
57.371297597, 96.390, 706.0, 26.5707
57.397558163, 96.390, 657.0, 25.6320
57.423818728, 96.390, 711.0, 26.6646
57.450079293, 96.390, 685.0, 26.1725
57.476339859, 96.390, 656.0, 25.6125
57.502600424, 96.390, 766.0, 27.6767
57.528860989, 96.390, 713.0, 26.7021
57.555121555, 96.390, 741.0, 27.2213
57.581382120, 96.390, 698.0, 26.4197
57.607642685, 96.390, 718.0, 26.7955
57.633903251, 96.390, 689.0, 26.2488
57.660163816, 96.390, 684.0, 26.1534
57.686424381, 96.390, 750.0, 27.3861
57.712684947, 96.390, 714.0, 26.7208
57.738945512, 96.390, 695.0, 26.3629
57.765206077, 96.390, 684.0, 26.1534
57.791466643, 96.390, 685.0, 26.1725
57.817727208, 96.390, 729.0, 27.0000
57.843987774, 96.390, 692.0, 26.3059
57.870248339, 96.390, 712.0, 26.6833
57.896508904, 96.390, 678.0, 26.0384
57.922769470, 96.390, 660.0, 25.6905
57.949030035, 96.390, 700.0, 26.4575
57.975290600, 96.390, 670.0, 25.8844
58.001551166, 96.390, 723.0, 26.8887
58.027811731, 96.390, 676.0, 26.0000
58.054072296, 96.390, 756.0, 27.4955
58.080332862, 96.390, 666.0, 25.8070
58.106593427, 96.390, 698.0, 26.4197
58.132853992, 96.390, 619.0, 24.8797
58.159114558, 96.390, 727.0, 26.9629
58.185375123, 96.390, 666.0, 25.8070
58.211635689, 96.390, 754.0, 27.4591
58.237896254, 96.390, 758.0, 27.5318
58.264156819, 96.390, 697.0, 26.4008
58.290417385, 96.390, 697.0, 26.4008
58.316677950, 96.390, 725.0, 26.9258
58.342938515, 96.390, 673.0, 25.9422
58.369199081, 96.390, 657.0, 25.6320
58.395459646, 96.390, 706.0, 26.5707
58.421720211, 96.390, 701.0, 26.4764
58.447980777, 96.390, 703.0, 26.5141
58.474241342, 96.390, 755.0, 27.4773
58.500501907, 96.390, 691.0, 26.2869
58.526762473, 96.390, 691.0, 26.2869
58.553023038, 96.390, 677.0, 26.0192
58.579283603, 96.390, 709.0, 26.6271
58.605544169, 96.390, 707.0, 26.5895
58.631804734, 96.390, 724.0, 26.9072
58.658065300, 96.390, 651.0, 25.5147
58.684325865, 96.390, 697.0, 26.4008
58.710586430, 96.390, 677.0, 26.0192
58.736846996, 96.390, 715.0, 26.7395
58.763107561, 96.390, 668.0, 25.8457
58.789368126, 96.390, 665.0, 25.7876
58.815628692, 96.390, 715.0, 26.7395
58.841889257, 96.390, 702.0, 26.4953
58.868149822, 96.390, 686.0, 26.1916
58.894410388, 96.390, 680.0, 26.0768
58.920670953, 96.390, 706.0, 26.5707
58.946931518, 96.390, 734.0, 27.0924
58.973192084, 96.390, 735.0, 27.1109
58.999452649, 96.390, 706.0, 26.5707
59.025713214, 96.390, 703.0, 26.5141
59.051973780, 96.390, 734.0, 27.0924
59.078234345, 96.390, 663.0, 25.7488
59.104494911, 96.390, 669.0, 25.8650
59.130755476, 96.390, 737.0, 27.1477
59.157016041, 96.390, 672.0, 25.9230
59.183276607, 96.390, 709.0, 26.6271
59.209537172, 96.390, 725.0, 26.9258
59.235797737, 96.390, 673.0, 25.9422
59.262058303, 96.390, 722.0, 26.8701
59.288318868, 96.390, 727.0, 26.9629
59.314579433, 96.390, 704.0, 26.5330
59.340839999, 96.390, 693.0, 26.3249
59.367100564, 96.390, 704.0, 26.5330
59.393361129, 96.390, 671.0, 25.9037
59.419621695, 96.390, 723.0, 26.8887
59.445882260, 96.390, 680.0, 26.0768
59.472142826, 96.390, 691.0, 26.2869
59.498403391, 96.390, 701.0, 26.4764
59.524663956, 96.390, 704.0, 26.5330
59.550924522, 96.390, 766.0, 27.6767
59.577185087, 96.390, 747.0, 27.3313
59.603445652, 96.390, 724.0, 26.9072
59.629706218, 96.390, 683.0, 26.1343
59.655966783, 96.390, 716.0, 26.7582
59.682227348, 96.390, 707.0, 26.5895
59.708487914, 96.390, 648.0, 25.4558
59.734748479, 96.390, 708.0, 26.6083
59.761009044, 96.390, 755.0, 27.4773
59.787269610, 96.390, 668.0, 25.8457
59.813530175, 96.390, 725.0, 26.9258
59.839790740, 96.390, 666.0, 25.8070
59.866051306, 96.390, 694.0, 26.3439
59.892311871, 96.390, 712.0, 26.6833
59.918572437, 96.390, 733.0, 27.0740
59.944833002, 96.390, 702.0, 26.4953
59.971093567, 96.390, 719.0, 26.8142
59.997354133, 96.390, 730.0, 27.0185
60.023614698, 96.390, 754.0, 27.4591
60.049875263, 96.390, 737.0, 27.1477
60.076135829, 96.390, 743.0, 27.2580
60.102396394, 96.390, 728.0, 26.9815
60.128656959, 96.390, 753.0, 27.4408
60.154917525, 96.390, 700.0, 26.4575
60.181178090, 96.390, 694.0, 26.3439
60.207438655, 96.390, 796.0, 28.2135
60.233699221, 96.390, 751.0, 27.4044
60.259959786, 96.390, 760.0, 27.5681
60.286220352, 96.390, 745.0, 27.2947
60.312480917, 96.390, 745.0, 27.2947
60.338741482, 96.390, 716.0, 26.7582
60.365002048, 96.390, 703.0, 26.5141
60.391262613, 96.390, 748.0, 27.3496
60.417523178, 96.390, 748.0, 27.3496
60.443783744, 96.390, 770.0, 27.7489
60.470044309, 96.390, 729.0, 27.0000
60.496304874, 96.390, 724.0, 26.9072
60.522565440, 96.390, 757.0, 27.5136
60.548826005, 96.390, 744.0, 27.2764
60.575086570, 96.390, 749.0, 27.3679
60.601347136, 96.390, 733.0, 27.0740
60.627607701, 96.390, 750.0, 27.3861
60.653868266, 96.390, 729.0, 27.0000
60.680128832, 96.390, 761.0, 27.5862
60.706389397, 96.390, 761.0, 27.5862
60.732649963, 96.390, 770.0, 27.7489
60.758910528, 96.390, 786.0, 28.0357
60.785171093, 96.390, 814.0, 28.5307
60.811431659, 96.390, 763.0, 27.6225
60.837692224, 96.390, 768.0, 27.7128
60.863952789, 96.390, 851.0, 29.1719
60.890213355, 96.390, 774.0, 27.8209
60.916473920, 96.390, 779.0, 27.9106
60.942734485, 96.390, 772.0, 27.7849
60.968995051, 96.390, 784.0, 28.0000
60.995255616, 96.390, 786.0, 28.0357
61.021516181, 96.390, 802.0, 28.3196
61.047776747, 96.390, 830.0, 28.8097
61.074037312, 96.390, 819.0, 28.6182
61.100297878, 96.390, 791.0, 28.1247
61.126558443, 96.390, 808.0, 28.4253
61.152819008, 96.390, 827.0, 28.7576
61.179079574, 96.390, 784.0, 28.0000
61.205340139, 96.390, 786.0, 28.0357
61.231600704, 96.390, 818.0, 28.6007
61.257861270, 96.390, 776.0, 27.8568
61.284121835, 96.390, 802.0, 28.3196
61.310382400, 96.390, 799.0, 28.2666
61.336642966, 96.390, 811.0, 28.4781
61.362903531, 96.390, 829.0, 28.7924
61.389164096, 96.390, 836.0, 28.9137
61.415424662, 96.390, 836.0, 28.9137
61.441685227, 96.390, 824.0, 28.7054
61.467945792, 96.390, 788.0, 28.0713
61.494206358, 96.390, 838.0, 28.9482
61.520466923, 96.390, 806.0, 28.3901
61.546727489, 96.390, 832.0, 28.8444
61.572988054, 96.390, 842.0, 29.0172
61.599248619, 96.390, 840.0, 28.9828
61.625509185, 96.390, 849.0, 29.1376
61.651769750, 96.390, 804.0, 28.3549
61.678030315, 96.390, 757.0, 27.5136
61.704290881, 96.390, 799.0, 28.2666
61.730551446, 96.390, 780.0, 27.9285
61.756812011, 96.390, 837.0, 28.9310
61.783072577, 96.390, 836.0, 28.9137
61.809333142, 96.390, 791.0, 28.1247
61.835593707, 96.390, 798.0, 28.2489
61.861854273, 96.390, 840.0, 28.9828
61.888114838, 96.390, 806.0, 28.3901
61.914375404, 96.390, 813.0, 28.5132
61.940635969, 96.390, 778.0, 27.8927
61.966896534, 96.390, 801.0, 28.3019
61.993157100, 96.390, 800.0, 28.2843
62.019417665, 96.390, 770.0, 27.7489
62.045678230, 96.390, 808.0, 28.4253
62.071938796, 96.390, 762.0, 27.6043
62.098199361, 96.390, 761.0, 27.5862
62.124459926, 96.390, 763.0, 27.6225
62.150720492, 96.390, 785.0, 28.0179
62.176981057, 96.390, 807.0, 28.4077
62.203241622, 96.390, 756.0, 27.4955
62.229502188, 96.390, 782.0, 27.9643
62.255762753, 96.390, 755.0, 27.4773
62.282023318, 96.390, 818.0, 28.6007
62.308283884, 96.390, 785.0, 28.0179
62.334544449, 96.390, 740.0, 27.2029
62.360805015, 96.390, 795.0, 28.1957
62.387065580, 96.390, 766.0, 27.6767
62.413326145, 96.390, 765.0, 27.6586
62.439586711, 96.390, 727.0, 26.9629
62.465847276, 96.390, 738.0, 27.1662
62.492107841, 96.390, 718.0, 26.7955
62.518368407, 96.390, 766.0, 27.6767
62.544628972, 96.390, 727.0, 26.9629
62.570889537, 96.390, 752.0, 27.4226
62.597150103, 96.390, 771.0, 27.7669
62.623410668, 96.390, 719.0, 26.8142
62.649671233, 96.390, 722.0, 26.8701
62.675931799, 96.390, 747.0, 27.3313
62.702192364, 96.390, 747.0, 27.3313
62.728452930, 96.390, 763.0, 27.6225
62.754713495, 96.390, 755.0, 27.4773
62.780974060, 96.390, 772.0, 27.7849
62.807234626, 96.390, 729.0, 27.0000
62.833495191, 96.390, 728.0, 26.9815
62.859755756, 96.390, 745.0, 27.2947
62.886016322, 96.390, 756.0, 27.4955
62.912276887, 96.390, 728.0, 26.9815
62.938537452, 96.390, 752.0, 27.4226
62.964798018, 96.390, 723.0, 26.8887
62.991058583, 96.390, 728.0, 26.9815
63.017319148, 96.390, 741.0, 27.2213
63.043579714, 96.390, 739.0, 27.1846
63.069840279, 96.390, 773.0, 27.8029
63.096100844, 96.390, 689.0, 26.2488
63.122361410, 96.390, 716.0, 26.7582
63.148621975, 96.390, 727.0, 26.9629
63.174882541, 96.390, 773.0, 27.8029
63.201143106, 96.390, 702.0, 26.4953
63.227403671, 96.390, 721.0, 26.8514
63.253664237, 96.390, 710.0, 26.6458
63.279924802, 96.390, 724.0, 26.9072
63.306185367, 96.390, 680.0, 26.0768
63.332445933, 96.390, 721.0, 26.8514
63.358706498, 96.390, 743.0, 27.2580
63.384967063, 96.390, 733.0, 27.0740
63.411227629, 96.390, 661.0, 25.7099
63.437488194, 96.390, 686.0, 26.1916
63.463748759, 96.390, 659.0, 25.6710
63.490009325, 96.390, 711.0, 26.6646
63.516269890, 96.390, 741.0, 27.2213
63.542530455, 96.390, 695.0, 26.3629
63.568791021, 96.390, 684.0, 26.1534
63.595051586, 96.390, 680.0, 26.0768
63.621312152, 96.390, 735.0, 27.1109
63.647572717, 96.390, 689.0, 26.2488
63.673833282, 96.390, 657.0, 25.6320
63.700093848, 96.390, 681.0, 26.0960
63.726354413, 96.390, 715.0, 26.7395
63.752614978, 96.390, 732.0, 27.0555
63.778875544, 96.390, 712.0, 26.6833
63.805136109, 96.390, 678.0, 26.0384
63.831396674, 96.390, 687.0, 26.2107
63.857657240, 96.390, 708.0, 26.6083
63.883917805, 96.390, 660.0, 25.6905
63.910178370, 96.390, 706.0, 26.5707
63.936438936, 96.390, 684.0, 26.1534
63.962699501, 96.390, 660.0, 25.6905
63.988960067, 96.390, 721.0, 26.8514
64.015220632, 96.390, 661.0, 25.7099
64.041481197, 96.390, 699.0, 26.4386
64.067741763, 96.390, 664.0, 25.7682
64.094002328, 96.390, 714.0, 26.7208
64.120262893, 96.390, 674.0, 25.9615
64.146523459, 96.390, 679.0, 26.0576
64.172784024, 96.390, 680.0, 26.0768
64.199044589, 96.390, 647.0, 25.4362
64.225305155, 96.390, 679.0, 26.0576
64.251565720, 96.390, 658.0, 25.6515
64.277826285, 96.390, 710.0, 26.6458
64.304086851, 96.390, 702.0, 26.4953
64.330347416, 96.390, 683.0, 26.1343
64.356607981, 96.390, 699.0, 26.4386
64.382868547, 96.390, 670.0, 25.8844
64.409129112, 96.390, 676.0, 26.0000
64.435389678, 96.390, 689.0, 26.2488
64.461650243, 96.390, 666.0, 25.8070
64.487910808, 96.390, 690.0, 26.2679
64.514171374, 96.390, 673.0, 25.9422
64.540431939, 96.390, 684.0, 26.1534
64.566692504, 96.390, 701.0, 26.4764
64.592953070, 96.390, 637.0, 25.2389
64.619213635, 96.390, 645.0, 25.3969
64.645474200, 96.390, 692.0, 26.3059
64.671734766, 96.390, 709.0, 26.6271
64.697995331, 96.390, 733.0, 27.0740
64.724255896, 96.390, 704.0, 26.5330
64.750516462, 96.390, 674.0, 25.9615
64.776777027, 96.390, 683.0, 26.1343
64.803037593, 96.390, 645.0, 25.3969
64.829298158, 96.390, 678.0, 26.0384
64.855558723, 96.390, 642.0, 25.3377
64.881819289, 96.390, 694.0, 26.3439
64.908079854, 96.390, 625.0, 25.0000
64.934340419, 96.390, 721.0, 26.8514
64.960600985, 96.390, 661.0, 25.7099
64.986861550, 96.390, 676.0, 26.0000
