[Measurement conditions]
Sample identification,XRD_Centroid08Dec21_Act14Feb22_B4_0538M_NaOH_LS0146_1
Comment - 1,"Configuration=Stage for Flat Samples/Holders, Owner=User-1, Creation date=7/1/2020 9:53:24 AM"
Comment - 2,"Goniometer=Theta/Theta; Minimum step size 2Theta:0.0001; Minimum step size Omega:0.0001"
Comment - 3,"Sample stage=Stage for flat samples/holders"
Comment - 4,"Diffractometer system=EMPYREAN"
Comment - 5,"Measurement program=C:\Users\ibo5034\OneDrive - The Pennsylvania State University\NEUP - Reed, Titus's files\XRD\Cement\Zerobackground scan.xrdmp, Identifier={98A3B11C-88F9-4AA6-982C-73314A311EF5}"
Anode material,Cu
K-Alpha1 wavelength,1.5405980
K-Alpha2 wavelength,1.5444260
Ratio K-Alpha2/K-Alpha1,0.500
Divergence slit,Fixed,0.25
Monochromator used,NO
Generator voltage, 45
Tube current, 40
File date and time,17/Feb/2022 13:09
Unit cell,
h k l, 0 0 0
Scan axis,Gonio
Scan range,4.994599997,64.999991833
Scan step size,0.0262606
No. of points, 2285
Scan type,CONTINUOUS
Time per step,96.390
[Scan points]
Angle, TimePerStep, Intensity, ESD
5.007730280, 96.390, 5210.0, 72.1803
5.033990845, 96.390, 5153.0, 71.7844
5.060251411, 96.390, 5250.0, 72.4569
5.086511976, 96.390, 5200.0, 72.1110
5.112772541, 96.390, 4957.0, 70.4060
5.139033107, 96.390, 4970.0, 70.4982
5.165293672, 96.390, 5088.0, 71.3302
5.191554237, 96.390, 5033.0, 70.9436
5.217814803, 96.390, 5006.0, 70.7531
5.244075368, 96.390, 4941.0, 70.2922
5.270335934, 96.390, 4890.0, 69.9285
5.296596499, 96.390, 4999.0, 70.7036
5.322857064, 96.390, 5014.0, 70.8096
5.349117630, 96.390, 5043.0, 71.0141
5.375378195, 96.390, 4956.0, 70.3989
5.401638760, 96.390, 4963.0, 70.4486
5.427899326, 96.390, 4789.0, 69.2026
5.454159891, 96.390, 4852.0, 69.6563
5.480420456, 96.390, 4758.0, 68.9783
5.506681022, 96.390, 4886.0, 69.8999
5.532941587, 96.390, 4954.0, 70.3847
5.559202152, 96.390, 4803.0, 69.3037
5.585462718, 96.390, 4768.0, 69.0507
5.611723283, 96.390, 4827.0, 69.4766
5.637983849, 96.390, 4780.0, 69.1375
5.664244414, 96.390, 4875.0, 69.8212
5.690504979, 96.390, 4689.0, 68.4763
5.716765545, 96.390, 4654.0, 68.2202
5.743026110, 96.390, 4822.0, 69.4406
5.769286675, 96.390, 4706.0, 68.6003
5.795547241, 96.390, 4639.0, 68.1102
5.821807806, 96.390, 4704.0, 68.5857
5.848068371, 96.390, 4650.0, 68.1909
5.874328937, 96.390, 4696.0, 68.5274
5.900589502, 96.390, 4668.0, 68.3228
5.926850067, 96.390, 4664.0, 68.2935
5.953110633, 96.390, 4716.0, 68.6731
5.979371198, 96.390, 4666.0, 68.3081
6.005631763, 96.390, 4610.0, 67.8970
6.031892329, 96.390, 4682.0, 68.4251
6.058152894, 96.390, 4706.0, 68.6003
6.084413460, 96.390, 4711.0, 68.6367
6.110674025, 96.390, 4514.0, 67.1863
6.136934590, 96.390, 4648.0, 68.1762
6.163195156, 96.390, 4732.0, 68.7895
6.189455721, 96.390, 4626.0, 68.0147
6.215716286, 96.390, 4606.0, 67.8675
6.241976852, 96.390, 4646.0, 68.1616
6.268237417, 96.390, 4434.0, 66.5883
6.294497982, 96.390, 4632.0, 68.0588
6.320758548, 96.390, 4592.0, 67.7643
6.347019113, 96.390, 4580.0, 67.6757
6.373279678, 96.390, 4612.0, 67.9117
6.399540244, 96.390, 4610.0, 67.8970
6.425800809, 96.390, 4454.0, 66.7383
6.452061375, 96.390, 4405.0, 66.3702
6.478321940, 96.390, 4631.0, 68.0515
6.504582505, 96.390, 4623.0, 67.9926
6.530843071, 96.390, 4511.0, 67.1640
6.557103636, 96.390, 4445.0, 66.6708
6.583364201, 96.390, 4519.0, 67.2235
6.609624767, 96.390, 4614.0, 67.9264
6.635885332, 96.390, 4504.0, 67.1118
6.662145897, 96.390, 4372.0, 66.1211
6.688406463, 96.390, 4530.0, 67.3053
6.714667028, 96.390, 4478.0, 66.9179
6.740927593, 96.390, 4358.0, 66.0151
6.767188159, 96.390, 4494.0, 67.0373
6.793448724, 96.390, 4509.0, 67.1491
6.819709289, 96.390, 4420.0, 66.4831
6.845969855, 96.390, 4451.0, 66.7158
6.872230420, 96.390, 4542.0, 67.3944
6.898490986, 96.390, 4408.0, 66.3928
6.924751551, 96.390, 4445.0, 66.6708
6.951012116, 96.390, 4399.0, 66.3250
6.977272682, 96.390, 4498.0, 67.0671
7.003533247, 96.390, 4325.0, 65.7647
7.029793812, 96.390, 4364.0, 66.0606
7.056054378, 96.390, 4281.0, 65.4294
7.082314943, 96.390, 4386.0, 66.2269
7.108575508, 96.390, 4361.0, 66.0379
7.134836074, 96.390, 4360.0, 66.0303
7.161096639, 96.390, 4369.0, 66.0984
7.187357204, 96.390, 4359.0, 66.0227
7.213617770, 96.390, 4446.0, 66.6783
7.239878335, 96.390, 4410.0, 66.4078
7.266138900, 96.390, 4351.0, 65.9621
7.292399466, 96.390, 4359.0, 66.0227
7.318660031, 96.390, 4293.0, 65.5210
7.344920597, 96.390, 4152.0, 64.4360
7.371181162, 96.390, 4419.0, 66.4756
7.397441727, 96.390, 4357.0, 66.0076
7.423702293, 96.390, 4259.0, 65.2610
7.449962858, 96.390, 4150.0, 64.4205
7.476223423, 96.390, 4233.0, 65.0615
7.502483989, 96.390, 4367.0, 66.0833
7.528744554, 96.390, 4141.0, 64.3506
7.555005119, 96.390, 4133.0, 64.2884
7.581265685, 96.390, 4317.0, 65.7039
7.607526250, 96.390, 4226.0, 65.0077
7.633786815, 96.390, 4320.0, 65.7267
7.660047381, 96.390, 4259.0, 65.2610
7.686307946, 96.390, 4258.0, 65.2534
7.712568512, 96.390, 4075.0, 63.8357
7.738829077, 96.390, 4280.0, 65.4217
7.765089642, 96.390, 4200.0, 64.8074
7.791350208, 96.390, 4304.0, 65.6049
7.817610773, 96.390, 4171.0, 64.5833
7.843871338, 96.390, 4242.0, 65.1306
7.870131904, 96.390, 4159.0, 64.4903
7.896392469, 96.390, 4174.0, 64.6065
7.922653034, 96.390, 4144.0, 64.3739
7.948913600, 96.390, 4243.0, 65.1383
7.975174165, 96.390, 4012.0, 63.3404
8.001434730, 96.390, 4046.0, 63.6082
8.027695296, 96.390, 4088.0, 63.9375
8.053955861, 96.390, 4107.0, 64.0859
8.080216426, 96.390, 4154.0, 64.4515
8.106476992, 96.390, 4117.0, 64.1639
8.132737557, 96.390, 4149.0, 64.4127
8.158998123, 96.390, 4168.0, 64.5600
8.185258688, 96.390, 4130.0, 64.2651
8.211519253, 96.390, 4120.0, 64.1872
8.237779819, 96.390, 4102.0, 64.0469
8.264040384, 96.390, 4067.0, 63.7730
8.290300949, 96.390, 4122.0, 64.2028
8.316561515, 96.390, 3988.0, 63.1506
8.342822080, 96.390, 3866.0, 62.1772
8.369082645, 96.390, 3973.0, 63.0317
8.395343211, 96.390, 4035.0, 63.5216
8.421603776, 96.390, 3972.0, 63.0238
8.447864341, 96.390, 4002.0, 63.2614
8.474124907, 96.390, 3836.0, 61.9355
8.500385472, 96.390, 3979.0, 63.0793
8.526646038, 96.390, 3936.0, 62.7375
8.552906603, 96.390, 4010.0, 63.3246
8.579167168, 96.390, 3904.0, 62.4820
8.605427734, 96.390, 3912.0, 62.5460
8.631688299, 96.390, 3960.0, 62.9285
8.657948864, 96.390, 3884.0, 62.3217
8.684209430, 96.390, 3892.0, 62.3859
8.710469995, 96.390, 3830.0, 61.8870
8.736730560, 96.390, 3911.0, 62.5380
8.762991126, 96.390, 3763.0, 61.3433
8.789251691, 96.390, 3965.0, 62.9682
8.815512256, 96.390, 3861.0, 62.1369
8.841772822, 96.390, 4000.0, 63.2456
8.868033387, 96.390, 3898.0, 62.4340
8.894293952, 96.390, 4003.0, 63.2693
8.920554518, 96.390, 3809.0, 61.7171
8.946815083, 96.390, 3922.0, 62.6259
8.973075649, 96.390, 3818.0, 61.7900
8.999336214, 96.390, 3949.0, 62.8411
9.025596779, 96.390, 3738.0, 61.1392
9.051857345, 96.390, 3811.0, 61.7333
9.078117910, 96.390, 3819.0, 61.7981
9.104378475, 96.390, 3774.0, 61.4329
9.130639041, 96.390, 3722.0, 61.0082
9.156899606, 96.390, 3812.0, 61.7414
9.183160171, 96.390, 3820.0, 61.8061
9.209420737, 96.390, 3878.0, 62.2736
9.235681302, 96.390, 3688.0, 60.7289
9.261941867, 96.390, 3732.0, 61.0901
9.288202433, 96.390, 3798.0, 61.6279
9.314462998, 96.390, 3688.0, 60.7289
9.340723564, 96.390, 3792.0, 61.5792
9.366984129, 96.390, 3753.0, 61.2617
9.393244694, 96.390, 3707.0, 60.8851
9.419505260, 96.390, 3714.0, 60.9426
9.445765825, 96.390, 3693.0, 60.7701
9.472026390, 96.390, 3615.0, 60.1249
9.498286956, 96.390, 3759.0, 61.3107
9.524547521, 96.390, 3680.0, 60.6630
9.550808086, 96.390, 3637.0, 60.3075
9.577068652, 96.390, 3679.0, 60.6548
9.603329217, 96.390, 3653.0, 60.4401
9.629589782, 96.390, 3669.0, 60.5723
9.655850348, 96.390, 3684.0, 60.6960
9.682110913, 96.390, 3671.0, 60.5888
9.708371478, 96.390, 3552.0, 59.5987
9.734632044, 96.390, 3620.0, 60.1664
9.760892609, 96.390, 3575.0, 59.7913
9.787153175, 96.390, 3678.0, 60.6465
9.813413740, 96.390, 3670.0, 60.5805
9.839674305, 96.390, 3523.0, 59.3549
9.865934871, 96.390, 3511.0, 59.2537
9.892195436, 96.390, 3539.0, 59.4895
9.918456001, 96.390, 3568.0, 59.7327
9.944716567, 96.390, 3558.0, 59.6490
9.970977132, 96.390, 3401.0, 58.3181
9.997237697, 96.390, 3571.0, 59.7578
10.023498263, 96.390, 3561.0, 59.6741
10.049758828, 96.390, 3584.0, 59.8665
10.076019393, 96.390, 3504.0, 59.1946
10.102279959, 96.390, 3562.0, 59.6825
10.128540524, 96.390, 3556.0, 59.6322
10.154801090, 96.390, 3519.0, 59.3212
10.181061655, 96.390, 3563.0, 59.6909
10.207322220, 96.390, 3537.0, 59.4727
10.233582786, 96.390, 3578.0, 59.8164
10.259843351, 96.390, 3509.0, 59.2368
10.286103916, 96.390, 3493.0, 59.1016
10.312364482, 96.390, 3597.0, 59.9750
10.338625047, 96.390, 3510.0, 59.2453
10.364885612, 96.390, 3436.0, 58.6174
10.391146178, 96.390, 3405.0, 58.3524
10.417406743, 96.390, 3445.0, 58.6941
10.443667308, 96.390, 3438.0, 58.6345
10.469927874, 96.390, 3520.0, 59.3296
10.496188439, 96.390, 3454.0, 58.7707
10.522449004, 96.390, 3479.0, 58.9830
10.548709570, 96.390, 3390.0, 58.2237
10.574970135, 96.390, 3381.0, 58.1464
10.601230701, 96.390, 3351.0, 57.8878
10.627491266, 96.390, 3366.0, 58.0172
10.653751831, 96.390, 3460.0, 58.8218
10.680012397, 96.390, 3362.0, 57.9828
10.706272962, 96.390, 3409.0, 58.3866
10.732533527, 96.390, 3358.0, 57.9483
10.758794093, 96.390, 3326.0, 57.6715
10.785054658, 96.390, 3357.0, 57.9396
10.811315223, 96.390, 3360.0, 57.9655
10.837575789, 96.390, 3439.0, 58.6430
10.863836354, 96.390, 3274.0, 57.2189
10.890096919, 96.390, 3361.0, 57.9741
10.916357485, 96.390, 3287.0, 57.3324
10.942618050, 96.390, 3340.0, 57.7927
10.968878616, 96.390, 3344.0, 57.8273
10.995139181, 96.390, 3337.0, 57.7668
11.021399746, 96.390, 3227.0, 56.8067
11.047660312, 96.390, 3295.0, 57.4021
11.073920877, 96.390, 3364.0, 58.0000
11.100181442, 96.390, 3245.0, 56.9649
11.126442008, 96.390, 3262.0, 57.1139
11.152702573, 96.390, 3308.0, 57.5152
11.178963138, 96.390, 3247.0, 56.9825
11.205223704, 96.390, 3299.0, 57.4369
11.231484269, 96.390, 3216.0, 56.7098
11.257744834, 96.390, 3235.0, 56.8771
11.284005400, 96.390, 3177.0, 56.3649
11.310265965, 96.390, 3277.0, 57.2451
11.336526530, 96.390, 3155.0, 56.1694
11.362787096, 96.390, 3132.0, 55.9643
11.389047661, 96.390, 3156.0, 56.1783
11.415308227, 96.390, 3214.0, 56.6922
11.441568792, 96.390, 3109.0, 55.7584
11.467829357, 96.390, 3119.0, 55.8480
11.494089923, 96.390, 3094.0, 55.6237
11.520350488, 96.390, 3095.0, 55.6327
11.546611053, 96.390, 3135.0, 55.9911
11.572871619, 96.390, 3157.0, 56.1872
11.599132184, 96.390, 3037.0, 55.1090
11.625392749, 96.390, 3087.0, 55.5608
11.651653315, 96.390, 3063.0, 55.3444
11.677913880, 96.390, 2968.0, 54.4794
11.704174445, 96.390, 3152.0, 56.1427
11.730435011, 96.390, 3075.0, 55.4527
11.756695576, 96.390, 3043.0, 55.1634
11.782956141, 96.390, 3127.0, 55.9196
11.809216707, 96.390, 3000.0, 54.7723
11.835477272, 96.390, 3055.0, 55.2721
11.861737838, 96.390, 3060.0, 55.3173
11.887998403, 96.390, 2898.0, 53.8331
11.914258968, 96.390, 2954.0, 54.3507
11.940519534, 96.390, 3100.0, 55.6776
11.966780099, 96.390, 3065.0, 55.3624
11.993040664, 96.390, 2958.0, 54.3875
12.019301230, 96.390, 3028.0, 55.0273
12.045561795, 96.390, 2952.0, 54.3323
12.071822360, 96.390, 2890.0, 53.7587
12.098082926, 96.390, 2887.0, 53.7308
12.124343491, 96.390, 2996.0, 54.7357
12.150604056, 96.390, 2975.0, 54.5436
12.176864622, 96.390, 2954.0, 54.3507
12.203125187, 96.390, 2900.0, 53.8516
12.229385753, 96.390, 3072.0, 55.4256
12.255646318, 96.390, 2895.0, 53.8052
12.281906883, 96.390, 2954.0, 54.3507
12.308167449, 96.390, 2927.0, 54.1018
12.334428014, 96.390, 2974.0, 54.5344
12.360688579, 96.390, 2880.0, 53.6656
12.386949145, 96.390, 2667.0, 51.6430
12.413209710, 96.390, 2943.0, 54.2494
12.439470275, 96.390, 2805.0, 52.9623
12.465730841, 96.390, 2914.0, 53.9815
12.491991406, 96.390, 2873.0, 53.6004
12.518251971, 96.390, 2872.0, 53.5910
12.544512537, 96.390, 2900.0, 53.8516
12.570773102, 96.390, 2849.0, 53.3760
12.597033667, 96.390, 2914.0, 53.9815
12.623294233, 96.390, 2926.0, 54.0925
12.649554798, 96.390, 2736.0, 52.3068
12.675815364, 96.390, 2806.0, 52.9717
12.702075929, 96.390, 2756.0, 52.4976
12.728336494, 96.390, 2920.0, 54.0370
12.754597060, 96.390, 2776.0, 52.6878
12.780857625, 96.390, 2823.0, 53.1319
12.807118190, 96.390, 2861.0, 53.4883
12.833378756, 96.390, 2805.0, 52.9623
12.859639321, 96.390, 2750.0, 52.4404
12.885899886, 96.390, 2752.0, 52.4595
12.912160452, 96.390, 2688.0, 51.8459
12.938421017, 96.390, 2803.0, 52.9434
12.964681582, 96.390, 2724.0, 52.1920
12.990942148, 96.390, 2750.0, 52.4404
13.017202713, 96.390, 2583.0, 50.8232
13.043463279, 96.390, 2620.0, 51.1859
13.069723844, 96.390, 2767.0, 52.6023
13.095984409, 96.390, 2748.0, 52.4214
13.122244975, 96.390, 2724.0, 52.1920
13.148505540, 96.390, 2676.0, 51.7301
13.174766105, 96.390, 2536.0, 50.3587
13.201026671, 96.390, 2599.0, 50.9804
13.227287236, 96.390, 2738.0, 52.3259
13.253547801, 96.390, 2721.0, 52.1632
13.279808367, 96.390, 2681.0, 51.7784
13.306068932, 96.390, 2542.0, 50.4183
13.332329497, 96.390, 2577.0, 50.7642
13.358590063, 96.390, 2604.0, 51.0294
13.384850628, 96.390, 2616.0, 51.1468
13.411111193, 96.390, 2543.0, 50.4282
13.437371759, 96.390, 2591.0, 50.9019
13.463632324, 96.390, 2518.0, 50.1797
13.489892890, 96.390, 2553.0, 50.5272
13.516153455, 96.390, 2515.0, 50.1498
13.542414020, 96.390, 2621.0, 51.1957
13.568674586, 96.390, 2539.0, 50.3885
13.594935151, 96.390, 2603.0, 51.0196
13.621195716, 96.390, 2625.0, 51.2348
13.647456282, 96.390, 2559.0, 50.5866
13.673716847, 96.390, 2547.0, 50.4678
13.699977412, 96.390, 2526.0, 50.2593
13.726237978, 96.390, 2532.0, 50.3190
13.752498543, 96.390, 2480.0, 49.7996
13.778759108, 96.390, 2471.0, 49.7092
13.805019674, 96.390, 2510.0, 50.0999
13.831280239, 96.390, 2567.0, 50.6656
13.857540805, 96.390, 2543.0, 50.4282
13.883801370, 96.390, 2533.0, 50.3289
13.910061935, 96.390, 2596.0, 50.9510
13.936322501, 96.390, 2562.0, 50.6162
13.962583066, 96.390, 2557.0, 50.5668
13.988843631, 96.390, 2550.0, 50.4975
14.015104197, 96.390, 2498.0, 49.9800
14.041364762, 96.390, 2540.0, 50.3984
14.067625327, 96.390, 2417.0, 49.1630
14.093885893, 96.390, 2542.0, 50.4183
14.120146458, 96.390, 2445.0, 49.4469
14.146407023, 96.390, 2487.0, 49.8698
14.172667589, 96.390, 2499.0, 49.9900
14.198928154, 96.390, 2500.0, 50.0000
14.225188719, 96.390, 2399.0, 48.9796
14.251449285, 96.390, 2422.0, 49.2138
14.277709850, 96.390, 2504.0, 50.0400
14.303970416, 96.390, 2432.0, 49.3153
14.330230981, 96.390, 2355.0, 48.5283
14.356491546, 96.390, 2505.0, 50.0500
14.382752112, 96.390, 2424.0, 49.2341
14.409012677, 96.390, 2546.0, 50.4579
14.435273242, 96.390, 2444.0, 49.4368
14.461533808, 96.390, 2385.0, 48.8365
14.487794373, 96.390, 2431.0, 49.3052
14.514054938, 96.390, 2498.0, 49.9800
14.540315504, 96.390, 2399.0, 48.9796
14.566576069, 96.390, 2414.0, 49.1325
14.592836634, 96.390, 2385.0, 48.8365
14.619097200, 96.390, 2363.0, 48.6107
14.645357765, 96.390, 2441.0, 49.4065
14.671618331, 96.390, 2498.0, 49.9800
14.697878896, 96.390, 2365.0, 48.6313
14.724139461, 96.390, 2406.0, 49.0510
14.750400027, 96.390, 2533.0, 50.3289
14.776660592, 96.390, 2457.0, 49.5681
14.802921157, 96.390, 2371.0, 48.6929
14.829181723, 96.390, 2411.0, 49.1019
14.855442288, 96.390, 2456.0, 49.5580
14.881702853, 96.390, 2424.0, 49.2341
14.907963419, 96.390, 2302.0, 47.9792
14.934223984, 96.390, 2450.0, 49.4975
14.960484549, 96.390, 2360.0, 48.5798
14.986745115, 96.390, 2341.0, 48.3839
15.013005680, 96.390, 2375.0, 48.7340
15.039266245, 96.390, 2352.0, 48.4974
15.065526811, 96.390, 2378.0, 48.7647
15.091787376, 96.390, 2357.0, 48.5489
15.118047942, 96.390, 2398.0, 48.9694
15.144308507, 96.390, 2564.0, 50.6360
15.170569072, 96.390, 2430.0, 49.2950
15.196829638, 96.390, 2500.0, 50.0000
15.223090203, 96.390, 2362.0, 48.6004
15.249350768, 96.390, 2388.0, 48.8672
15.275611334, 96.390, 2411.0, 49.1019
15.301871899, 96.390, 2353.0, 48.5077
15.328132464, 96.390, 2445.0, 49.4469
15.354393030, 96.390, 2443.0, 49.4267
15.380653595, 96.390, 2263.0, 47.5710
15.406914160, 96.390, 2448.0, 49.4773
15.433174726, 96.390, 2305.0, 48.0104
15.459435291, 96.390, 2369.0, 48.6724
15.485695857, 96.390, 2287.0, 47.8226
15.511956422, 96.390, 2352.0, 48.4974
15.538216987, 96.390, 2390.0, 48.8876
15.564477553, 96.390, 2315.0, 48.1144
15.590738118, 96.390, 2489.0, 49.8899
15.616998683, 96.390, 2387.0, 48.8569
15.643259249, 96.390, 2438.0, 49.3761
15.669519814, 96.390, 2377.0, 48.7545
15.695780379, 96.390, 2418.0, 49.1732
15.722040945, 96.390, 2376.0, 48.7442
15.748301510, 96.390, 2399.0, 48.9796
15.774562075, 96.390, 2378.0, 48.7647
15.800822641, 96.390, 2341.0, 48.3839
15.827083206, 96.390, 2307.0, 48.0312
15.853343771, 96.390, 2317.0, 48.1352
15.879604337, 96.390, 2354.0, 48.5180
15.905864902, 96.390, 2313.0, 48.0937
15.932125468, 96.390, 2345.0, 48.4252
15.958386033, 96.390, 2432.0, 49.3153
15.984646598, 96.390, 2402.0, 49.0102
16.010907164, 96.390, 2332.0, 48.2908
16.037167729, 96.390, 2318.0, 48.1456
16.063428294, 96.390, 2387.0, 48.8569
16.089688860, 96.390, 2336.0, 48.3322
16.115949425, 96.390, 2336.0, 48.3322
16.142209990, 96.390, 2343.0, 48.4045
16.168470556, 96.390, 2380.0, 48.7852
16.194731121, 96.390, 2357.0, 48.5489
16.220991686, 96.390, 2271.0, 47.6550
16.247252252, 96.390, 2306.0, 48.0208
16.273512817, 96.390, 2451.0, 49.5076
16.299773382, 96.390, 2361.0, 48.5901
16.326033948, 96.390, 2376.0, 48.7442
16.352294513, 96.390, 2408.0, 49.0714
16.378555079, 96.390, 2365.0, 48.6313
16.404815644, 96.390, 2405.0, 49.0408
16.431076209, 96.390, 2442.0, 49.4166
16.457336775, 96.390, 2380.0, 48.7852
16.483597340, 96.390, 2346.0, 48.4355
16.509857905, 96.390, 2380.0, 48.7852
16.536118471, 96.390, 2244.0, 47.3709
16.562379036, 96.390, 2385.0, 48.8365
16.588639601, 96.390, 2424.0, 49.2341
16.614900167, 96.390, 2436.0, 49.3559
16.641160732, 96.390, 2292.0, 47.8748
16.667421297, 96.390, 2365.0, 48.6313
16.693681863, 96.390, 2393.0, 48.9183
16.719942428, 96.390, 2443.0, 49.4267
16.746202994, 96.390, 2465.0, 49.6488
16.772463559, 96.390, 2399.0, 48.9796
16.798724124, 96.390, 2348.0, 48.4562
16.824984690, 96.390, 2416.0, 49.1528
16.851245255, 96.390, 2420.0, 49.1935
16.877505820, 96.390, 2412.0, 49.1121
16.903766386, 96.390, 2390.0, 48.8876
16.930026951, 96.390, 2420.0, 49.1935
16.956287516, 96.390, 2334.0, 48.3115
16.982548082, 96.390, 2383.0, 48.8160
17.008808647, 96.390, 2453.0, 49.5278
17.035069212, 96.390, 2407.0, 49.0612
17.061329778, 96.390, 2383.0, 48.8160
17.087590343, 96.390, 2426.0, 49.2544
17.113850908, 96.390, 2370.0, 48.6826
17.140111474, 96.390, 2391.0, 48.8979
17.166372039, 96.390, 2454.0, 49.5379
17.192632605, 96.390, 2485.0, 49.8498
17.218893170, 96.390, 2414.0, 49.1325
17.245153735, 96.390, 2350.0, 48.4768
17.271414301, 96.390, 2436.0, 49.3559
17.297674866, 96.390, 2495.0, 49.9500
17.323935431, 96.390, 2579.0, 50.7839
17.350195997, 96.390, 2532.0, 50.3190
17.376456562, 96.390, 2460.0, 49.5984
17.402717127, 96.390, 2397.0, 48.9592
17.428977693, 96.390, 2425.0, 49.2443
17.455238258, 96.390, 2423.0, 49.2240
17.481498823, 96.390, 2429.0, 49.2849
17.507759389, 96.390, 2490.0, 49.8999
17.534019954, 96.390, 2536.0, 50.3587
17.560280520, 96.390, 2487.0, 49.8698
17.586541085, 96.390, 2543.0, 50.4282
17.612801650, 96.390, 2386.0, 48.8467
17.639062216, 96.390, 2456.0, 49.5580
17.665322781, 96.390, 2437.0, 49.3660
17.691583346, 96.390, 2501.0, 50.0100
17.717843912, 96.390, 2435.0, 49.3457
17.744104477, 96.390, 2516.0, 50.1597
17.770365042, 96.390, 2526.0, 50.2593
17.796625608, 96.390, 2440.0, 49.3964
17.822886173, 96.390, 2395.0, 48.9387
17.849146738, 96.390, 2519.0, 50.1896
17.875407304, 96.390, 2552.0, 50.5173
17.901667869, 96.390, 2447.0, 49.4672
17.927928434, 96.390, 2427.0, 49.2646
17.954189000, 96.390, 2461.0, 49.6085
17.980449565, 96.390, 2455.0, 49.5480
18.006710131, 96.390, 2496.0, 49.9600
18.032970696, 96.390, 2388.0, 48.8672
18.059231261, 96.390, 2642.0, 51.4004
18.085491827, 96.390, 2495.0, 49.9500
18.111752392, 96.390, 2495.0, 49.9500
18.138012957, 96.390, 2553.0, 50.5272
18.164273523, 96.390, 2497.0, 49.9700
18.190534088, 96.390, 2478.0, 49.7795
18.216794653, 96.390, 2496.0, 49.9600
18.243055219, 96.390, 2490.0, 49.8999
18.269315784, 96.390, 2511.0, 50.1099
18.295576349, 96.390, 2463.0, 49.6286
18.321836915, 96.390, 2440.0, 49.3964
18.348097480, 96.390, 2577.0, 50.7642
18.374358046, 96.390, 2570.0, 50.6952
18.400618611, 96.390, 2575.0, 50.7445
18.426879176, 96.390, 2591.0, 50.9019
18.453139742, 96.390, 2510.0, 50.0999
18.479400307, 96.390, 2591.0, 50.9019
18.505660872, 96.390, 2543.0, 50.4282
18.531921438, 96.390, 2460.0, 49.5984
18.558182003, 96.390, 2629.0, 51.2738
18.584442568, 96.390, 2540.0, 50.3984
18.610703134, 96.390, 2516.0, 50.1597
18.636963699, 96.390, 2568.0, 50.6754
18.663224264, 96.390, 2544.0, 50.4381
18.689484830, 96.390, 2583.0, 50.8232
18.715745395, 96.390, 2555.0, 50.5470
18.742005960, 96.390, 2549.0, 50.4876
18.768266526, 96.390, 2632.0, 51.3030
18.794527091, 96.390, 2646.0, 51.4393
18.820787657, 96.390, 2515.0, 50.1498
18.847048222, 96.390, 2638.0, 51.3615
18.873308787, 96.390, 2614.0, 51.1273
18.899569353, 96.390, 2577.0, 50.7642
18.925829918, 96.390, 2608.0, 51.0686
18.952090483, 96.390, 2685.0, 51.8170
18.978351049, 96.390, 2626.0, 51.2445
19.004611614, 96.390, 2538.0, 50.3786
19.030872179, 96.390, 2588.0, 50.8724
19.057132745, 96.390, 2650.0, 51.4782
19.083393310, 96.390, 2600.0, 50.9902
19.109653875, 96.390, 2548.0, 50.4777
19.135914441, 96.390, 2698.0, 51.9423
19.162175006, 96.390, 2610.0, 51.0882
19.188435572, 96.390, 2653.0, 51.5073
19.214696137, 96.390, 2637.0, 51.3517
19.240956702, 96.390, 2655.0, 51.5267
19.267217268, 96.390, 2674.0, 51.7107
19.293477833, 96.390, 2661.0, 51.5849
19.319738398, 96.390, 2651.0, 51.4879
19.345998964, 96.390, 2567.0, 50.6656
19.372259529, 96.390, 2623.0, 51.2152
19.398520094, 96.390, 2680.0, 51.7687
19.424780660, 96.390, 2639.0, 51.3712
19.451041225, 96.390, 2648.0, 51.4587
19.477301790, 96.390, 2689.0, 51.8556
19.503562356, 96.390, 2613.0, 51.1175
19.529822921, 96.390, 2571.0, 50.7050
19.556083486, 96.390, 2630.0, 51.2835
19.582344052, 96.390, 2635.0, 51.3323
19.608604617, 96.390, 2613.0, 51.1175
19.634865183, 96.390, 2797.0, 52.8867
19.661125748, 96.390, 2720.0, 52.1536
19.687386313, 96.390, 2755.0, 52.4881
19.713646879, 96.390, 2708.0, 52.0384
19.739907444, 96.390, 2698.0, 51.9423
19.766168009, 96.390, 2737.0, 52.3163
19.792428575, 96.390, 2756.0, 52.4976
19.818689140, 96.390, 2647.0, 51.4490
19.844949705, 96.390, 2619.0, 51.1762
19.871210271, 96.390, 2623.0, 51.2152
19.897470836, 96.390, 2650.0, 51.4782
19.923731401, 96.390, 2712.0, 52.0769
19.949991967, 96.390, 2813.0, 53.0377
19.976252532, 96.390, 2711.0, 52.0673
20.002513097, 96.390, 2751.0, 52.4500
20.028773663, 96.390, 2691.0, 51.8748
20.055034228, 96.390, 2681.0, 51.7784
20.081294794, 96.390, 2643.0, 51.4101
20.107555359, 96.390, 2754.0, 52.4786
20.133815924, 96.390, 2723.0, 52.1824
20.160076490, 96.390, 2766.0, 52.5928
20.186337055, 96.390, 2847.0, 53.3573
20.212597620, 96.390, 2744.0, 52.3832
20.238858186, 96.390, 2828.0, 53.1789
20.265118751, 96.390, 2652.0, 51.4976
20.291379316, 96.390, 2750.0, 52.4404
20.317639882, 96.390, 2571.0, 50.7050
20.343900447, 96.390, 2846.0, 53.3479
20.370161012, 96.390, 2708.0, 52.0384
20.396421578, 96.390, 2916.0, 54.0000
20.422682143, 96.390, 2737.0, 52.3163
20.448942709, 96.390, 2710.0, 52.0577
20.475203274, 96.390, 2725.0, 52.2015
20.501463839, 96.390, 2716.0, 52.1153
20.527724405, 96.390, 2791.0, 52.8299
20.553984970, 96.390, 2796.0, 52.8772
20.580245535, 96.390, 2796.0, 52.8772
20.606506101, 96.390, 2690.0, 51.8652
20.632766666, 96.390, 2735.0, 52.2972
20.659027231, 96.390, 2700.0, 51.9615
20.685287797, 96.390, 2834.0, 53.2353
20.711548362, 96.390, 2799.0, 52.9056
20.737808927, 96.390, 2771.0, 52.6403
20.764069493, 96.390, 2849.0, 53.3760
20.790330058, 96.390, 2845.0, 53.3385
20.816590623, 96.390, 2761.0, 52.5452
20.842851189, 96.390, 2806.0, 52.9717
20.869111754, 96.390, 2728.0, 52.2303
20.895372320, 96.390, 2760.0, 52.5357
20.921632885, 96.390, 2821.0, 53.1131
20.947893450, 96.390, 2784.0, 52.7636
20.974154016, 96.390, 2762.0, 52.5547
21.000414581, 96.390, 2941.0, 54.2310
21.026675146, 96.390, 2888.0, 53.7401
21.052935712, 96.390, 2760.0, 52.5357
21.079196277, 96.390, 2852.0, 53.4041
21.105456842, 96.390, 2778.0, 52.7067
21.131717408, 96.390, 2836.0, 53.2541
21.157977973, 96.390, 2788.0, 52.8015
21.184238538, 96.390, 2812.0, 53.0283
21.210499104, 96.390, 2847.0, 53.3573
21.236759669, 96.390, 2790.0, 52.8205
21.263020235, 96.390, 2700.0, 51.9615
21.289280800, 96.390, 2868.0, 53.5537
21.315541365, 96.390, 2839.0, 53.2823
21.341801931, 96.390, 2727.0, 52.2207
21.368062496, 96.390, 2848.0, 53.3667
21.394323061, 96.390, 2858.0, 53.4603
21.420583627, 96.390, 2696.0, 51.9230
21.446844192, 96.390, 2826.0, 53.1601
21.473104757, 96.390, 2877.0, 53.6377
21.499365323, 96.390, 2872.0, 53.5910
21.525625888, 96.390, 2761.0, 52.5452
21.551886453, 96.390, 2851.0, 53.3948
21.578147019, 96.390, 2831.0, 53.2071
21.604407584, 96.390, 2795.0, 52.8678
21.630668149, 96.390, 2759.0, 52.5262
21.656928715, 96.390, 2773.0, 52.6593
21.683189280, 96.390, 2750.0, 52.4404
21.709449846, 96.390, 2865.0, 53.5257
21.735710411, 96.390, 2773.0, 52.6593
21.761970976, 96.390, 2837.0, 53.2635
21.788231542, 96.390, 2904.0, 53.8888
21.814492107, 96.390, 2842.0, 53.3104
21.840752672, 96.390, 2957.0, 54.3783
21.867013238, 96.390, 2857.0, 53.4509
21.893273803, 96.390, 2731.0, 52.2590
21.919534368, 96.390, 2788.0, 52.8015
21.945794934, 96.390, 2735.0, 52.2972
21.972055499, 96.390, 2805.0, 52.9623
21.998316064, 96.390, 2778.0, 52.7067
22.024576630, 96.390, 2854.0, 53.4228
22.050837195, 96.390, 2803.0, 52.9434
22.077097761, 96.390, 2827.0, 53.1695
22.103358326, 96.390, 2833.0, 53.2259
22.129618891, 96.390, 2880.0, 53.6656
22.155879457, 96.390, 2897.0, 53.8238
22.182140022, 96.390, 2771.0, 52.6403
22.208400587, 96.390, 2861.0, 53.4883
22.234661153, 96.390, 2838.0, 53.2729
22.260921718, 96.390, 2807.0, 52.9811
22.287182283, 96.390, 2782.0, 52.7447
22.313442849, 96.390, 2792.0, 52.8394
22.339703414, 96.390, 2805.0, 52.9623
22.365963979, 96.390, 2758.0, 52.5167
22.392224545, 96.390, 2804.0, 52.9528
22.418485110, 96.390, 2786.0, 52.7826
22.444745675, 96.390, 2834.0, 53.2353
22.471006241, 96.390, 2797.0, 52.8867
22.497266806, 96.390, 2803.0, 52.9434
22.523527372, 96.390, 2831.0, 53.2071
22.549787937, 96.390, 2815.0, 53.0566
22.576048502, 96.390, 2810.0, 53.0094
22.602309068, 96.390, 2846.0, 53.3479
22.628569633, 96.390, 2945.0, 54.2679
22.654830198, 96.390, 2813.0, 53.0377
22.681090764, 96.390, 2885.0, 53.7122
22.707351329, 96.390, 2704.0, 52.0000
22.733611894, 96.390, 2849.0, 53.3760
22.759872460, 96.390, 2812.0, 53.0283
22.786133025, 96.390, 2833.0, 53.2259
22.812393590, 96.390, 2707.0, 52.0288
22.838654156, 96.390, 2803.0, 52.9434
22.864914721, 96.390, 2837.0, 53.2635
22.891175287, 96.390, 2823.0, 53.1319
22.917435852, 96.390, 2751.0, 52.4500
22.943696417, 96.390, 2808.0, 52.9906
22.969956983, 96.390, 2714.0, 52.0961
22.996217548, 96.390, 2853.0, 53.4135
23.022478113, 96.390, 2737.0, 52.3163
23.048738679, 96.390, 2786.0, 52.7826
23.074999244, 96.390, 2794.0, 52.8583
23.101259809, 96.390, 2815.0, 53.0566
23.127520375, 96.390, 2799.0, 52.9056
23.153780940, 96.390, 2774.0, 52.6688
23.180041505, 96.390, 2657.0, 51.5461
23.206302071, 96.390, 2758.0, 52.5167
23.232562636, 96.390, 2751.0, 52.4500
23.258823201, 96.390, 2745.0, 52.3927
23.285083767, 96.390, 2794.0, 52.8583
23.311344332, 96.390, 2764.0, 52.5738
23.337604898, 96.390, 2797.0, 52.8867
23.363865463, 96.390, 2712.0, 52.0769
23.390126028, 96.390, 2777.0, 52.6972
23.416386594, 96.390, 2726.0, 52.2111
23.442647159, 96.390, 2842.0, 53.3104
23.468907724, 96.390, 2740.0, 52.3450
23.495168290, 96.390, 2750.0, 52.4404
23.521428855, 96.390, 2674.0, 51.7107
23.547689420, 96.390, 2622.0, 51.2055
23.573949986, 96.390, 2687.0, 51.8363
23.600210551, 96.390, 2724.0, 52.1920
23.626471116, 96.390, 2694.0, 51.9038
23.652731682, 96.390, 2709.0, 52.0481
23.678992247, 96.390, 2720.0, 52.1536
23.705252813, 96.390, 2678.0, 51.7494
23.731513378, 96.390, 2669.0, 51.6624
23.757773943, 96.390, 2626.0, 51.2445
23.784034509, 96.390, 2628.0, 51.2640
23.810295074, 96.390, 2628.0, 51.2640
23.836555639, 96.390, 2791.0, 52.8299
23.862816205, 96.390, 2621.0, 51.1957
23.889076770, 96.390, 2578.0, 50.7740
23.915337335, 96.390, 2589.0, 50.8822
23.941597901, 96.390, 2615.0, 51.1371
23.967858466, 96.390, 2584.0, 50.8331
23.994119031, 96.390, 2642.0, 51.4004
24.020379597, 96.390, 2634.0, 51.3225
24.046640162, 96.390, 2552.0, 50.5173
24.072900727, 96.390, 2670.0, 51.6720
24.099161293, 96.390, 2504.0, 50.0400
24.125421858, 96.390, 2532.0, 50.3190
24.151682424, 96.390, 2523.0, 50.2295
24.177942989, 96.390, 2569.0, 50.6853
24.204203554, 96.390, 2568.0, 50.6754
24.230464120, 96.390, 2517.0, 50.1697
24.256724685, 96.390, 2452.0, 49.5177
24.282985250, 96.390, 2586.0, 50.8527
24.309245816, 96.390, 2564.0, 50.6360
24.335506381, 96.390, 2558.0, 50.5767
24.361766946, 96.390, 2626.0, 51.2445
24.388027512, 96.390, 2516.0, 50.1597
24.414288077, 96.390, 2454.0, 49.5379
24.440548642, 96.390, 2501.0, 50.0100
24.466809208, 96.390, 2580.0, 50.7937
24.493069773, 96.390, 2357.0, 48.5489
24.519330338, 96.390, 2508.0, 50.0799
24.545590904, 96.390, 2513.0, 50.1298
24.571851469, 96.390, 2428.0, 49.2747
24.598112035, 96.390, 2488.0, 49.8799
24.624372600, 96.390, 2518.0, 50.1797
24.650633165, 96.390, 2462.0, 49.6185
24.676893731, 96.390, 2472.0, 49.7192
24.703154296, 96.390, 2451.0, 49.5076
24.729414861, 96.390, 2480.0, 49.7996
24.755675427, 96.390, 2393.0, 48.9183
24.781935992, 96.390, 2416.0, 49.1528
24.808196557, 96.390, 2455.0, 49.5480
24.834457123, 96.390, 2460.0, 49.5984
24.860717688, 96.390, 2321.0, 48.1768
24.886978253, 96.390, 2410.0, 49.0918
24.913238819, 96.390, 2372.0, 48.7032
24.939499384, 96.390, 2424.0, 49.2341
24.965759950, 96.390, 2363.0, 48.6107
24.992020515, 96.390, 2428.0, 49.2747
25.018281080, 96.390, 2484.0, 49.8397
25.044541646, 96.390, 2374.0, 48.7237
25.070802211, 96.390, 2392.0, 48.9081
25.097062776, 96.390, 2329.0, 48.2597
25.123323342, 96.390, 2370.0, 48.6826
25.149583907, 96.390, 2347.0, 48.4458
25.175844472, 96.390, 2305.0, 48.0104
25.202105038, 96.390, 2375.0, 48.7340
25.228365603, 96.390, 2325.0, 48.2183
25.254626168, 96.390, 2307.0, 48.0312
25.280886734, 96.390, 2335.0, 48.3218
25.307147299, 96.390, 2340.0, 48.3735
25.333407864, 96.390, 2295.0, 47.9062
25.359668430, 96.390, 2301.0, 47.9687
25.385928995, 96.390, 2377.0, 48.7545
25.412189561, 96.390, 2367.0, 48.6518
25.438450126, 96.390, 2319.0, 48.1560
25.464710691, 96.390, 2323.0, 48.1975
25.490971257, 96.390, 2372.0, 48.7032
25.517231822, 96.390, 2317.0, 48.1352
25.543492387, 96.390, 2269.0, 47.6340
25.569752953, 96.390, 2349.0, 48.4665
25.596013518, 96.390, 2202.0, 46.9255
25.622274083, 96.390, 2344.0, 48.4149
25.648534649, 96.390, 2296.0, 47.9166
25.674795214, 96.390, 2244.0, 47.3709
25.701055779, 96.390, 2305.0, 48.0104
25.727316345, 96.390, 2189.0, 46.7868
25.753576910, 96.390, 2367.0, 48.6518
25.779837476, 96.390, 2201.0, 46.9148
25.806098041, 96.390, 2318.0, 48.1456
25.832358606, 96.390, 2247.0, 47.4025
25.858619172, 96.390, 2257.0, 47.5079
25.884879737, 96.390, 2173.0, 46.6154
25.911140302, 96.390, 2208.0, 46.9894
25.937400868, 96.390, 2211.0, 47.0213
25.963661433, 96.390, 2258.0, 47.5184
25.989921998, 96.390, 2221.0, 47.1275
26.016182564, 96.390, 2316.0, 48.1248
26.042443129, 96.390, 2220.0, 47.1169
26.068703694, 96.390, 2254.0, 47.4763
26.094964260, 96.390, 2256.0, 47.4974
26.121224825, 96.390, 2189.0, 46.7868
26.147485390, 96.390, 2225.0, 47.1699
26.173745956, 96.390, 2193.0, 46.8295
26.200006521, 96.390, 2173.0, 46.6154
26.226267087, 96.390, 2241.0, 47.3392
26.252527652, 96.390, 2254.0, 47.4763
26.278788217, 96.390, 2224.0, 47.1593
26.305048783, 96.390, 2206.0, 46.9681
26.331309348, 96.390, 2314.0, 48.1041
26.357569913, 96.390, 2266.0, 47.6025
26.383830479, 96.390, 2243.0, 47.3603
26.410091044, 96.390, 2192.0, 46.8188
26.436351609, 96.390, 2130.0, 46.1519
26.462612175, 96.390, 2227.0, 47.1911
26.488872740, 96.390, 2222.0, 47.1381
26.515133305, 96.390, 2219.0, 47.1063
26.541393871, 96.390, 2097.0, 45.7930
26.567654436, 96.390, 2129.0, 46.1411
26.593915002, 96.390, 2176.0, 46.6476
26.620175567, 96.390, 2113.0, 45.9674
26.646436132, 96.390, 2147.0, 46.3357
26.672696698, 96.390, 2140.0, 46.2601
26.698957263, 96.390, 2173.0, 46.6154
26.725217828, 96.390, 2173.0, 46.6154
26.751478394, 96.390, 2201.0, 46.9148
26.777738959, 96.390, 2158.0, 46.4543
26.803999524, 96.390, 2076.0, 45.5631
26.830260090, 96.390, 2161.0, 46.4866
26.856520655, 96.390, 2093.0, 45.7493
26.882781220, 96.390, 2143.0, 46.2925
26.909041786, 96.390, 2178.0, 46.6690
26.935302351, 96.390, 2133.0, 46.1844
26.961562916, 96.390, 2167.0, 46.5510
26.987823482, 96.390, 2140.0, 46.2601
27.014084047, 96.390, 2120.0, 46.0435
27.040344613, 96.390, 2113.0, 45.9674
27.066605178, 96.390, 2125.0, 46.0977
27.092865743, 96.390, 2031.0, 45.0666
27.119126309, 96.390, 2103.0, 45.8585
27.145386874, 96.390, 2115.0, 45.9891
27.171647439, 96.390, 2077.0, 45.5741
27.197908005, 96.390, 2090.0, 45.7165
27.224168570, 96.390, 2182.0, 46.7119
27.250429135, 96.390, 2134.0, 46.1952
27.276689701, 96.390, 2098.0, 45.8039
27.302950266, 96.390, 2142.0, 46.2817
27.329210831, 96.390, 2143.0, 46.2925
27.355471397, 96.390, 2087.0, 45.6837
27.381731962, 96.390, 2092.0, 45.7384
27.407992528, 96.390, 2094.0, 45.7602
27.434253093, 96.390, 2109.0, 45.9239
27.460513658, 96.390, 2043.0, 45.1996
27.486774224, 96.390, 2061.0, 45.3982
27.513034789, 96.390, 2152.0, 46.3897
27.539295354, 96.390, 2125.0, 46.0977
27.565555920, 96.390, 2055.0, 45.3321
27.591816485, 96.390, 2093.0, 45.7493
27.618077050, 96.390, 2094.0, 45.7602
27.644337616, 96.390, 2001.0, 44.7325
27.670598181, 96.390, 2044.0, 45.2106
27.696858746, 96.390, 2118.0, 46.0217
27.723119312, 96.390, 2077.0, 45.5741
27.749379877, 96.390, 2131.0, 46.1628
27.775640442, 96.390, 2124.0, 46.0869
27.801901008, 96.390, 2152.0, 46.3897
27.828161573, 96.390, 2100.0, 45.8258
27.854422139, 96.390, 2127.0, 46.1194
27.880682704, 96.390, 2162.0, 46.4973
27.906943269, 96.390, 2124.0, 46.0869
27.933203835, 96.390, 2166.0, 46.5403
27.959464400, 96.390, 2092.0, 45.7384
27.985724965, 96.390, 2098.0, 45.8039
28.011985531, 96.390, 2179.0, 46.6798
28.038246096, 96.390, 2043.0, 45.1996
28.064506661, 96.390, 2179.0, 46.6798
28.090767227, 96.390, 2091.0, 45.7275
28.117027792, 96.390, 2059.0, 45.3762
28.143288357, 96.390, 2104.0, 45.8694
28.169548923, 96.390, 2060.0, 45.3872
28.195809488, 96.390, 2072.0, 45.5192
28.222070054, 96.390, 2129.0, 46.1411
28.248330619, 96.390, 2113.0, 45.9674
28.274591184, 96.390, 2102.0, 45.8476
28.300851750, 96.390, 2016.0, 44.8999
28.327112315, 96.390, 2180.0, 46.6905
28.353372880, 96.390, 2066.0, 45.4533
28.379633446, 96.390, 2070.0, 45.4973
28.405894011, 96.390, 2089.0, 45.7056
28.432154576, 96.390, 2079.0, 45.5961
28.458415142, 96.390, 2085.0, 45.6618
28.484675707, 96.390, 2165.0, 46.5296
28.510936272, 96.390, 2095.0, 45.7712
28.537196838, 96.390, 2080.0, 45.6070
28.563457403, 96.390, 2043.0, 45.1996
28.589717968, 96.390, 2107.0, 45.9021
28.615978534, 96.390, 2034.0, 45.0999
28.642239099, 96.390, 2099.0, 45.8148
28.668499665, 96.390, 2072.0, 45.5192
28.694760230, 96.390, 2208.0, 46.9894
28.721020795, 96.390, 2085.0, 45.6618
28.747281361, 96.390, 2027.0, 45.0222
28.773541926, 96.390, 2092.0, 45.7384
28.799802491, 96.390, 2056.0, 45.3431
28.826063057, 96.390, 2067.0, 45.4643
28.852323622, 96.390, 2136.0, 46.2169
28.878584187, 96.390, 2140.0, 46.2601
28.904844753, 96.390, 2048.0, 45.2548
28.931105318, 96.390, 2023.0, 44.9778
28.957365883, 96.390, 2083.0, 45.6399
28.983626449, 96.390, 2080.0, 45.6070
29.009887014, 96.390, 2029.0, 45.0444
29.036147579, 96.390, 2131.0, 46.1628
29.062408145, 96.390, 2099.0, 45.8148
29.088668710, 96.390, 2038.0, 45.1442
29.114929276, 96.390, 2079.0, 45.5961
29.141189841, 96.390, 2121.0, 46.0543
29.167450406, 96.390, 2120.0, 46.0435
29.193710972, 96.390, 2080.0, 45.6070
29.219971537, 96.390, 2133.0, 46.1844
29.246232102, 96.390, 2140.0, 46.2601
29.272492668, 96.390, 2180.0, 46.6905
29.298753233, 96.390, 2051.0, 45.2880
29.325013798, 96.390, 2115.0, 45.9891
29.351274364, 96.390, 2109.0, 45.9239
29.377534929, 96.390, 2051.0, 45.2880
29.403795494, 96.390, 2072.0, 45.5192
29.430056060, 96.390, 2068.0, 45.4753
29.456316625, 96.390, 2144.0, 46.3033
29.482577191, 96.390, 2121.0, 46.0543
29.508837756, 96.390, 2137.0, 46.2277
29.535098321, 96.390, 2139.0, 46.2493
29.561358887, 96.390, 2086.0, 45.6727
29.587619452, 96.390, 2158.0, 46.4543
29.613880017, 96.390, 2110.0, 45.9347
29.640140583, 96.390, 2102.0, 45.8476
29.666401148, 96.390, 2114.0, 45.9783
29.692661713, 96.390, 1970.0, 44.3847
29.718922279, 96.390, 2157.0, 46.4435
29.745182844, 96.390, 2134.0, 46.1952
29.771443409, 96.390, 2128.0, 46.1303
29.797703975, 96.390, 2132.0, 46.1736
29.823964540, 96.390, 2108.0, 45.9130
29.850225105, 96.390, 2145.0, 46.3141
29.876485671, 96.390, 2089.0, 45.7056
29.902746236, 96.390, 2157.0, 46.4435
29.929006802, 96.390, 2006.0, 44.7884
29.955267367, 96.390, 2120.0, 46.0435
29.981527932, 96.390, 2109.0, 45.9239
30.007788498, 96.390, 2112.0, 45.9565
30.034049063, 96.390, 2150.0, 46.3681
30.060309628, 96.390, 2134.0, 46.1952
30.086570194, 96.390, 2044.0, 45.2106
30.112830759, 96.390, 2147.0, 46.3357
30.139091324, 96.390, 2111.0, 45.9456
30.165351890, 96.390, 2019.0, 44.9333
30.191612455, 96.390, 2146.0, 46.3249
30.217873020, 96.390, 2103.0, 45.8585
30.244133586, 96.390, 2071.0, 45.5082
30.270394151, 96.390, 2119.0, 46.0326
30.296654717, 96.390, 2136.0, 46.2169
30.322915282, 96.390, 2097.0, 45.7930
30.349175847, 96.390, 2026.0, 45.0111
30.375436413, 96.390, 2076.0, 45.5631
30.401696978, 96.390, 2084.0, 45.6508
30.427957543, 96.390, 2144.0, 46.3033
30.454218109, 96.390, 2139.0, 46.2493
30.480478674, 96.390, 2072.0, 45.5192
30.506739239, 96.390, 2057.0, 45.3542
30.532999805, 96.390, 2131.0, 46.1628
30.559260370, 96.390, 2116.0, 46.0000
30.585520935, 96.390, 2061.0, 45.3982
30.611781501, 96.390, 2129.0, 46.1411
30.638042066, 96.390, 2154.0, 46.4112
30.664302631, 96.390, 2119.0, 46.0326
30.690563197, 96.390, 2142.0, 46.2817
30.716823762, 96.390, 2127.0, 46.1194
30.743084328, 96.390, 2135.0, 46.2061
30.769344893, 96.390, 2023.0, 44.9778
30.795605458, 96.390, 2164.0, 46.5188
30.821866024, 96.390, 2133.0, 46.1844
30.848126589, 96.390, 2129.0, 46.1411
30.874387154, 96.390, 2122.0, 46.0652
30.900647720, 96.390, 2186.0, 46.7547
30.926908285, 96.390, 2075.0, 45.5522
30.953168850, 96.390, 2084.0, 45.6508
30.979429416, 96.390, 2087.0, 45.6837
31.005689981, 96.390, 2146.0, 46.3249
31.031950546, 96.390, 2086.0, 45.6727
31.058211112, 96.390, 2103.0, 45.8585
31.084471677, 96.390, 2102.0, 45.8476
31.110732243, 96.390, 2148.0, 46.3465
31.136992808, 96.390, 2042.0, 45.1885
31.163253373, 96.390, 2118.0, 46.0217
31.189513939, 96.390, 2132.0, 46.1736
31.215774504, 96.390, 2080.0, 45.6070
31.242035069, 96.390, 2172.0, 46.6047
31.268295635, 96.390, 2052.0, 45.2990
31.294556200, 96.390, 2091.0, 45.7275
31.320816765, 96.390, 2123.0, 46.0760
31.347077331, 96.390, 2059.0, 45.3762
31.373337896, 96.390, 2060.0, 45.3872
31.399598461, 96.390, 2096.0, 45.7821
31.425859027, 96.390, 2099.0, 45.8148
31.452119592, 96.390, 2017.0, 44.9110
31.478380157, 96.390, 2040.0, 45.1664
31.504640723, 96.390, 2022.0, 44.9667
31.530901288, 96.390, 2114.0, 45.9783
31.557161854, 96.390, 2089.0, 45.7056
31.583422419, 96.390, 2097.0, 45.7930
31.609682984, 96.390, 2082.0, 45.6289
31.635943550, 96.390, 2045.0, 45.2217
31.662204115, 96.390, 2125.0, 46.0977
31.688464680, 96.390, 2031.0, 45.0666
31.714725246, 96.390, 2088.0, 45.6946
31.740985811, 96.390, 2017.0, 44.9110
31.767246376, 96.390, 2064.0, 45.4313
31.793506942, 96.390, 2080.0, 45.6070
31.819767507, 96.390, 2018.0, 44.9222
31.846028072, 96.390, 2002.0, 44.7437
31.872288638, 96.390, 2035.0, 45.1110
31.898549203, 96.390, 2076.0, 45.5631
31.924809769, 96.390, 2059.0, 45.3762
31.951070334, 96.390, 2011.0, 44.8442
31.977330899, 96.390, 1987.0, 44.5758
32.003591465, 96.390, 2003.0, 44.7549
32.029852030, 96.390, 2084.0, 45.6508
32.056112595, 96.390, 2108.0, 45.9130
32.082373161, 96.390, 2051.0, 45.2880
32.108633726, 96.390, 2075.0, 45.5522
32.134894291, 96.390, 2064.0, 45.4313
32.161154857, 96.390, 1962.0, 44.2945
32.187415422, 96.390, 2119.0, 46.0326
32.213675987, 96.390, 1988.0, 44.5870
32.239936553, 96.390, 2060.0, 45.3872
32.266197118, 96.390, 2068.0, 45.4753
32.292457683, 96.390, 2069.0, 45.4863
32.318718249, 96.390, 2067.0, 45.4643
32.344978814, 96.390, 2090.0, 45.7165
32.371239380, 96.390, 2000.0, 44.7214
32.397499945, 96.390, 2136.0, 46.2169
32.423760510, 96.390, 2016.0, 44.8999
32.450021076, 96.390, 2050.0, 45.2769
32.476281641, 96.390, 1966.0, 44.3396
32.502542206, 96.390, 2047.0, 45.2438
32.528802772, 96.390, 2021.0, 44.9555
32.555063337, 96.390, 1962.0, 44.2945
32.581323902, 96.390, 2039.0, 45.1553
32.607584468, 96.390, 2068.0, 45.4753
32.633845033, 96.390, 2087.0, 45.6837
32.660105598, 96.390, 2064.0, 45.4313
32.686366164, 96.390, 1998.0, 44.6990
32.712626729, 96.390, 2072.0, 45.5192
32.738887295, 96.390, 2069.0, 45.4863
32.765147860, 96.390, 2038.0, 45.1442
32.791408425, 96.390, 1943.0, 44.0795
32.817668991, 96.390, 2020.0, 44.9444
32.843929556, 96.390, 1982.0, 44.5197
32.870190121, 96.390, 2044.0, 45.2106
32.896450687, 96.390, 2025.0, 45.0000
32.922711252, 96.390, 1991.0, 44.6206
32.948971817, 96.390, 2070.0, 45.4973
32.975232383, 96.390, 2063.0, 45.4203
33.001492948, 96.390, 2083.0, 45.6399
33.027753513, 96.390, 1920.0, 43.8178
33.054014079, 96.390, 2002.0, 44.7437
33.080274644, 96.390, 2064.0, 45.4313
33.106535209, 96.390, 1963.0, 44.3058
33.132795775, 96.390, 1987.0, 44.5758
33.159056340, 96.390, 1962.0, 44.2945
33.185316906, 96.390, 1966.0, 44.3396
33.211577471, 96.390, 2058.0, 45.3652
33.237838036, 96.390, 2022.0, 44.9667
33.264098602, 96.390, 2076.0, 45.5631
33.290359167, 96.390, 1990.0, 44.6094
33.316619732, 96.390, 1907.0, 43.6692
33.342880298, 96.390, 1995.0, 44.6654
33.369140863, 96.390, 2042.0, 45.1885
33.395401428, 96.390, 1852.0, 43.0349
33.421661994, 96.390, 1992.0, 44.6318
33.447922559, 96.390, 1943.0, 44.0795
33.474183124, 96.390, 2026.0, 45.0111
33.500443690, 96.390, 1943.0, 44.0795
33.526704255, 96.390, 2039.0, 45.1553
33.552964820, 96.390, 1968.0, 44.3621
33.579225386, 96.390, 2037.0, 45.1331
33.605485951, 96.390, 2032.0, 45.0777
33.631746517, 96.390, 1964.0, 44.3170
33.658007082, 96.390, 2045.0, 45.2217
33.684267647, 96.390, 2054.0, 45.3211
33.710528213, 96.390, 1987.0, 44.5758
33.736788778, 96.390, 1983.0, 44.5309
33.763049343, 96.390, 2046.0, 45.2327
33.789309909, 96.390, 1980.0, 44.4972
33.815570474, 96.390, 2068.0, 45.4753
33.841831039, 96.390, 1990.0, 44.6094
33.868091605, 96.390, 2024.0, 44.9889
33.894352170, 96.390, 2077.0, 45.5741
33.920612735, 96.390, 1950.0, 44.1588
33.946873301, 96.390, 2106.0, 45.8912
33.973133866, 96.390, 2069.0, 45.4863
33.999394432, 96.390, 1990.0, 44.6094
34.025654997, 96.390, 2027.0, 45.0222
34.051915562, 96.390, 2065.0, 45.4423
34.078176128, 96.390, 2045.0, 45.2217
34.104436693, 96.390, 1997.0, 44.6878
34.130697258, 96.390, 2099.0, 45.8148
34.156957824, 96.390, 2121.0, 46.0543
34.183218389, 96.390, 2141.0, 46.2709
34.209478954, 96.390, 2112.0, 45.9565
34.235739520, 96.390, 2111.0, 45.9456
34.262000085, 96.390, 2130.0, 46.1519
34.288260650, 96.390, 2110.0, 45.9347
34.314521216, 96.390, 2147.0, 46.3357
34.340781781, 96.390, 2238.0, 47.3075
34.367042346, 96.390, 2154.0, 46.4112
34.393302912, 96.390, 2146.0, 46.3249
34.419563477, 96.390, 2171.0, 46.5940
34.445824043, 96.390, 2215.0, 47.0638
34.472084608, 96.390, 2068.0, 45.4753
34.498345173, 96.390, 2224.0, 47.1593
34.524605739, 96.390, 2174.0, 46.6262
34.550866304, 96.390, 2191.0, 46.8081
34.577126869, 96.390, 2217.0, 47.0850
34.603387435, 96.390, 2222.0, 47.1381
34.629648000, 96.390, 2166.0, 46.5403
34.655908565, 96.390, 2197.0, 46.8722
34.682169131, 96.390, 2177.0, 46.6583
34.708429696, 96.390, 2249.0, 47.4236
34.734690261, 96.390, 2222.0, 47.1381
34.760950827, 96.390, 2221.0, 47.1275
34.787211392, 96.390, 2282.0, 47.7703
34.813471958, 96.390, 2175.0, 46.6369
34.839732523, 96.390, 2309.0, 48.0521
34.865993088, 96.390, 2204.0, 46.9468
34.892253654, 96.390, 2230.0, 47.2229
34.918514219, 96.390, 2235.0, 47.2758
34.944774784, 96.390, 2296.0, 47.9166
34.971035350, 96.390, 2262.0, 47.5605
34.997295915, 96.390, 2252.0, 47.4552
35.023556480, 96.390, 2202.0, 46.9255
35.049817046, 96.390, 2212.0, 47.0319
35.076077611, 96.390, 2234.0, 47.2652
35.102338176, 96.390, 2130.0, 46.1519
35.128598742, 96.390, 2150.0, 46.3681
35.154859307, 96.390, 2188.0, 46.7761
35.181119872, 96.390, 2198.0, 46.8828
35.207380438, 96.390, 2248.0, 47.4131
35.233641003, 96.390, 2131.0, 46.1628
35.259901569, 96.390, 2123.0, 46.0760
35.286162134, 96.390, 2101.0, 45.8367
35.312422699, 96.390, 2139.0, 46.2493
35.338683265, 96.390, 2136.0, 46.2169
35.364943830, 96.390, 2144.0, 46.3033
35.391204395, 96.390, 2131.0, 46.1628
35.417464961, 96.390, 2160.0, 46.4758
35.443725526, 96.390, 2109.0, 45.9239
35.469986091, 96.390, 2152.0, 46.3897
35.496246657, 96.390, 2172.0, 46.6047
35.522507222, 96.390, 2194.0, 46.8402
35.548767787, 96.390, 2101.0, 45.8367
35.575028353, 96.390, 2155.0, 46.4220
35.601288918, 96.390, 2202.0, 46.9255
35.627549484, 96.390, 2141.0, 46.2709
35.653810049, 96.390, 2151.0, 46.3789
35.680070614, 96.390, 2043.0, 45.1996
35.706331180, 96.390, 2074.0, 45.5412
35.732591745, 96.390, 2015.0, 44.8888
35.758852310, 96.390, 2121.0, 46.0543
35.785112876, 96.390, 2120.0, 46.0435
35.811373441, 96.390, 2048.0, 45.2548
35.837634006, 96.390, 2015.0, 44.8888
35.863894572, 96.390, 2099.0, 45.8148
35.890155137, 96.390, 2023.0, 44.9778
35.916415702, 96.390, 2143.0, 46.2925
35.942676268, 96.390, 2059.0, 45.3762
35.968936833, 96.390, 2004.0, 44.7661
35.995197398, 96.390, 2010.0, 44.8330
36.021457964, 96.390, 2002.0, 44.7437
36.047718529, 96.390, 1935.0, 43.9886
36.073979095, 96.390, 2061.0, 45.3982
36.100239660, 96.390, 2031.0, 45.0666
36.126500225, 96.390, 1972.0, 44.4072
36.152760791, 96.390, 2004.0, 44.7661
36.179021356, 96.390, 1997.0, 44.6878
36.205281921, 96.390, 1979.0, 44.4860
36.231542487, 96.390, 1907.0, 43.6692
36.257803052, 96.390, 2038.0, 45.1442
36.284063617, 96.390, 2041.0, 45.1774
36.310324183, 96.390, 2020.0, 44.9444
36.336584748, 96.390, 1921.0, 43.8292
36.362845313, 96.390, 1914.0, 43.7493
36.389105879, 96.390, 1930.0, 43.9318
36.415366444, 96.390, 2061.0, 45.3982
36.441627010, 96.390, 1872.0, 43.2666
36.467887575, 96.390, 1943.0, 44.0795
36.494148140, 96.390, 1892.0, 43.4971
36.520408706, 96.390, 1961.0, 44.2832
36.546669271, 96.390, 1900.0, 43.5890
36.572929836, 96.390, 1887.0, 43.4396
36.599190402, 96.390, 1923.0, 43.8520
36.625450967, 96.390, 1946.0, 44.1135
36.651711532, 96.390, 1808.0, 42.5206
36.677972098, 96.390, 1989.0, 44.5982
36.704232663, 96.390, 1872.0, 43.2666
36.730493228, 96.390, 1941.0, 44.0568
36.756753794, 96.390, 1839.0, 42.8836
36.783014359, 96.390, 1857.0, 43.0929
36.809274924, 96.390, 1935.0, 43.9886
36.835535490, 96.390, 1862.0, 43.1509
36.861796055, 96.390, 1786.0, 42.2611
36.888056621, 96.390, 1857.0, 43.0929
36.914317186, 96.390, 1827.0, 42.7434
36.940577751, 96.390, 1874.0, 43.2897
36.966838317, 96.390, 1863.0, 43.1625
36.993098882, 96.390, 1786.0, 42.2611
37.019359447, 96.390, 1862.0, 43.1509
37.045620013, 96.390, 1800.0, 42.4264
37.071880578, 96.390, 1833.0, 42.8135
37.098141143, 96.390, 1774.0, 42.1189
37.124401709, 96.390, 1805.0, 42.4853
37.150662274, 96.390, 1790.0, 42.3084
37.176922839, 96.390, 1862.0, 43.1509
37.203183405, 96.390, 1767.0, 42.0357
37.229443970, 96.390, 1850.0, 43.0116
37.255704535, 96.390, 1874.0, 43.2897
37.281965101, 96.390, 1780.0, 42.1900
37.308225666, 96.390, 1789.0, 42.2966
37.334486232, 96.390, 1812.0, 42.5676
37.360746797, 96.390, 1776.0, 42.1426
37.387007362, 96.390, 1758.0, 41.9285
37.413267928, 96.390, 1755.0, 41.8927
37.439528493, 96.390, 1688.0, 41.0853
37.465789058, 96.390, 1685.0, 41.0488
37.492049624, 96.390, 1793.0, 42.3438
37.518310189, 96.390, 1809.0, 42.5323
37.544570754, 96.390, 1720.0, 41.4729
37.570831320, 96.390, 1764.0, 42.0000
37.597091885, 96.390, 1756.0, 41.9047
37.623352450, 96.390, 1667.0, 40.8289
37.649613016, 96.390, 1718.0, 41.4488
37.675873581, 96.390, 1718.0, 41.4488
37.702134147, 96.390, 1650.0, 40.6202
37.728394712, 96.390, 1710.0, 41.3521
37.754655277, 96.390, 1737.0, 41.6773
37.780915843, 96.390, 1661.0, 40.7554
37.807176408, 96.390, 1708.0, 41.3280
37.833436973, 96.390, 1725.0, 41.5331
37.859697539, 96.390, 1745.0, 41.7732
37.885958104, 96.390, 1697.0, 41.1947
37.912218669, 96.390, 1691.0, 41.1218
37.938479235, 96.390, 1717.0, 41.4367
37.964739800, 96.390, 1725.0, 41.5331
37.991000365, 96.390, 1642.0, 40.5216
38.017260931, 96.390, 1730.0, 41.5933
38.043521496, 96.390, 1643.0, 40.5339
38.069782061, 96.390, 1647.0, 40.5832
38.096042627, 96.390, 1702.0, 41.2553
38.122303192, 96.390, 1624.0, 40.2989
38.148563758, 96.390, 1664.0, 40.7922
38.174824323, 96.390, 1628.0, 40.3485
38.201084888, 96.390, 1583.0, 39.7869
38.227345454, 96.390, 1628.0, 40.3485
38.253606019, 96.390, 1577.0, 39.7115
38.279866584, 96.390, 1674.0, 40.9145
38.306127150, 96.390, 1624.0, 40.2989
38.332387715, 96.390, 1584.0, 39.7995
38.358648280, 96.390, 1623.0, 40.2865
38.384908846, 96.390, 1595.0, 39.9375
38.411169411, 96.390, 1626.0, 40.3237
38.437429976, 96.390, 1627.0, 40.3361
38.463690542, 96.390, 1624.0, 40.2989
38.489951107, 96.390, 1650.0, 40.6202
38.516211673, 96.390, 1598.0, 39.9750
38.542472238, 96.390, 1573.0, 39.6611
38.568732803, 96.390, 1657.0, 40.7063
38.594993369, 96.390, 1584.0, 39.7995
38.621253934, 96.390, 1587.0, 39.8372
38.647514499, 96.390, 1550.0, 39.3700
38.673775065, 96.390, 1580.0, 39.7492
38.700035630, 96.390, 1515.0, 38.9230
38.726296195, 96.390, 1456.0, 38.1576
38.752556761, 96.390, 1579.0, 39.7366
38.778817326, 96.390, 1596.0, 39.9500
38.805077891, 96.390, 1571.0, 39.6358
38.831338457, 96.390, 1581.0, 39.7618
38.857599022, 96.390, 1541.0, 39.2556
38.883859587, 96.390, 1559.0, 39.4842
38.910120153, 96.390, 1515.0, 38.9230
38.936380718, 96.390, 1583.0, 39.7869
38.962641284, 96.390, 1528.0, 39.0896
38.988901849, 96.390, 1597.0, 39.9625
39.015162414, 96.390, 1467.0, 38.3014
39.041422980, 96.390, 1507.0, 38.8201
39.067683545, 96.390, 1535.0, 39.1791
39.093944110, 96.390, 1528.0, 39.0896
39.120204676, 96.390, 1534.0, 39.1663
39.146465241, 96.390, 1508.0, 38.8330
39.172725806, 96.390, 1498.0, 38.7040
39.198986372, 96.390, 1490.0, 38.6005
39.225246937, 96.390, 1552.0, 39.3954
39.251507502, 96.390, 1519.0, 38.9744
39.277768068, 96.390, 1538.0, 39.2173
39.304028633, 96.390, 1424.0, 37.7359
39.330289199, 96.390, 1449.0, 38.0657
39.356549764, 96.390, 1450.0, 38.0789
39.382810329, 96.390, 1507.0, 38.8201
39.409070895, 96.390, 1524.0, 39.0384
39.435331460, 96.390, 1481.0, 38.4838
39.461592025, 96.390, 1483.0, 38.5097
39.487852591, 96.390, 1481.0, 38.4838
39.514113156, 96.390, 1528.0, 39.0896
39.540373721, 96.390, 1508.0, 38.8330
39.566634287, 96.390, 1455.0, 38.1445
39.592894852, 96.390, 1465.0, 38.2753
39.619155417, 96.390, 1409.0, 37.5366
39.645415983, 96.390, 1477.0, 38.4318
39.671676548, 96.390, 1423.0, 37.7227
39.697937113, 96.390, 1514.0, 38.9102
39.724197679, 96.390, 1456.0, 38.1576
39.750458244, 96.390, 1436.0, 37.8946
39.776718810, 96.390, 1427.0, 37.7757
39.802979375, 96.390, 1490.0, 38.6005
39.829239940, 96.390, 1418.0, 37.6563
39.855500506, 96.390, 1418.0, 37.6563
39.881761071, 96.390, 1360.0, 36.8782
39.908021636, 96.390, 1411.0, 37.5633
39.934282202, 96.390, 1467.0, 38.3014
39.960542767, 96.390, 1434.0, 37.8682
39.986803332, 96.390, 1345.0, 36.6742
40.013063898, 96.390, 1355.0, 36.8103
40.039324463, 96.390, 1392.0, 37.3095
40.065585028, 96.390, 1396.0, 37.3631
40.091845594, 96.390, 1386.0, 37.2290
40.118106159, 96.390, 1399.0, 37.4032
40.144366725, 96.390, 1371.0, 37.0270
40.170627290, 96.390, 1298.0, 36.0278
40.196887855, 96.390, 1436.0, 37.8946
40.223148421, 96.390, 1388.0, 37.2559
40.249408986, 96.390, 1408.0, 37.5233
40.275669551, 96.390, 1366.0, 36.9594
40.301930117, 96.390, 1409.0, 37.5366
40.328190682, 96.390, 1381.0, 37.1618
40.354451247, 96.390, 1392.0, 37.3095
40.380711813, 96.390, 1439.0, 37.9342
40.406972378, 96.390, 1331.0, 36.4829
40.433232943, 96.390, 1375.0, 37.0810
40.459493509, 96.390, 1370.0, 37.0135
40.485754074, 96.390, 1339.0, 36.5923
40.512014639, 96.390, 1342.0, 36.6333
40.538275205, 96.390, 1297.0, 36.0139
40.564535770, 96.390, 1331.0, 36.4829
40.590796336, 96.390, 1361.0, 36.8917
40.617056901, 96.390, 1381.0, 37.1618
40.643317466, 96.390, 1361.0, 36.8917
40.669578032, 96.390, 1373.0, 37.0540
40.695838597, 96.390, 1355.0, 36.8103
40.722099162, 96.390, 1390.0, 37.2827
40.748359728, 96.390, 1351.0, 36.7560
40.774620293, 96.390, 1319.0, 36.3180
40.800880858, 96.390, 1323.0, 36.3731
40.827141424, 96.390, 1329.0, 36.4555
40.853401989, 96.390, 1392.0, 37.3095
40.879662554, 96.390, 1357.0, 36.8375
40.905923120, 96.390, 1310.0, 36.1939
40.932183685, 96.390, 1340.0, 36.6060
40.958444251, 96.390, 1249.0, 35.3412
40.984704816, 96.390, 1442.0, 37.9737
41.010965381, 96.390, 1371.0, 37.0270
41.037225947, 96.390, 1327.0, 36.4280
41.063486512, 96.390, 1304.0, 36.1109
41.089747077, 96.390, 1319.0, 36.3180
41.116007643, 96.390, 1275.0, 35.7071
41.142268208, 96.390, 1296.0, 36.0000
41.168528773, 96.390, 1293.0, 35.9583
41.194789339, 96.390, 1330.0, 36.4692
41.221049904, 96.390, 1340.0, 36.6060
41.247310469, 96.390, 1288.0, 35.8887
41.273571035, 96.390, 1340.0, 36.6060
41.299831600, 96.390, 1276.0, 35.7211
41.326092165, 96.390, 1291.0, 35.9305
41.352352731, 96.390, 1269.0, 35.6230
41.378613296, 96.390, 1337.0, 36.5650
41.404873862, 96.390, 1285.0, 35.8469
41.431134427, 96.390, 1286.0, 35.8608
41.457394992, 96.390, 1260.0, 35.4965
41.483655558, 96.390, 1268.0, 35.6090
41.509916123, 96.390, 1305.0, 36.1248
41.536176688, 96.390, 1280.0, 35.7771
41.562437254, 96.390, 1314.0, 36.2491
41.588697819, 96.390, 1288.0, 35.8887
41.614958384, 96.390, 1255.0, 35.4260
41.641218950, 96.390, 1288.0, 35.8887
41.667479515, 96.390, 1271.0, 35.6511
41.693740080, 96.390, 1315.0, 36.2629
41.720000646, 96.390, 1297.0, 36.0139
41.746261211, 96.390, 1277.0, 35.7351
41.772521776, 96.390, 1326.0, 36.4143
41.798782342, 96.390, 1261.0, 35.5106
41.825042907, 96.390, 1247.0, 35.3129
41.851303473, 96.390, 1299.0, 36.0416
41.877564038, 96.390, 1259.0, 35.4824
41.903824603, 96.390, 1287.0, 35.8748
41.930085169, 96.390, 1303.0, 36.0971
41.956345734, 96.390, 1268.0, 35.6090
41.982606299, 96.390, 1256.0, 35.4401
42.008866865, 96.390, 1251.0, 35.3695
42.035127430, 96.390, 1249.0, 35.3412
42.061387995, 96.390, 1308.0, 36.1663
42.087648561, 96.390, 1265.0, 35.5668
42.113909126, 96.390, 1257.0, 35.4542
42.140169691, 96.390, 1256.0, 35.4401
42.166430257, 96.390, 1289.0, 35.9026
42.192690822, 96.390, 1237.0, 35.1710
42.218951388, 96.390, 1264.0, 35.5528
42.245211953, 96.390, 1315.0, 36.2629
42.271472518, 96.390, 1296.0, 36.0000
42.297733084, 96.390, 1221.0, 34.9428
42.323993649, 96.390, 1296.0, 36.0000
42.350254214, 96.390, 1232.0, 35.0999
42.376514780, 96.390, 1224.0, 34.9857
42.402775345, 96.390, 1290.0, 35.9166
42.429035910, 96.390, 1284.0, 35.8329
42.455296476, 96.390, 1280.0, 35.7771
42.481557041, 96.390, 1263.0, 35.5387
42.507817606, 96.390, 1277.0, 35.7351
42.534078172, 96.390, 1240.0, 35.2136
42.560338737, 96.390, 1253.0, 35.3977
42.586599302, 96.390, 1279.0, 35.7631
42.612859868, 96.390, 1248.0, 35.3270
42.639120433, 96.390, 1274.0, 35.6931
42.665380999, 96.390, 1316.0, 36.2767
42.691641564, 96.390, 1336.0, 36.5513
42.717902129, 96.390, 1225.0, 35.0000
42.744162695, 96.390, 1277.0, 35.7351
42.770423260, 96.390, 1288.0, 35.8887
42.796683825, 96.390, 1238.0, 35.1852
42.822944391, 96.390, 1230.0, 35.0714
42.849204956, 96.390, 1217.0, 34.8855
42.875465521, 96.390, 1286.0, 35.8608
42.901726087, 96.390, 1236.0, 35.1568
42.927986652, 96.390, 1197.0, 34.5977
42.954247217, 96.390, 1255.0, 35.4260
42.980507783, 96.390, 1336.0, 36.5513
43.006768348, 96.390, 1193.0, 34.5398
43.033028914, 96.390, 1261.0, 35.5106
43.059289479, 96.390, 1203.0, 34.6843
43.085550044, 96.390, 1299.0, 36.0416
43.111810610, 96.390, 1224.0, 34.9857
43.138071175, 96.390, 1263.0, 35.5387
43.164331740, 96.390, 1240.0, 35.2136
43.190592306, 96.390, 1287.0, 35.8748
43.216852871, 96.390, 1238.0, 35.1852
43.243113436, 96.390, 1266.0, 35.5809
43.269374002, 96.390, 1218.0, 34.8999
43.295634567, 96.390, 1259.0, 35.4824
43.321895132, 96.390, 1250.0, 35.3553
43.348155698, 96.390, 1251.0, 35.3695
43.374416263, 96.390, 1226.0, 35.0143
43.400676828, 96.390, 1266.0, 35.5809
43.426937394, 96.390, 1174.0, 34.2637
43.453197959, 96.390, 1239.0, 35.1994
43.479458525, 96.390, 1280.0, 35.7771
43.505719090, 96.390, 1241.0, 35.2278
43.531979655, 96.390, 1286.0, 35.8608
43.558240221, 96.390, 1201.0, 34.6554
43.584500786, 96.390, 1201.0, 34.6554
43.610761351, 96.390, 1284.0, 35.8329
43.637021917, 96.390, 1271.0, 35.6511
43.663282482, 96.390, 1198.0, 34.6121
43.689543047, 96.390, 1237.0, 35.1710
43.715803613, 96.390, 1251.0, 35.3695
43.742064178, 96.390, 1236.0, 35.1568
43.768324743, 96.390, 1319.0, 36.3180
43.794585309, 96.390, 1224.0, 34.9857
43.820845874, 96.390, 1278.0, 35.7491
43.847106440, 96.390, 1189.0, 34.4819
43.873367005, 96.390, 1207.0, 34.7419
43.899627570, 96.390, 1260.0, 35.4965
43.925888136, 96.390, 1243.0, 35.2562
43.952148701, 96.390, 1280.0, 35.7771
43.978409266, 96.390, 1237.0, 35.1710
44.004669832, 96.390, 1242.0, 35.2420
44.030930397, 96.390, 1274.0, 35.6931
44.057190962, 96.390, 1238.0, 35.1852
44.083451528, 96.390, 1273.0, 35.6791
44.109712093, 96.390, 1257.0, 35.4542
44.135972658, 96.390, 1269.0, 35.6230
44.162233224, 96.390, 1268.0, 35.6090
44.188493789, 96.390, 1252.0, 35.3836
44.214754354, 96.390, 1225.0, 35.0000
44.241014920, 96.390, 1202.0, 34.6699
44.267275485, 96.390, 1273.0, 35.6791
44.293536051, 96.390, 1265.0, 35.5668
44.319796616, 96.390, 1307.0, 36.1525
44.346057181, 96.390, 1281.0, 35.7911
44.372317747, 96.390, 1275.0, 35.7071
44.398578312, 96.390, 1224.0, 34.9857
44.424838877, 96.390, 1248.0, 35.3270
44.451099443, 96.390, 1226.0, 35.0143
44.477360008, 96.390, 1208.0, 34.7563
44.503620573, 96.390, 1247.0, 35.3129
44.529881139, 96.390, 1301.0, 36.0694
44.556141704, 96.390, 1311.0, 36.2077
44.582402269, 96.390, 1306.0, 36.1386
44.608662835, 96.390, 1218.0, 34.8999
44.634923400, 96.390, 1316.0, 36.2767
44.661183966, 96.390, 1274.0, 35.6931
44.687444531, 96.390, 1218.0, 34.8999
44.713705096, 96.390, 1250.0, 35.3553
44.739965662, 96.390, 1225.0, 35.0000
44.766226227, 96.390, 1250.0, 35.3553
44.792486792, 96.390, 1203.0, 34.6843
44.818747358, 96.390, 1220.0, 34.9285
44.845007923, 96.390, 1207.0, 34.7419
44.871268488, 96.390, 1239.0, 35.1994
44.897529054, 96.390, 1170.0, 34.2053
44.923789619, 96.390, 1224.0, 34.9857
44.950050184, 96.390, 1190.0, 34.4964
44.976310750, 96.390, 1222.0, 34.9571
45.002571315, 96.390, 1312.0, 36.2215
45.028831880, 96.390, 1243.0, 35.2562
45.055092446, 96.390, 1279.0, 35.7631
45.081353011, 96.390, 1262.0, 35.5246
45.107613577, 96.390, 1258.0, 35.4683
45.133874142, 96.390, 1259.0, 35.4824
45.160134707, 96.390, 1309.0, 36.1801
45.186395273, 96.390, 1298.0, 36.0278
45.212655838, 96.390, 1279.0, 35.7631
45.238916403, 96.390, 1264.0, 35.5528
45.265176969, 96.390, 1290.0, 35.9166
45.291437534, 96.390, 1267.0, 35.5949
45.317698099, 96.390, 1257.0, 35.4542
45.343958665, 96.390, 1239.0, 35.1994
45.370219230, 96.390, 1255.0, 35.4260
45.396479795, 96.390, 1276.0, 35.7211
45.422740361, 96.390, 1270.0, 35.6371
45.449000926, 96.390, 1298.0, 36.0278
45.475261492, 96.390, 1258.0, 35.4683
45.501522057, 96.390, 1199.0, 34.6266
45.527782622, 96.390, 1287.0, 35.8748
45.554043188, 96.390, 1249.0, 35.3412
45.580303753, 96.390, 1267.0, 35.5949
45.606564318, 96.390, 1243.0, 35.2562
45.632824884, 96.390, 1307.0, 36.1525
45.659085449, 96.390, 1198.0, 34.6121
45.685346014, 96.390, 1332.0, 36.4966
45.711606580, 96.390, 1197.0, 34.5977
45.737867145, 96.390, 1330.0, 36.4692
45.764127710, 96.390, 1293.0, 35.9583
45.790388276, 96.390, 1331.0, 36.4829
45.816648841, 96.390, 1258.0, 35.4683
45.842909406, 96.390, 1281.0, 35.7911
45.869169972, 96.390, 1231.0, 35.0856
45.895430537, 96.390, 1238.0, 35.1852
45.921691103, 96.390, 1323.0, 36.3731
45.947951668, 96.390, 1266.0, 35.5809
45.974212233, 96.390, 1241.0, 35.2278
46.000472799, 96.390, 1226.0, 35.0143
46.026733364, 96.390, 1201.0, 34.6554
46.052993929, 96.390, 1291.0, 35.9305
46.079254495, 96.390, 1198.0, 34.6121
46.105515060, 96.390, 1225.0, 35.0000
46.131775625, 96.390, 1205.0, 34.7131
46.158036191, 96.390, 1223.0, 34.9714
46.184296756, 96.390, 1305.0, 36.1248
46.210557321, 96.390, 1261.0, 35.5106
46.236817887, 96.390, 1278.0, 35.7491
46.263078452, 96.390, 1335.0, 36.5377
46.289339017, 96.390, 1211.0, 34.7994
46.315599583, 96.390, 1258.0, 35.4683
46.341860148, 96.390, 1254.0, 35.4119
46.368120714, 96.390, 1164.0, 34.1174
46.394381279, 96.390, 1258.0, 35.4683
46.420641844, 96.390, 1199.0, 34.6266
46.446902410, 96.390, 1303.0, 36.0971
46.473162975, 96.390, 1250.0, 35.3553
46.499423540, 96.390, 1211.0, 34.7994
46.525684106, 96.390, 1232.0, 35.0999
46.551944671, 96.390, 1294.0, 35.9722
46.578205236, 96.390, 1256.0, 35.4401
46.604465802, 96.390, 1237.0, 35.1710
46.630726367, 96.390, 1193.0, 34.5398
46.656986932, 96.390, 1262.0, 35.5246
46.683247498, 96.390, 1228.0, 35.0428
46.709508063, 96.390, 1250.0, 35.3553
46.735768629, 96.390, 1227.0, 35.0286
46.762029194, 96.390, 1192.0, 34.5254
46.788289759, 96.390, 1273.0, 35.6791
46.814550325, 96.390, 1221.0, 34.9428
46.840810890, 96.390, 1183.0, 34.3948
46.867071455, 96.390, 1259.0, 35.4824
46.893332021, 96.390, 1209.0, 34.7707
46.919592586, 96.390, 1220.0, 34.9285
46.945853151, 96.390, 1203.0, 34.6843
46.972113717, 96.390, 1215.0, 34.8569
46.998374282, 96.390, 1239.0, 35.1994
47.024634847, 96.390, 1259.0, 35.4824
47.050895413, 96.390, 1178.0, 34.3220
47.077155978, 96.390, 1226.0, 35.0143
47.103416543, 96.390, 1184.0, 34.4093
47.129677109, 96.390, 1137.0, 33.7194
47.155937674, 96.390, 1221.0, 34.9428
47.182198240, 96.390, 1175.0, 34.2783
47.208458805, 96.390, 1164.0, 34.1174
47.234719370, 96.390, 1212.0, 34.8138
47.260979936, 96.390, 1323.0, 36.3731
47.287240501, 96.390, 1149.0, 33.8969
47.313501066, 96.390, 1125.0, 33.5410
47.339761632, 96.390, 1202.0, 34.6699
47.366022197, 96.390, 1210.0, 34.7851
47.392282762, 96.390, 1159.0, 34.0441
47.418543328, 96.390, 1179.0, 34.3366
47.444803893, 96.390, 1140.0, 33.7639
47.471064458, 96.390, 1164.0, 34.1174
47.497325024, 96.390, 1192.0, 34.5254
47.523585589, 96.390, 1145.0, 33.8378
47.549846155, 96.390, 1213.0, 34.8281
47.576106720, 96.390, 1144.0, 33.8231
47.602367285, 96.390, 1247.0, 35.3129
47.628627851, 96.390, 1153.0, 33.9559
47.654888416, 96.390, 1185.0, 34.4238
47.681148981, 96.390, 1161.0, 34.0735
47.707409547, 96.390, 1139.0, 33.7491
47.733670112, 96.390, 1196.0, 34.5832
47.759930677, 96.390, 1197.0, 34.5977
47.786191243, 96.390, 1224.0, 34.9857
47.812451808, 96.390, 1146.0, 33.8526
47.838712373, 96.390, 1153.0, 33.9559
47.864972939, 96.390, 1122.0, 33.4963
47.891233504, 96.390, 1145.0, 33.8378
47.917494069, 96.390, 1155.0, 33.9853
47.943754635, 96.390, 1216.0, 34.8712
47.970015200, 96.390, 1155.0, 33.9853
47.996275766, 96.390, 1088.0, 32.9848
48.022536331, 96.390, 1142.0, 33.7935
48.048796896, 96.390, 1113.0, 33.3617
48.075057462, 96.390, 1120.0, 33.4664
48.101318027, 96.390, 1127.0, 33.5708
48.127578592, 96.390, 1145.0, 33.8378
48.153839158, 96.390, 1143.0, 33.8083
48.180099723, 96.390, 1231.0, 35.0856
48.206360288, 96.390, 1161.0, 34.0735
48.232620854, 96.390, 1125.0, 33.5410
48.258881419, 96.390, 1114.0, 33.3766
48.285141984, 96.390, 1196.0, 34.5832
48.311402550, 96.390, 1143.0, 33.8083
48.337663115, 96.390, 1110.0, 33.3167
48.363923681, 96.390, 1076.0, 32.8024
48.390184246, 96.390, 1116.0, 33.4066
48.416444811, 96.390, 1108.0, 33.2866
48.442705377, 96.390, 1125.0, 33.5410
48.468965942, 96.390, 1139.0, 33.7491
48.495226507, 96.390, 1102.0, 33.1964
48.521487073, 96.390, 1110.0, 33.3167
48.547747638, 96.390, 1116.0, 33.4066
48.574008203, 96.390, 1109.0, 33.3017
48.600268769, 96.390, 1104.0, 33.2265
48.626529334, 96.390, 1175.0, 34.2783
48.652789899, 96.390, 1082.0, 32.8938
48.679050465, 96.390, 1048.0, 32.3728
48.705311030, 96.390, 1064.0, 32.6190
48.731571595, 96.390, 1103.0, 33.2114
48.757832161, 96.390, 1113.0, 33.3617
48.784092726, 96.390, 1065.0, 32.6343
48.810353292, 96.390, 1064.0, 32.6190
48.836613857, 96.390, 1108.0, 33.2866
48.862874422, 96.390, 1078.0, 32.8329
48.889134988, 96.390, 1075.0, 32.7872
48.915395553, 96.390, 1110.0, 33.3167
48.941656118, 96.390, 1092.0, 33.0454
48.967916684, 96.390, 1119.0, 33.4515
48.994177249, 96.390, 1146.0, 33.8526
49.020437814, 96.390, 1070.0, 32.7109
49.046698380, 96.390, 1135.0, 33.6898
49.072958945, 96.390, 1055.0, 32.4808
49.099219510, 96.390, 1087.0, 32.9697
49.125480076, 96.390, 1055.0, 32.4808
49.151740641, 96.390, 1079.0, 32.8481
49.178001207, 96.390, 1101.0, 33.1813
49.204261772, 96.390, 1074.0, 32.7719
49.230522337, 96.390, 1000.0, 31.6228
49.256782903, 96.390, 1032.0, 32.1248
49.283043468, 96.390, 1075.0, 32.7872
49.309304033, 96.390, 1087.0, 32.9697
49.335564599, 96.390, 1088.0, 32.9848
49.361825164, 96.390, 1080.0, 32.8634
49.388085729, 96.390, 1066.0, 32.6497
49.414346295, 96.390, 1018.0, 31.9061
49.440606860, 96.390, 1073.0, 32.7567
49.466867425, 96.390, 1044.0, 32.3110
49.493127991, 96.390, 1056.0, 32.4962
49.519388556, 96.390, 1057.0, 32.5115
49.545649121, 96.390, 1044.0, 32.3110
49.571909687, 96.390, 1028.0, 32.0624
49.598170252, 96.390, 1070.0, 32.7109
49.624430818, 96.390, 997.0, 31.5753
49.650691383, 96.390, 1007.0, 31.7333
49.676951948, 96.390, 1025.0, 32.0156
49.703212514, 96.390, 1030.0, 32.0936
49.729473079, 96.390, 1002.0, 31.6544
49.755733644, 96.390, 1006.0, 31.7175
49.781994210, 96.390, 1013.0, 31.8277
49.808254775, 96.390, 1059.0, 32.5423
49.834515340, 96.390, 1019.0, 31.9218
49.860775906, 96.390, 1027.0, 32.0468
49.887036471, 96.390, 1000.0, 31.6228
49.913297036, 96.390, 1034.0, 32.1559
49.939557602, 96.390, 1031.0, 32.1092
49.965818167, 96.390, 982.0, 31.3369
49.992078732, 96.390, 981.0, 31.3209
50.018339298, 96.390, 1034.0, 32.1559
50.044599863, 96.390, 1029.0, 32.0780
50.070860429, 96.390, 996.0, 31.5595
50.097120994, 96.390, 1013.0, 31.8277
50.123381559, 96.390, 1029.0, 32.0780
50.149642125, 96.390, 1024.0, 32.0000
50.175902690, 96.390, 1074.0, 32.7719
50.202163255, 96.390, 1026.0, 32.0312
50.228423821, 96.390, 1039.0, 32.2335
50.254684386, 96.390, 1050.0, 32.4037
50.280944951, 96.390, 992.0, 31.4960
50.307205517, 96.390, 1083.0, 32.9090
50.333466082, 96.390, 1033.0, 32.1403
50.359726647, 96.390, 1037.0, 32.2025
50.385987213, 96.390, 1043.0, 32.2955
50.412247778, 96.390, 1007.0, 31.7333
50.438508344, 96.390, 985.0, 31.3847
50.464768909, 96.390, 1075.0, 32.7872
50.491029474, 96.390, 997.0, 31.5753
50.517290040, 96.390, 998.0, 31.5911
50.543550605, 96.390, 996.0, 31.5595
50.569811170, 96.390, 1044.0, 32.3110
50.596071736, 96.390, 1021.0, 31.9531
50.622332301, 96.390, 988.0, 31.4325
50.648592866, 96.390, 1029.0, 32.0780
50.674853432, 96.390, 962.0, 31.0161
50.701113997, 96.390, 1020.0, 31.9374
50.727374562, 96.390, 1013.0, 31.8277
50.753635128, 96.390, 989.0, 31.4484
50.779895693, 96.390, 966.0, 31.0805
50.806156258, 96.390, 987.0, 31.4166
50.832416824, 96.390, 970.0, 31.1448
50.858677389, 96.390, 962.0, 31.0161
50.884937955, 96.390, 985.0, 31.3847
50.911198520, 96.390, 979.0, 31.2890
50.937459085, 96.390, 986.0, 31.4006
50.963719651, 96.390, 948.0, 30.7896
50.989980216, 96.390, 1007.0, 31.7333
51.016240781, 96.390, 1011.0, 31.7962
51.042501347, 96.390, 1050.0, 32.4037
51.068761912, 96.390, 957.0, 30.9354
51.095022477, 96.390, 988.0, 31.4325
51.121283043, 96.390, 905.0, 30.0832
51.147543608, 96.390, 984.0, 31.3688
51.173804173, 96.390, 951.0, 30.8383
51.200064739, 96.390, 985.0, 31.3847
51.226325304, 96.390, 982.0, 31.3369
51.252585870, 96.390, 961.0, 31.0000
51.278846435, 96.390, 944.0, 30.7246
51.305107000, 96.390, 1012.0, 31.8119
51.331367566, 96.390, 961.0, 31.0000
51.357628131, 96.390, 983.0, 31.3528
51.383888696, 96.390, 1040.0, 32.2490
51.410149262, 96.390, 945.0, 30.7409
51.436409827, 96.390, 991.0, 31.4802
51.462670392, 96.390, 944.0, 30.7246
51.488930958, 96.390, 918.0, 30.2985
51.515191523, 96.390, 907.0, 30.1164
51.541452088, 96.390, 967.0, 31.0966
51.567712654, 96.390, 919.0, 30.3150
51.593973219, 96.390, 942.0, 30.6920
51.620233784, 96.390, 956.0, 30.9192
51.646494350, 96.390, 930.0, 30.4959
51.672754915, 96.390, 997.0, 31.5753
51.699015481, 96.390, 967.0, 31.0966
51.725276046, 96.390, 909.0, 30.1496
51.751536611, 96.390, 971.0, 31.1609
51.777797177, 96.390, 928.0, 30.4631
51.804057742, 96.390, 864.0, 29.3939
51.830318307, 96.390, 911.0, 30.1828
51.856578873, 96.390, 937.0, 30.6105
51.882839438, 96.390, 924.0, 30.3974
51.909100003, 96.390, 943.0, 30.7083
51.935360569, 96.390, 923.0, 30.3809
51.961621134, 96.390, 939.0, 30.6431
51.987881699, 96.390, 976.0, 31.2410
52.014142265, 96.390, 934.0, 30.5614
52.040402830, 96.390, 896.0, 29.9333
52.066663396, 96.390, 970.0, 31.1448
52.092923961, 96.390, 941.0, 30.6757
52.119184526, 96.390, 963.0, 31.0322
52.145445092, 96.390, 961.0, 31.0000
52.171705657, 96.390, 922.0, 30.3645
52.197966222, 96.390, 906.0, 30.0998
52.224226788, 96.390, 962.0, 31.0161
52.250487353, 96.390, 897.0, 29.9500
52.276747918, 96.390, 933.0, 30.5450
52.303008484, 96.390, 849.0, 29.1376
52.329269049, 96.390, 918.0, 30.2985
52.355529614, 96.390, 926.0, 30.4302
52.381790180, 96.390, 940.0, 30.6594
52.408050745, 96.390, 878.0, 29.6311
52.434311310, 96.390, 938.0, 30.6268
52.460571876, 96.390, 935.0, 30.5778
52.486832441, 96.390, 924.0, 30.3974
52.513093007, 96.390, 899.0, 29.9833
52.539353572, 96.390, 885.0, 29.7489
52.565614137, 96.390, 925.0, 30.4138
52.591874703, 96.390, 970.0, 31.1448
52.618135268, 96.390, 914.0, 30.2324
52.644395833, 96.390, 923.0, 30.3809
52.670656399, 96.390, 921.0, 30.3480
52.696916964, 96.390, 947.0, 30.7734
52.723177529, 96.390, 919.0, 30.3150
52.749438095, 96.390, 946.0, 30.7571
52.775698660, 96.390, 944.0, 30.7246
52.801959225, 96.390, 874.0, 29.5635
52.828219791, 96.390, 941.0, 30.6757
52.854480356, 96.390, 899.0, 29.9833
52.880740922, 96.390, 898.0, 29.9666
52.907001487, 96.390, 948.0, 30.7896
52.933262052, 96.390, 855.0, 29.2404
52.959522618, 96.390, 885.0, 29.7489
52.985783183, 96.390, 907.0, 30.1164
53.012043748, 96.390, 920.0, 30.3315
53.038304314, 96.390, 937.0, 30.6105
53.064564879, 96.390, 923.0, 30.3809
53.090825444, 96.390, 925.0, 30.4138
53.117086010, 96.390, 893.0, 29.8831
53.143346575, 96.390, 883.0, 29.7153
53.169607140, 96.390, 899.0, 29.9833
53.195867706, 96.390, 881.0, 29.6816
53.222128271, 96.390, 904.0, 30.0666
53.248388836, 96.390, 888.0, 29.7993
53.274649402, 96.390, 918.0, 30.2985
53.300909967, 96.390, 857.0, 29.2746
53.327170533, 96.390, 937.0, 30.6105
53.353431098, 96.390, 942.0, 30.6920
53.379691663, 96.390, 895.0, 29.9166
53.405952229, 96.390, 894.0, 29.8998
53.432212794, 96.390, 910.0, 30.1662
53.458473359, 96.390, 903.0, 30.0500
53.484733925, 96.390, 850.0, 29.1548
53.510994490, 96.390, 856.0, 29.2575
53.537255055, 96.390, 906.0, 30.0998
53.563515621, 96.390, 910.0, 30.1662
53.589776186, 96.390, 878.0, 29.6311
53.616036751, 96.390, 876.0, 29.5973
53.642297317, 96.390, 879.0, 29.6479
53.668557882, 96.390, 907.0, 30.1164
53.694818448, 96.390, 894.0, 29.8998
53.721079013, 96.390, 901.0, 30.0167
53.747339578, 96.390, 901.0, 30.0167
53.773600144, 96.390, 914.0, 30.2324
53.799860709, 96.390, 814.0, 28.5307
53.826121274, 96.390, 849.0, 29.1376
53.852381840, 96.390, 859.0, 29.3087
53.878642405, 96.390, 929.0, 30.4795
53.904902970, 96.390, 922.0, 30.3645
53.931163536, 96.390, 893.0, 29.8831
53.957424101, 96.390, 885.0, 29.7489
53.983684666, 96.390, 850.0, 29.1548
54.009945232, 96.390, 912.0, 30.1993
54.036205797, 96.390, 896.0, 29.9333
54.062466362, 96.390, 887.0, 29.7825
54.088726928, 96.390, 825.0, 28.7228
54.114987493, 96.390, 862.0, 29.3598
54.141248059, 96.390, 874.0, 29.5635
54.167508624, 96.390, 904.0, 30.0666
54.193769189, 96.390, 893.0, 29.8831
54.220029755, 96.390, 881.0, 29.6816
54.246290320, 96.390, 871.0, 29.5127
54.272550885, 96.390, 875.0, 29.5804
54.298811451, 96.390, 909.0, 30.1496
54.325072016, 96.390, 857.0, 29.2746
54.351332581, 96.390, 923.0, 30.3809
54.377593147, 96.390, 906.0, 30.0998
54.403853712, 96.390, 912.0, 30.1993
54.430114277, 96.390, 877.0, 29.6142
54.456374843, 96.390, 839.0, 28.9655
54.482635408, 96.390, 864.0, 29.3939
54.508895973, 96.390, 877.0, 29.6142
54.535156539, 96.390, 855.0, 29.2404
54.561417104, 96.390, 867.0, 29.4449
54.587677670, 96.390, 858.0, 29.2916
54.613938235, 96.390, 892.0, 29.8664
54.640198800, 96.390, 849.0, 29.1376
54.666459366, 96.390, 918.0, 30.2985
54.692719931, 96.390, 863.0, 29.3769
54.718980496, 96.390, 845.0, 29.0689
54.745241062, 96.390, 932.0, 30.5287
54.771501627, 96.390, 855.0, 29.2404
54.797762192, 96.390, 826.0, 28.7402
54.824022758, 96.390, 874.0, 29.5635
54.850283323, 96.390, 870.0, 29.4958
54.876543888, 96.390, 891.0, 29.8496
54.902804454, 96.390, 861.0, 29.3428
54.929065019, 96.390, 818.0, 28.6007
54.955325585, 96.390, 836.0, 28.9137
54.981586150, 96.390, 864.0, 29.3939
55.007846715, 96.390, 814.0, 28.5307
55.034107281, 96.390, 889.0, 29.8161
55.060367846, 96.390, 850.0, 29.1548
55.086628411, 96.390, 868.0, 29.4618
55.112888977, 96.390, 807.0, 28.4077
55.139149542, 96.390, 875.0, 29.5804
55.165410107, 96.390, 812.0, 28.4956
55.191670673, 96.390, 828.0, 28.7750
55.217931238, 96.390, 845.0, 29.0689
55.244191803, 96.390, 843.0, 29.0345
55.270452369, 96.390, 882.0, 29.6985
55.296712934, 96.390, 853.0, 29.2062
55.322973499, 96.390, 888.0, 29.7993
55.349234065, 96.390, 833.0, 28.8617
55.375494630, 96.390, 861.0, 29.3428
55.401755196, 96.390, 801.0, 28.3019
55.428015761, 96.390, 832.0, 28.8444
55.454276326, 96.390, 830.0, 28.8097
55.480536892, 96.390, 888.0, 29.7993
55.506797457, 96.390, 827.0, 28.7576
55.533058022, 96.390, 790.0, 28.1069
55.559318588, 96.390, 877.0, 29.6142
55.585579153, 96.390, 825.0, 28.7228
55.611839718, 96.390, 837.0, 28.9310
55.638100284, 96.390, 898.0, 29.9666
55.664360849, 96.390, 822.0, 28.6705
55.690621414, 96.390, 860.0, 29.3258
55.716881980, 96.390, 781.0, 27.9464
55.743142545, 96.390, 845.0, 29.0689
55.769403111, 96.390, 857.0, 29.2746
55.795663676, 96.390, 843.0, 29.0345
55.821924241, 96.390, 880.0, 29.6648
55.848184807, 96.390, 812.0, 28.4956
55.874445372, 96.390, 891.0, 29.8496
55.900705937, 96.390, 801.0, 28.3019
55.926966503, 96.390, 839.0, 28.9655
55.953227068, 96.390, 861.0, 29.3428
55.979487633, 96.390, 880.0, 29.6648
56.005748199, 96.390, 845.0, 29.0689
56.032008764, 96.390, 869.0, 29.4788
56.058269329, 96.390, 788.0, 28.0713
56.084529895, 96.390, 783.0, 27.9821
56.110790460, 96.390, 812.0, 28.4956
56.137051025, 96.390, 845.0, 29.0689
56.163311591, 96.390, 832.0, 28.8444
56.189572156, 96.390, 831.0, 28.8271
56.215832722, 96.390, 870.0, 29.4958
56.242093287, 96.390, 824.0, 28.7054
56.268353852, 96.390, 813.0, 28.5132
56.294614418, 96.390, 803.0, 28.3373
56.320874983, 96.390, 847.0, 29.1033
56.347135548, 96.390, 833.0, 28.8617
56.373396114, 96.390, 784.0, 28.0000
56.399656679, 96.390, 817.0, 28.5832
56.425917244, 96.390, 852.0, 29.1890
56.452177810, 96.390, 803.0, 28.3373
56.478438375, 96.390, 839.0, 28.9655
56.504698940, 96.390, 862.0, 29.3598
56.530959506, 96.390, 840.0, 28.9828
56.557220071, 96.390, 846.0, 29.0861
56.583480637, 96.390, 852.0, 29.1890
56.609741202, 96.390, 872.0, 29.5296
56.636001767, 96.390, 817.0, 28.5832
56.662262333, 96.390, 772.0, 27.7849
56.688522898, 96.390, 812.0, 28.4956
56.714783463, 96.390, 894.0, 29.8998
56.741044029, 96.390, 827.0, 28.7576
56.767304594, 96.390, 831.0, 28.8271
56.793565159, 96.390, 858.0, 29.2916
56.819825725, 96.390, 828.0, 28.7750
56.846086290, 96.390, 815.0, 28.5482
56.872346855, 96.390, 805.0, 28.3725
56.898607421, 96.390, 810.0, 28.4605
56.924867986, 96.390, 858.0, 29.2916
56.951128551, 96.390, 829.0, 28.7924
56.977389117, 96.390, 853.0, 29.2062
57.003649682, 96.390, 884.0, 29.7321
57.029910248, 96.390, 798.0, 28.2489
57.056170813, 96.390, 775.0, 27.8388
57.082431378, 96.390, 817.0, 28.5832
57.108691944, 96.390, 833.0, 28.8617
57.134952509, 96.390, 833.0, 28.8617
57.161213074, 96.390, 748.0, 27.3496
57.187473640, 96.390, 787.0, 28.0535
57.213734205, 96.390, 815.0, 28.5482
57.239994770, 96.390, 828.0, 28.7750
57.266255336, 96.390, 758.0, 27.5318
57.292515901, 96.390, 790.0, 28.1069
57.318776466, 96.390, 821.0, 28.6531
57.345037032, 96.390, 818.0, 28.6007
57.371297597, 96.390, 850.0, 29.1548
57.397558163, 96.390, 783.0, 27.9821
57.423818728, 96.390, 851.0, 29.1719
57.450079293, 96.390, 812.0, 28.4956
57.476339859, 96.390, 816.0, 28.5657
57.502600424, 96.390, 862.0, 29.3598
57.528860989, 96.390, 848.0, 29.1204
57.555121555, 96.390, 778.0, 27.8927
57.581382120, 96.390, 835.0, 28.8964
57.607642685, 96.390, 819.0, 28.6182
57.633903251, 96.390, 762.0, 27.6043
57.660163816, 96.390, 805.0, 28.3725
57.686424381, 96.390, 784.0, 28.0000
57.712684947, 96.390, 845.0, 29.0689
57.738945512, 96.390, 840.0, 28.9828
57.765206077, 96.390, 788.0, 28.0713
57.791466643, 96.390, 826.0, 28.7402
57.817727208, 96.390, 812.0, 28.4956
57.843987774, 96.390, 802.0, 28.3196
57.870248339, 96.390, 847.0, 29.1033
57.896508904, 96.390, 789.0, 28.0891
57.922769470, 96.390, 811.0, 28.4781
57.949030035, 96.390, 831.0, 28.8271
57.975290600, 96.390, 864.0, 29.3939
58.001551166, 96.390, 792.0, 28.1425
58.027811731, 96.390, 835.0, 28.8964
58.054072296, 96.390, 803.0, 28.3373
58.080332862, 96.390, 801.0, 28.3019
58.106593427, 96.390, 859.0, 29.3087
58.132853992, 96.390, 822.0, 28.6705
58.159114558, 96.390, 830.0, 28.8097
58.185375123, 96.390, 794.0, 28.1780
58.211635689, 96.390, 842.0, 29.0172
58.237896254, 96.390, 788.0, 28.0713
58.264156819, 96.390, 839.0, 28.9655
58.290417385, 96.390, 794.0, 28.1780
58.316677950, 96.390, 786.0, 28.0357
58.342938515, 96.390, 839.0, 28.9655
58.369199081, 96.390, 816.0, 28.5657
58.395459646, 96.390, 771.0, 27.7669
58.421720211, 96.390, 818.0, 28.6007
58.447980777, 96.390, 835.0, 28.8964
58.474241342, 96.390, 816.0, 28.5657
58.500501907, 96.390, 826.0, 28.7402
58.526762473, 96.390, 814.0, 28.5307
58.553023038, 96.390, 800.0, 28.2843
58.579283603, 96.390, 805.0, 28.3725
58.605544169, 96.390, 788.0, 28.0713
58.631804734, 96.390, 840.0, 28.9828
58.658065300, 96.390, 783.0, 27.9821
58.684325865, 96.390, 833.0, 28.8617
58.710586430, 96.390, 787.0, 28.0535
58.736846996, 96.390, 763.0, 27.6225
58.763107561, 96.390, 854.0, 29.2233
58.789368126, 96.390, 775.0, 27.8388
58.815628692, 96.390, 852.0, 29.1890
58.841889257, 96.390, 795.0, 28.1957
58.868149822, 96.390, 811.0, 28.4781
58.894410388, 96.390, 809.0, 28.4429
58.920670953, 96.390, 825.0, 28.7228
58.946931518, 96.390, 798.0, 28.2489
58.973192084, 96.390, 782.0, 27.9643
58.999452649, 96.390, 808.0, 28.4253
59.025713214, 96.390, 837.0, 28.9310
59.051973780, 96.390, 849.0, 29.1376
59.078234345, 96.390, 809.0, 28.4429
59.104494911, 96.390, 784.0, 28.0000
59.130755476, 96.390, 836.0, 28.9137
59.157016041, 96.390, 833.0, 28.8617
59.183276607, 96.390, 823.0, 28.6880
59.209537172, 96.390, 782.0, 27.9643
59.235797737, 96.390, 748.0, 27.3496
59.262058303, 96.390, 802.0, 28.3196
59.288318868, 96.390, 865.0, 29.4109
59.314579433, 96.390, 806.0, 28.3901
59.340839999, 96.390, 848.0, 29.1204
59.367100564, 96.390, 811.0, 28.4781
59.393361129, 96.390, 770.0, 27.7489
59.419621695, 96.390, 846.0, 29.0861
59.445882260, 96.390, 828.0, 28.7750
59.472142826, 96.390, 825.0, 28.7228
59.498403391, 96.390, 840.0, 28.9828
59.524663956, 96.390, 849.0, 29.1376
59.550924522, 96.390, 837.0, 28.9310
59.577185087, 96.390, 805.0, 28.3725
59.603445652, 96.390, 891.0, 29.8496
59.629706218, 96.390, 805.0, 28.3725
59.655966783, 96.390, 816.0, 28.5657
59.682227348, 96.390, 823.0, 28.6880
59.708487914, 96.390, 786.0, 28.0357
59.734748479, 96.390, 878.0, 29.6311
59.761009044, 96.390, 864.0, 29.3939
59.787269610, 96.390, 851.0, 29.1719
59.813530175, 96.390, 838.0, 28.9482
59.839790740, 96.390, 881.0, 29.6816
59.866051306, 96.390, 821.0, 28.6531
59.892311871, 96.390, 857.0, 29.2746
59.918572437, 96.390, 843.0, 29.0345
59.944833002, 96.390, 852.0, 29.1890
59.971093567, 96.390, 886.0, 29.7658
59.997354133, 96.390, 833.0, 28.8617
60.023614698, 96.390, 845.0, 29.0689
60.049875263, 96.390, 880.0, 29.6648
60.076135829, 96.390, 846.0, 29.0861
60.102396394, 96.390, 873.0, 29.5466
60.128656959, 96.390, 888.0, 29.7993
60.154917525, 96.390, 899.0, 29.9833
60.181178090, 96.390, 881.0, 29.6816
60.207438655, 96.390, 866.0, 29.4279
60.233699221, 96.390, 861.0, 29.3428
60.259959786, 96.390, 873.0, 29.5466
60.286220352, 96.390, 908.0, 30.1330
60.312480917, 96.390, 925.0, 30.4138
60.338741482, 96.390, 912.0, 30.1993
60.365002048, 96.390, 965.0, 31.0644
60.391262613, 96.390, 928.0, 30.4631
60.417523178, 96.390, 969.0, 31.1288
60.443783744, 96.390, 929.0, 30.4795
60.470044309, 96.390, 978.0, 31.2730
60.496304874, 96.390, 974.0, 31.2090
60.522565440, 96.390, 939.0, 30.6431
60.548826005, 96.390, 934.0, 30.5614
60.575086570, 96.390, 953.0, 30.8707
60.601347136, 96.390, 896.0, 29.9333
60.627607701, 96.390, 959.0, 30.9677
60.653868266, 96.390, 983.0, 31.3528
60.680128832, 96.390, 919.0, 30.3150
60.706389397, 96.390, 1012.0, 31.8119
60.732649963, 96.390, 965.0, 31.0644
60.758910528, 96.390, 994.0, 31.5278
60.785171093, 96.390, 1049.0, 32.3883
60.811431659, 96.390, 1018.0, 31.9061
60.837692224, 96.390, 992.0, 31.4960
60.863952789, 96.390, 991.0, 31.4802
60.890213355, 96.390, 972.0, 31.1769
60.916473920, 96.390, 1046.0, 32.3419
60.942734485, 96.390, 1001.0, 31.6386
60.968995051, 96.390, 1065.0, 32.6343
60.995255616, 96.390, 1098.0, 33.1361
61.021516181, 96.390, 1060.0, 32.5576
61.047776747, 96.390, 1045.0, 32.3265
61.074037312, 96.390, 1037.0, 32.2025
61.100297878, 96.390, 984.0, 31.3688
61.126558443, 96.390, 1046.0, 32.3419
61.152819008, 96.390, 1058.0, 32.5269
61.179079574, 96.390, 1049.0, 32.3883
61.205340139, 96.390, 1127.0, 33.5708
61.231600704, 96.390, 1053.0, 32.4500
61.257861270, 96.390, 1025.0, 32.0156
61.284121835, 96.390, 1043.0, 32.2955
61.310382400, 96.390, 1132.0, 33.6452
61.336642966, 96.390, 1059.0, 32.5423
61.362903531, 96.390, 1112.0, 33.3467
61.389164096, 96.390, 1087.0, 32.9697
61.415424662, 96.390, 1089.0, 33.0000
61.441685227, 96.390, 1058.0, 32.5269
61.467945792, 96.390, 1096.0, 33.1059
61.494206358, 96.390, 1062.0, 32.5883
61.520466923, 96.390, 1066.0, 32.6497
61.546727489, 96.390, 1098.0, 33.1361
61.572988054, 96.390, 1022.0, 31.9687
61.599248619, 96.390, 1087.0, 32.9697
61.625509185, 96.390, 1059.0, 32.5423
61.651769750, 96.390, 1098.0, 33.1361
61.678030315, 96.390, 1107.0, 33.2716
61.704290881, 96.390, 1036.0, 32.1870
61.730551446, 96.390, 1068.0, 32.6803
61.756812011, 96.390, 1031.0, 32.1092
61.783072577, 96.390, 981.0, 31.3209
61.809333142, 96.390, 1071.0, 32.7261
61.835593707, 96.390, 1075.0, 32.7872
61.861854273, 96.390, 1005.0, 31.7017
61.888114838, 96.390, 1024.0, 32.0000
61.914375404, 96.390, 1105.0, 33.2415
61.940635969, 96.390, 1018.0, 31.9061
61.966896534, 96.390, 1008.0, 31.7490
61.993157100, 96.390, 1044.0, 32.3110
62.019417665, 96.390, 1021.0, 31.9531
62.045678230, 96.390, 1006.0, 31.7175
62.071938796, 96.390, 1043.0, 32.2955
62.098199361, 96.390, 983.0, 31.3528
62.124459926, 96.390, 988.0, 31.4325
62.150720492, 96.390, 1022.0, 31.9687
62.176981057, 96.390, 1056.0, 32.4962
62.203241622, 96.390, 995.0, 31.5436
62.229502188, 96.390, 1021.0, 31.9531
62.255762753, 96.390, 989.0, 31.4484
62.282023318, 96.390, 1026.0, 32.0312
62.308283884, 96.390, 949.0, 30.8058
62.334544449, 96.390, 1030.0, 32.0936
62.360805015, 96.390, 951.0, 30.8383
62.387065580, 96.390, 1031.0, 32.1092
62.413326145, 96.390, 991.0, 31.4802
62.439586711, 96.390, 940.0, 30.6594
62.465847276, 96.390, 958.0, 30.9516
62.492107841, 96.390, 934.0, 30.5614
62.518368407, 96.390, 997.0, 31.5753
62.544628972, 96.390, 930.0, 30.4959
62.570889537, 96.390, 1002.0, 31.6544
62.597150103, 96.390, 947.0, 30.7734
62.623410668, 96.390, 917.0, 30.2820
62.649671233, 96.390, 959.0, 30.9677
62.675931799, 96.390, 930.0, 30.4959
62.702192364, 96.390, 909.0, 30.1496
62.728452930, 96.390, 920.0, 30.3315
62.754713495, 96.390, 898.0, 29.9666
62.780974060, 96.390, 886.0, 29.7658
62.807234626, 96.390, 843.0, 29.0345
62.833495191, 96.390, 951.0, 30.8383
62.859755756, 96.390, 856.0, 29.2575
62.886016322, 96.390, 905.0, 30.0832
62.912276887, 96.390, 864.0, 29.3939
62.938537452, 96.390, 834.0, 28.8791
62.964798018, 96.390, 876.0, 29.5973
62.991058583, 96.390, 858.0, 29.2916
63.017319148, 96.390, 858.0, 29.2916
63.043579714, 96.390, 869.0, 29.4788
63.069840279, 96.390, 852.0, 29.1890
63.096100844, 96.390, 862.0, 29.3598
63.122361410, 96.390, 886.0, 29.7658
63.148621975, 96.390, 844.0, 29.0517
63.174882541, 96.390, 877.0, 29.6142
63.201143106, 96.390, 916.0, 30.2655
63.227403671, 96.390, 869.0, 29.4788
63.253664237, 96.390, 894.0, 29.8998
63.279924802, 96.390, 831.0, 28.8271
63.306185367, 96.390, 875.0, 29.5804
63.332445933, 96.390, 798.0, 28.2489
63.358706498, 96.390, 817.0, 28.5832
63.384967063, 96.390, 818.0, 28.6007
63.411227629, 96.390, 873.0, 29.5466
63.437488194, 96.390, 820.0, 28.6356
63.463748759, 96.390, 863.0, 29.3769
63.490009325, 96.390, 803.0, 28.3373
63.516269890, 96.390, 845.0, 29.0689
63.542530455, 96.390, 840.0, 28.9828
63.568791021, 96.390, 781.0, 27.9464
63.595051586, 96.390, 833.0, 28.8617
63.621312152, 96.390, 780.0, 27.9285
63.647572717, 96.390, 775.0, 27.8388
63.673833282, 96.390, 797.0, 28.2312
63.700093848, 96.390, 789.0, 28.0891
63.726354413, 96.390, 777.0, 27.8747
63.752614978, 96.390, 827.0, 28.7576
63.778875544, 96.390, 819.0, 28.6182
63.805136109, 96.390, 752.0, 27.4226
63.831396674, 96.390, 831.0, 28.8271
63.857657240, 96.390, 747.0, 27.3313
63.883917805, 96.390, 741.0, 27.2213
63.910178370, 96.390, 775.0, 27.8388
63.936438936, 96.390, 766.0, 27.6767
63.962699501, 96.390, 792.0, 28.1425
63.988960067, 96.390, 793.0, 28.1603
64.015220632, 96.390, 811.0, 28.4781
64.041481197, 96.390, 786.0, 28.0357
64.067741763, 96.390, 800.0, 28.2843
64.094002328, 96.390, 765.0, 27.6586
64.120262893, 96.390, 784.0, 28.0000
64.146523459, 96.390, 760.0, 27.5681
64.172784024, 96.390, 738.0, 27.1662
64.199044589, 96.390, 769.0, 27.7308
64.225305155, 96.390, 792.0, 28.1425
64.251565720, 96.390, 731.0, 27.0370
64.277826285, 96.390, 741.0, 27.2213
64.304086851, 96.390, 726.0, 26.9444
64.330347416, 96.390, 770.0, 27.7489
64.356607981, 96.390, 752.0, 27.4226
64.382868547, 96.390, 760.0, 27.5681
64.409129112, 96.390, 774.0, 27.8209
64.435389678, 96.390, 734.0, 27.0924
64.461650243, 96.390, 762.0, 27.6043
64.487910808, 96.390, 705.0, 26.5518
64.514171374, 96.390, 719.0, 26.8142
64.540431939, 96.390, 725.0, 26.9258
64.566692504, 96.390, 737.0, 27.1477
64.592953070, 96.390, 726.0, 26.9444
64.619213635, 96.390, 725.0, 26.9258
64.645474200, 96.390, 831.0, 28.8271
64.671734766, 96.390, 744.0, 27.2764
64.697995331, 96.390, 747.0, 27.3313
64.724255896, 96.390, 801.0, 28.3019
64.750516462, 96.390, 714.0, 26.7208
64.776777027, 96.390, 740.0, 27.2029
64.803037593, 96.390, 782.0, 27.9643
64.829298158, 96.390, 741.0, 27.2213
64.855558723, 96.390, 752.0, 27.4226
64.881819289, 96.390, 729.0, 27.0000
64.908079854, 96.390, 738.0, 27.1662
64.934340419, 96.390, 765.0, 27.6586
64.960600985, 96.390, 704.0, 26.5330
64.986861550, 96.390, 748.0, 27.3496
