[Measurement conditions]
Sample identification,XRD_MgAxial24Jan22_Act21Feb22_B2_0362M_NaOH_LS0149_1
Comment - 1,"Configuration=Stage for Flat Samples/Holders, Owner=User-1, Creation date=7/1/2020 9:53:24 AM"
Comment - 2,"Goniometer=Theta/Theta; Minimum step size 2Theta:0.0001; Minimum step size Omega:0.0001"
Comment - 3,"Sample stage=Stage for flat samples/holders"
Comment - 4,"Diffractometer system=EMPYREAN"
Comment - 5,"Measurement program=C:\Users\ibo5034\OneDrive - The Pennsylvania State University\NEUP - Reed, Titus's files\XRD\Cement\Zerobackground scan.xrdmp, Identifier={98A3B11C-88F9-4AA6-982C-73314A311EF5}"
Anode material,Cu
K-Alpha1 wavelength,1.5405980
K-Alpha2 wavelength,1.5444260
Ratio K-Alpha2/K-Alpha1,0.500
Divergence slit,Fixed,0.25
Monochromator used,NO
Generator voltage, 45
Tube current, 40
File date and time,24/Feb/2022 13:10
Unit cell,
h k l, 0 0 0
Scan axis,Gonio
Scan range,4.994599997,64.999991833
Scan step size,0.0262606
No. of points, 2285
Scan type,CONTINUOUS
Time per step,96.390
[Scan points]
Angle, TimePerStep, Intensity, ESD
5.007730280, 96.390, 5314.0, 72.8972
5.033990845, 96.390, 5410.0, 73.5527
5.060251411, 96.390, 5247.0, 72.4362
5.086511976, 96.390, 5250.0, 72.4569
5.112772541, 96.390, 5299.0, 72.7942
5.139033107, 96.390, 5277.0, 72.6430
5.165293672, 96.390, 5026.0, 70.8943
5.191554237, 96.390, 5362.0, 73.2257
5.217814803, 96.390, 5149.0, 71.7565
5.244075368, 96.390, 5130.0, 71.6240
5.270335934, 96.390, 4958.0, 70.4131
5.296596499, 96.390, 4920.0, 70.1427
5.322857064, 96.390, 4973.0, 70.5195
5.349117630, 96.390, 4955.0, 70.3918
5.375378195, 96.390, 4964.0, 70.4557
5.401638760, 96.390, 4895.0, 69.9643
5.427899326, 96.390, 4941.0, 70.2922
5.454159891, 96.390, 4967.0, 70.4769
5.480420456, 96.390, 5038.0, 70.9789
5.506681022, 96.390, 4845.0, 69.6060
5.532941587, 96.390, 4929.0, 70.2068
5.559202152, 96.390, 4806.0, 69.3253
5.585462718, 96.390, 4737.0, 68.8259
5.611723283, 96.390, 4686.0, 68.4544
5.637983849, 96.390, 4759.0, 68.9855
5.664244414, 96.390, 4824.0, 69.4550
5.690504979, 96.390, 4807.0, 69.3325
5.716765545, 96.390, 4861.0, 69.7209
5.743026110, 96.390, 4724.0, 68.7314
5.769286675, 96.390, 4644.0, 68.1469
5.795547241, 96.390, 4651.0, 68.1982
5.821807806, 96.390, 4675.0, 68.3740
5.848068371, 96.390, 4769.0, 69.0579
5.874328937, 96.390, 4599.0, 67.8159
5.900589502, 96.390, 4693.0, 68.5055
5.926850067, 96.390, 4606.0, 67.8675
5.953110633, 96.390, 4666.0, 68.3081
5.979371198, 96.390, 4537.0, 67.3573
6.005631763, 96.390, 4705.0, 68.5930
6.031892329, 96.390, 4566.0, 67.5722
6.058152894, 96.390, 4735.0, 68.8113
6.084413460, 96.390, 4525.0, 67.2681
6.110674025, 96.390, 4713.0, 68.6513
6.136934590, 96.390, 4595.0, 67.7864
6.163195156, 96.390, 4373.0, 66.1287
6.189455721, 96.390, 4589.0, 67.7422
6.215716286, 96.390, 4653.0, 68.2129
6.241976852, 96.390, 4452.0, 66.7233
6.268237417, 96.390, 4693.0, 68.5055
6.294497982, 96.390, 4603.0, 67.8454
6.320758548, 96.390, 4558.0, 67.5130
6.347019113, 96.390, 4454.0, 66.7383
6.373279678, 96.390, 4572.0, 67.6166
6.399540244, 96.390, 4460.0, 66.7832
6.425800809, 96.390, 4488.0, 66.9925
6.452061375, 96.390, 4594.0, 67.7791
6.478321940, 96.390, 4528.0, 67.2904
6.504582505, 96.390, 4477.0, 66.9104
6.530843071, 96.390, 4352.0, 65.9697
6.557103636, 96.390, 4387.0, 66.2344
6.583364201, 96.390, 4309.0, 65.6430
6.609624767, 96.390, 4369.0, 66.0984
6.635885332, 96.390, 4287.0, 65.4752
6.662145897, 96.390, 4266.0, 65.3146
6.688406463, 96.390, 4268.0, 65.3299
6.714667028, 96.390, 4216.0, 64.9307
6.740927593, 96.390, 4357.0, 66.0076
6.767188159, 96.390, 4257.0, 65.2457
6.793448724, 96.390, 4408.0, 66.3928
6.819709289, 96.390, 4333.0, 65.8255
6.845969855, 96.390, 4279.0, 65.4141
6.872230420, 96.390, 4234.0, 65.0692
6.898490986, 96.390, 4256.0, 65.2380
6.924751551, 96.390, 4294.0, 65.5286
6.951012116, 96.390, 4339.0, 65.8711
6.977272682, 96.390, 4302.0, 65.5896
7.003533247, 96.390, 4219.0, 64.9538
7.029793812, 96.390, 4254.0, 65.2227
7.056054378, 96.390, 4262.0, 65.2840
7.082314943, 96.390, 4272.0, 65.3605
7.108575508, 96.390, 4313.0, 65.6734
7.134836074, 96.390, 4304.0, 65.6049
7.161096639, 96.390, 4275.0, 65.3835
7.187357204, 96.390, 4123.0, 64.2106
7.213617770, 96.390, 4218.0, 64.9461
7.239878335, 96.390, 4146.0, 64.3894
7.266138900, 96.390, 4129.0, 64.2573
7.292399466, 96.390, 4179.0, 64.6452
7.318660031, 96.390, 4171.0, 64.5833
7.344920597, 96.390, 4199.0, 64.7997
7.371181162, 96.390, 4225.0, 65.0000
7.397441727, 96.390, 4053.0, 63.6632
7.423702293, 96.390, 4194.0, 64.7611
7.449962858, 96.390, 4096.0, 64.0000
7.476223423, 96.390, 4183.0, 64.6761
7.502483989, 96.390, 4096.0, 64.0000
7.528744554, 96.390, 4036.0, 63.5295
7.555005119, 96.390, 4115.0, 64.1483
7.581265685, 96.390, 4053.0, 63.6632
7.607526250, 96.390, 4133.0, 64.2884
7.633786815, 96.390, 3954.0, 62.8808
7.660047381, 96.390, 4048.0, 63.6239
7.686307946, 96.390, 4023.0, 63.4271
7.712568512, 96.390, 4245.0, 65.1537
7.738829077, 96.390, 4161.0, 64.5058
7.765089642, 96.390, 4064.0, 63.7495
7.791350208, 96.390, 4054.0, 63.6710
7.817610773, 96.390, 4020.0, 63.4035
7.843871338, 96.390, 4093.0, 63.9766
7.870131904, 96.390, 3959.0, 62.9206
7.896392469, 96.390, 3991.0, 63.1744
7.922653034, 96.390, 3967.0, 62.9841
7.948913600, 96.390, 4010.0, 63.3246
7.975174165, 96.390, 4150.0, 64.4205
8.001434730, 96.390, 4057.0, 63.6946
8.027695296, 96.390, 4055.0, 63.6789
8.053955861, 96.390, 4079.0, 63.8670
8.080216426, 96.390, 4012.0, 63.3404
8.106476992, 96.390, 3983.0, 63.1110
8.132737557, 96.390, 4035.0, 63.5216
8.158998123, 96.390, 4005.0, 63.2851
8.185258688, 96.390, 4089.0, 63.9453
8.211519253, 96.390, 4039.0, 63.5531
8.237779819, 96.390, 3921.0, 62.6179
8.264040384, 96.390, 3920.0, 62.6099
8.290300949, 96.390, 4006.0, 63.2930
8.316561515, 96.390, 3972.0, 63.0238
8.342822080, 96.390, 3981.0, 63.0952
8.369082645, 96.390, 4151.0, 64.4283
8.395343211, 96.390, 3954.0, 62.8808
8.421603776, 96.390, 3942.0, 62.7853
8.447864341, 96.390, 3987.0, 63.1427
8.474124907, 96.390, 3998.0, 63.2297
8.500385472, 96.390, 3922.0, 62.6259
8.526646038, 96.390, 3950.0, 62.8490
8.552906603, 96.390, 3890.0, 62.3699
8.579167168, 96.390, 3961.0, 62.9365
8.605427734, 96.390, 3939.0, 62.7615
8.631688299, 96.390, 3903.0, 62.4740
8.657948864, 96.390, 3946.0, 62.8172
8.684209430, 96.390, 3843.0, 61.9919
8.710469995, 96.390, 3882.0, 62.3057
8.736730560, 96.390, 3927.0, 62.6658
8.762991126, 96.390, 4002.0, 63.2614
8.789251691, 96.390, 3774.0, 61.4329
8.815512256, 96.390, 3905.0, 62.4900
8.841772822, 96.390, 3847.0, 62.0242
8.868033387, 96.390, 3875.0, 62.2495
8.894293952, 96.390, 3806.0, 61.6928
8.920554518, 96.390, 3849.0, 62.0403
8.946815083, 96.390, 3820.0, 61.8061
8.973075649, 96.390, 4002.0, 63.2614
8.999336214, 96.390, 3912.0, 62.5460
9.025596779, 96.390, 3950.0, 62.8490
9.051857345, 96.390, 3863.0, 62.1530
9.078117910, 96.390, 3781.0, 61.4898
9.104378475, 96.390, 3819.0, 61.7981
9.130639041, 96.390, 3799.0, 61.6360
9.156899606, 96.390, 3731.0, 61.0819
9.183160171, 96.390, 3792.0, 61.5792
9.209420737, 96.390, 3757.0, 61.2944
9.235681302, 96.390, 3954.0, 62.8808
9.261941867, 96.390, 3911.0, 62.5380
9.288202433, 96.390, 3852.0, 62.0645
9.314462998, 96.390, 3790.0, 61.5630
9.340723564, 96.390, 3892.0, 62.3859
9.366984129, 96.390, 3661.0, 60.5062
9.393244694, 96.390, 3942.0, 62.7853
9.419505260, 96.390, 3857.0, 62.1048
9.445765825, 96.390, 3849.0, 62.0403
9.472026390, 96.390, 3794.0, 61.5955
9.498286956, 96.390, 3835.0, 61.9274
9.524547521, 96.390, 3782.0, 61.4980
9.550808086, 96.390, 3746.0, 61.2046
9.577068652, 96.390, 3909.0, 62.5220
9.603329217, 96.390, 3691.0, 60.7536
9.629589782, 96.390, 3886.0, 62.3378
9.655850348, 96.390, 3843.0, 61.9919
9.682110913, 96.390, 3894.0, 62.4019
9.708371478, 96.390, 3818.0, 61.7900
9.734632044, 96.390, 3790.0, 61.5630
9.760892609, 96.390, 3829.0, 61.8789
9.787153175, 96.390, 3875.0, 62.2495
9.813413740, 96.390, 3798.0, 61.6279
9.839674305, 96.390, 3818.0, 61.7900
9.865934871, 96.390, 3808.0, 61.7090
9.892195436, 96.390, 3879.0, 62.2816
9.918456001, 96.390, 3775.0, 61.4410
9.944716567, 96.390, 3608.0, 60.0666
9.970977132, 96.390, 3743.0, 61.1801
9.997237697, 96.390, 3788.0, 61.5467
10.023498263, 96.390, 3711.0, 60.9180
10.049758828, 96.390, 3943.0, 62.7933
10.076019393, 96.390, 3724.0, 61.0246
10.102279959, 96.390, 3899.0, 62.4420
10.128540524, 96.390, 3855.0, 62.0886
10.154801090, 96.390, 3723.0, 61.0164
10.181061655, 96.390, 3760.0, 61.3188
10.207322220, 96.390, 3825.0, 61.8466
10.233582786, 96.390, 3774.0, 61.4329
10.259843351, 96.390, 3842.0, 61.9839
10.286103916, 96.390, 3873.0, 62.2334
10.312364482, 96.390, 3866.0, 62.1772
10.338625047, 96.390, 3740.0, 61.1555
10.364885612, 96.390, 3682.0, 60.6795
10.391146178, 96.390, 3768.0, 61.3840
10.417406743, 96.390, 3680.0, 60.6630
10.443667308, 96.390, 3846.0, 62.0161
10.469927874, 96.390, 3788.0, 61.5467
10.496188439, 96.390, 3772.0, 61.4166
10.522449004, 96.390, 3829.0, 61.8789
10.548709570, 96.390, 3702.0, 60.8441
10.574970135, 96.390, 3828.0, 61.8708
10.601230701, 96.390, 3761.0, 61.3270
10.627491266, 96.390, 3761.0, 61.3270
10.653751831, 96.390, 3664.0, 60.5310
10.680012397, 96.390, 3848.0, 62.0322
10.706272962, 96.390, 3745.0, 61.1964
10.732533527, 96.390, 3857.0, 62.1048
10.758794093, 96.390, 3745.0, 61.1964
10.785054658, 96.390, 3692.0, 60.7618
10.811315223, 96.390, 3814.0, 61.7576
10.837575789, 96.390, 3757.0, 61.2944
10.863836354, 96.390, 3739.0, 61.1474
10.890096919, 96.390, 3705.0, 60.8687
10.916357485, 96.390, 3709.0, 60.9016
10.942618050, 96.390, 3624.0, 60.1997
10.968878616, 96.390, 3646.0, 60.3821
10.995139181, 96.390, 3800.0, 61.6441
11.021399746, 96.390, 3711.0, 60.9180
11.047660312, 96.390, 3624.0, 60.1997
11.073920877, 96.390, 3725.0, 61.0328
11.100181442, 96.390, 3626.0, 60.2163
11.126442008, 96.390, 3632.0, 60.2661
11.152702573, 96.390, 3648.0, 60.3987
11.178963138, 96.390, 3687.0, 60.7207
11.205223704, 96.390, 3640.0, 60.3324
11.231484269, 96.390, 3567.0, 59.7244
11.257744834, 96.390, 3758.0, 61.3025
11.284005400, 96.390, 3645.0, 60.3738
11.310265965, 96.390, 3669.0, 60.5723
11.336526530, 96.390, 3592.0, 59.9333
11.362787096, 96.390, 3704.0, 60.8605
11.389047661, 96.390, 3542.0, 59.5147
11.415308227, 96.390, 3606.0, 60.0500
11.441568792, 96.390, 3631.0, 60.2578
11.467829357, 96.390, 3706.0, 60.8769
11.494089923, 96.390, 3630.0, 60.2495
11.520350488, 96.390, 3525.0, 59.3717
11.546611053, 96.390, 3495.0, 59.1185
11.572871619, 96.390, 3433.0, 58.5918
11.599132184, 96.390, 3576.0, 59.7997
11.625392749, 96.390, 3585.0, 59.8749
11.651653315, 96.390, 3569.0, 59.7411
11.677913880, 96.390, 3389.0, 58.2151
11.704174445, 96.390, 3490.0, 59.0762
11.730435011, 96.390, 3505.0, 59.2030
11.756695576, 96.390, 3419.0, 58.4722
11.782956141, 96.390, 3530.0, 59.4138
11.809216707, 96.390, 3451.0, 58.7452
11.835477272, 96.390, 3555.0, 59.6238
11.861737838, 96.390, 3340.0, 57.7927
11.887998403, 96.390, 3396.0, 58.2752
11.914258968, 96.390, 3414.0, 58.4294
11.940519534, 96.390, 3297.0, 57.4195
11.966780099, 96.390, 3421.0, 58.4893
11.993040664, 96.390, 3397.0, 58.2838
12.019301230, 96.390, 3224.0, 56.7803
12.045561795, 96.390, 3296.0, 57.4108
12.071822360, 96.390, 3226.0, 56.7979
12.098082926, 96.390, 3266.0, 57.1489
12.124343491, 96.390, 3348.0, 57.8619
12.150604056, 96.390, 3201.0, 56.5774
12.176864622, 96.390, 3317.0, 57.5934
12.203125187, 96.390, 3191.0, 56.4889
12.229385753, 96.390, 3218.0, 56.7274
12.255646318, 96.390, 3226.0, 56.7979
12.281906883, 96.390, 3273.0, 57.2101
12.308167449, 96.390, 3111.0, 55.7763
12.334428014, 96.390, 3140.0, 56.0357
12.360688579, 96.390, 3258.0, 57.0789
12.386949145, 96.390, 3171.0, 56.3116
12.413209710, 96.390, 3178.0, 56.3738
12.439470275, 96.390, 3180.0, 56.3915
12.465730841, 96.390, 3005.0, 54.8179
12.491991406, 96.390, 3083.0, 55.5248
12.518251971, 96.390, 3048.0, 55.2087
12.544512537, 96.390, 3008.0, 54.8452
12.570773102, 96.390, 3068.0, 55.3895
12.597033667, 96.390, 3058.0, 55.2992
12.623294233, 96.390, 3029.0, 55.0364
12.649554798, 96.390, 2953.0, 54.3415
12.675815364, 96.390, 2851.0, 53.3948
12.702075929, 96.390, 2990.0, 54.6809
12.728336494, 96.390, 3037.0, 55.1090
12.754597060, 96.390, 2913.0, 53.9722
12.780857625, 96.390, 3073.0, 55.4346
12.807118190, 96.390, 2955.0, 54.3599
12.833378756, 96.390, 2902.0, 53.8702
12.859639321, 96.390, 2941.0, 54.2310
12.885899886, 96.390, 2910.0, 53.9444
12.912160452, 96.390, 2841.0, 53.3010
12.938421017, 96.390, 2844.0, 53.3292
12.964681582, 96.390, 2886.0, 53.7215
12.990942148, 96.390, 2900.0, 53.8516
13.017202713, 96.390, 2822.0, 53.1225
13.043463279, 96.390, 2857.0, 53.4509
13.069723844, 96.390, 2721.0, 52.1632
13.095984409, 96.390, 2806.0, 52.9717
13.122244975, 96.390, 2887.0, 53.7308
13.148505540, 96.390, 2756.0, 52.4976
13.174766105, 96.390, 2693.0, 51.8941
13.201026671, 96.390, 2745.0, 52.3927
13.227287236, 96.390, 2835.0, 53.2447
13.253547801, 96.390, 2779.0, 52.7162
13.279808367, 96.390, 2720.0, 52.1536
13.306068932, 96.390, 2745.0, 52.3927
13.332329497, 96.390, 2637.0, 51.3517
13.358590063, 96.390, 2726.0, 52.2111
13.384850628, 96.390, 2729.0, 52.2398
13.411111193, 96.390, 2711.0, 52.0673
13.437371759, 96.390, 2683.0, 51.7977
13.463632324, 96.390, 2627.0, 51.2543
13.489892890, 96.390, 2642.0, 51.4004
13.516153455, 96.390, 2629.0, 51.2738
13.542414020, 96.390, 2608.0, 51.0686
13.568674586, 96.390, 2612.0, 51.1077
13.594935151, 96.390, 2649.0, 51.4684
13.621195716, 96.390, 2614.0, 51.1273
13.647456282, 96.390, 2597.0, 50.9608
13.673716847, 96.390, 2676.0, 51.7301
13.699977412, 96.390, 2581.0, 50.8035
13.726237978, 96.390, 2611.0, 51.0979
13.752498543, 96.390, 2622.0, 51.2055
13.778759108, 96.390, 2566.0, 50.6557
13.805019674, 96.390, 2554.0, 50.5371
13.831280239, 96.390, 2565.0, 50.6458
13.857540805, 96.390, 2592.0, 50.9117
13.883801370, 96.390, 2544.0, 50.4381
13.910061935, 96.390, 2527.0, 50.2693
13.936322501, 96.390, 2527.0, 50.2693
13.962583066, 96.390, 2592.0, 50.9117
13.988843631, 96.390, 2500.0, 50.0000
14.015104197, 96.390, 2486.0, 49.8598
14.041364762, 96.390, 2477.0, 49.7695
14.067625327, 96.390, 2553.0, 50.5272
14.093885893, 96.390, 2434.0, 49.3356
14.120146458, 96.390, 2539.0, 50.3885
14.146407023, 96.390, 2532.0, 50.3190
14.172667589, 96.390, 2428.0, 49.2747
14.198928154, 96.390, 2369.0, 48.6724
14.225188719, 96.390, 2524.0, 50.2394
14.251449285, 96.390, 2453.0, 49.5278
14.277709850, 96.390, 2399.0, 48.9796
14.303970416, 96.390, 2467.0, 49.6689
14.330230981, 96.390, 2452.0, 49.5177
14.356491546, 96.390, 2428.0, 49.2747
14.382752112, 96.390, 2457.0, 49.5681
14.409012677, 96.390, 2405.0, 49.0408
14.435273242, 96.390, 2481.0, 49.8096
14.461533808, 96.390, 2383.0, 48.8160
14.487794373, 96.390, 2342.0, 48.3942
14.514054938, 96.390, 2422.0, 49.2138
14.540315504, 96.390, 2378.0, 48.7647
14.566576069, 96.390, 2396.0, 48.9490
14.592836634, 96.390, 2459.0, 49.5883
14.619097200, 96.390, 2360.0, 48.5798
14.645357765, 96.390, 2417.0, 49.1630
14.671618331, 96.390, 2348.0, 48.4562
14.697878896, 96.390, 2364.0, 48.6210
14.724139461, 96.390, 2359.0, 48.5695
14.750400027, 96.390, 2420.0, 49.1935
14.776660592, 96.390, 2350.0, 48.4768
14.802921157, 96.390, 2368.0, 48.6621
14.829181723, 96.390, 2358.0, 48.5592
14.855442288, 96.390, 2333.0, 48.3011
14.881702853, 96.390, 2254.0, 47.4763
14.907963419, 96.390, 2257.0, 47.5079
14.934223984, 96.390, 2400.0, 48.9898
14.960484549, 96.390, 2269.0, 47.6340
14.986745115, 96.390, 2348.0, 48.4562
15.013005680, 96.390, 2322.0, 48.1871
15.039266245, 96.390, 2238.0, 47.3075
15.065526811, 96.390, 2307.0, 48.0312
15.091787376, 96.390, 2247.0, 47.4025
15.118047942, 96.390, 2277.0, 47.7179
15.144308507, 96.390, 2248.0, 47.4131
15.170569072, 96.390, 2306.0, 48.0208
15.196829638, 96.390, 2278.0, 47.7284
15.223090203, 96.390, 2239.0, 47.3181
15.249350768, 96.390, 2327.0, 48.2390
15.275611334, 96.390, 2370.0, 48.6826
15.301871899, 96.390, 2319.0, 48.1560
15.328132464, 96.390, 2300.0, 47.9583
15.354393030, 96.390, 2272.0, 47.6655
15.380653595, 96.390, 2254.0, 47.4763
15.406914160, 96.390, 2248.0, 47.4131
15.433174726, 96.390, 2254.0, 47.4763
15.459435291, 96.390, 2249.0, 47.4236
15.485695857, 96.390, 2165.0, 46.5296
15.511956422, 96.390, 2248.0, 47.4131
15.538216987, 96.390, 2229.0, 47.2123
15.564477553, 96.390, 2327.0, 48.2390
15.590738118, 96.390, 2340.0, 48.3735
15.616998683, 96.390, 2236.0, 47.2864
15.643259249, 96.390, 2257.0, 47.5079
15.669519814, 96.390, 2235.0, 47.2758
15.695780379, 96.390, 2298.0, 47.9375
15.722040945, 96.390, 2229.0, 47.2123
15.748301510, 96.390, 2247.0, 47.4025
15.774562075, 96.390, 2267.0, 47.6130
15.800822641, 96.390, 2112.0, 45.9565
15.827083206, 96.390, 2198.0, 46.8828
15.853343771, 96.390, 2210.0, 47.0106
15.879604337, 96.390, 2204.0, 46.9468
15.905864902, 96.390, 2193.0, 46.8295
15.932125468, 96.390, 2279.0, 47.7389
15.958386033, 96.390, 2172.0, 46.6047
15.984646598, 96.390, 2222.0, 47.1381
16.010907164, 96.390, 2316.0, 48.1248
16.037167729, 96.390, 2180.0, 46.6905
16.063428294, 96.390, 2157.0, 46.4435
16.089688860, 96.390, 2158.0, 46.4543
16.115949425, 96.390, 2219.0, 47.1063
16.142209990, 96.390, 2246.0, 47.3920
16.168470556, 96.390, 2145.0, 46.3141
16.194731121, 96.390, 2210.0, 47.0106
16.220991686, 96.390, 2126.0, 46.1086
16.247252252, 96.390, 2217.0, 47.0850
16.273512817, 96.390, 2257.0, 47.5079
16.299773382, 96.390, 2125.0, 46.0977
16.326033948, 96.390, 2240.0, 47.3286
16.352294513, 96.390, 2230.0, 47.2229
16.378555079, 96.390, 2269.0, 47.6340
16.404815644, 96.390, 2249.0, 47.4236
16.431076209, 96.390, 2265.0, 47.5920
16.457336775, 96.390, 2180.0, 46.6905
16.483597340, 96.390, 2232.0, 47.2440
16.509857905, 96.390, 2175.0, 46.6369
16.536118471, 96.390, 2188.0, 46.7761
16.562379036, 96.390, 2245.0, 47.3814
16.588639601, 96.390, 2249.0, 47.4236
16.614900167, 96.390, 2220.0, 47.1169
16.641160732, 96.390, 2220.0, 47.1169
16.667421297, 96.390, 2143.0, 46.2925
16.693681863, 96.390, 2193.0, 46.8295
16.719942428, 96.390, 2200.0, 46.9042
16.746202994, 96.390, 2194.0, 46.8402
16.772463559, 96.390, 2202.0, 46.9255
16.798724124, 96.390, 2142.0, 46.2817
16.824984690, 96.390, 2173.0, 46.6154
16.851245255, 96.390, 2226.0, 47.1805
16.877505820, 96.390, 2129.0, 46.1411
16.903766386, 96.390, 2221.0, 47.1275
16.930026951, 96.390, 2276.0, 47.7074
16.956287516, 96.390, 2137.0, 46.2277
16.982548082, 96.390, 2167.0, 46.5510
17.008808647, 96.390, 2173.0, 46.6154
17.035069212, 96.390, 2203.0, 46.9361
17.061329778, 96.390, 2181.0, 46.7012
17.087590343, 96.390, 2234.0, 47.2652
17.113850908, 96.390, 2158.0, 46.4543
17.140111474, 96.390, 2202.0, 46.9255
17.166372039, 96.390, 2181.0, 46.7012
17.192632605, 96.390, 2165.0, 46.5296
17.218893170, 96.390, 2160.0, 46.4758
17.245153735, 96.390, 2186.0, 46.7547
17.271414301, 96.390, 2193.0, 46.8295
17.297674866, 96.390, 2208.0, 46.9894
17.323935431, 96.390, 2234.0, 47.2652
17.350195997, 96.390, 2249.0, 47.4236
17.376456562, 96.390, 2218.0, 47.0956
17.402717127, 96.390, 2197.0, 46.8722
17.428977693, 96.390, 2173.0, 46.6154
17.455238258, 96.390, 2259.0, 47.5289
17.481498823, 96.390, 2162.0, 46.4973
17.507759389, 96.390, 2223.0, 47.1487
17.534019954, 96.390, 2231.0, 47.2335
17.560280520, 96.390, 2220.0, 47.1169
17.586541085, 96.390, 2245.0, 47.3814
17.612801650, 96.390, 2296.0, 47.9166
17.639062216, 96.390, 2323.0, 48.1975
17.665322781, 96.390, 2200.0, 46.9042
17.691583346, 96.390, 2183.0, 46.7226
17.717843912, 96.390, 2216.0, 47.0744
17.744104477, 96.390, 2282.0, 47.7703
17.770365042, 96.390, 2303.0, 47.9896
17.796625608, 96.390, 2361.0, 48.5901
17.822886173, 96.390, 2231.0, 47.2335
17.849146738, 96.390, 2260.0, 47.5395
17.875407304, 96.390, 2209.0, 47.0000
17.901667869, 96.390, 2208.0, 46.9894
17.927928434, 96.390, 2233.0, 47.2546
17.954189000, 96.390, 2328.0, 48.2494
17.980449565, 96.390, 2257.0, 47.5079
18.006710131, 96.390, 2364.0, 48.6210
18.032970696, 96.390, 2313.0, 48.0937
18.059231261, 96.390, 2224.0, 47.1593
18.085491827, 96.390, 2278.0, 47.7284
18.111752392, 96.390, 2242.0, 47.3498
18.138012957, 96.390, 2339.0, 48.3632
18.164273523, 96.390, 2386.0, 48.8467
18.190534088, 96.390, 2213.0, 47.0425
18.216794653, 96.390, 2243.0, 47.3603
18.243055219, 96.390, 2277.0, 47.7179
18.269315784, 96.390, 2245.0, 47.3814
18.295576349, 96.390, 2294.0, 47.8957
18.321836915, 96.390, 2254.0, 47.4763
18.348097480, 96.390, 2239.0, 47.3181
18.374358046, 96.390, 2317.0, 48.1352
18.400618611, 96.390, 2331.0, 48.2804
18.426879176, 96.390, 2199.0, 46.8935
18.453139742, 96.390, 2367.0, 48.6518
18.479400307, 96.390, 2401.0, 49.0000
18.505660872, 96.390, 2288.0, 47.8330
18.531921438, 96.390, 2360.0, 48.5798
18.558182003, 96.390, 2384.0, 48.8262
18.584442568, 96.390, 2297.0, 47.9270
18.610703134, 96.390, 2342.0, 48.3942
18.636963699, 96.390, 2400.0, 48.9898
18.663224264, 96.390, 2288.0, 47.8330
18.689484830, 96.390, 2233.0, 47.2546
18.715745395, 96.390, 2300.0, 47.9583
18.742005960, 96.390, 2453.0, 49.5278
18.768266526, 96.390, 2400.0, 48.9898
18.794527091, 96.390, 2424.0, 49.2341
18.820787657, 96.390, 2365.0, 48.6313
18.847048222, 96.390, 2337.0, 48.3425
18.873308787, 96.390, 2423.0, 49.2240
18.899569353, 96.390, 2410.0, 49.0918
18.925829918, 96.390, 2375.0, 48.7340
18.952090483, 96.390, 2377.0, 48.7545
18.978351049, 96.390, 2345.0, 48.4252
19.004611614, 96.390, 2438.0, 49.3761
19.030872179, 96.390, 2325.0, 48.2183
19.057132745, 96.390, 2385.0, 48.8365
19.083393310, 96.390, 2432.0, 49.3153
19.109653875, 96.390, 2369.0, 48.6724
19.135914441, 96.390, 2341.0, 48.3839
19.162175006, 96.390, 2417.0, 49.1630
19.188435572, 96.390, 2436.0, 49.3559
19.214696137, 96.390, 2401.0, 49.0000
19.240956702, 96.390, 2439.0, 49.3862
19.267217268, 96.390, 2320.0, 48.1664
19.293477833, 96.390, 2374.0, 48.7237
19.319738398, 96.390, 2410.0, 49.0918
19.345998964, 96.390, 2425.0, 49.2443
19.372259529, 96.390, 2363.0, 48.6107
19.398520094, 96.390, 2370.0, 48.6826
19.424780660, 96.390, 2387.0, 48.8569
19.451041225, 96.390, 2338.0, 48.3529
19.477301790, 96.390, 2420.0, 49.1935
19.503562356, 96.390, 2412.0, 49.1121
19.529822921, 96.390, 2403.0, 49.0204
19.556083486, 96.390, 2543.0, 50.4282
19.582344052, 96.390, 2459.0, 49.5883
19.608604617, 96.390, 2427.0, 49.2646
19.634865183, 96.390, 2461.0, 49.6085
19.661125748, 96.390, 2492.0, 49.9199
19.687386313, 96.390, 2552.0, 50.5173
19.713646879, 96.390, 2404.0, 49.0306
19.739907444, 96.390, 2502.0, 50.0200
19.766168009, 96.390, 2488.0, 49.8799
19.792428575, 96.390, 2520.0, 50.1996
19.818689140, 96.390, 2510.0, 50.0999
19.844949705, 96.390, 2504.0, 50.0400
19.871210271, 96.390, 2431.0, 49.3052
19.897470836, 96.390, 2454.0, 49.5379
19.923731401, 96.390, 2576.0, 50.7543
19.949991967, 96.390, 2511.0, 50.1099
19.976252532, 96.390, 2555.0, 50.5470
20.002513097, 96.390, 2516.0, 50.1597
20.028773663, 96.390, 2516.0, 50.1597
20.055034228, 96.390, 2502.0, 50.0200
20.081294794, 96.390, 2583.0, 50.8232
20.107555359, 96.390, 2545.0, 50.4480
20.133815924, 96.390, 2624.0, 51.2250
20.160076490, 96.390, 2594.0, 50.9313
20.186337055, 96.390, 2608.0, 51.0686
20.212597620, 96.390, 2573.0, 50.7247
20.238858186, 96.390, 2585.0, 50.8429
20.265118751, 96.390, 2503.0, 50.0300
20.291379316, 96.390, 2537.0, 50.3686
20.317639882, 96.390, 2502.0, 50.0200
20.343900447, 96.390, 2652.0, 51.4976
20.370161012, 96.390, 2521.0, 50.2096
20.396421578, 96.390, 2568.0, 50.6754
20.422682143, 96.390, 2535.0, 50.3488
20.448942709, 96.390, 2571.0, 50.7050
20.475203274, 96.390, 2628.0, 51.2640
20.501463839, 96.390, 2586.0, 50.8527
20.527724405, 96.390, 2652.0, 51.4976
20.553984970, 96.390, 2734.0, 52.2877
20.580245535, 96.390, 2666.0, 51.6333
20.606506101, 96.390, 2593.0, 50.9215
20.632766666, 96.390, 2561.0, 50.6063
20.659027231, 96.390, 2574.0, 50.7346
20.685287797, 96.390, 2637.0, 51.3517
20.711548362, 96.390, 2717.0, 52.1249
20.737808927, 96.390, 2648.0, 51.4587
20.764069493, 96.390, 2621.0, 51.1957
20.790330058, 96.390, 2646.0, 51.4393
20.816590623, 96.390, 2637.0, 51.3517
20.842851189, 96.390, 2651.0, 51.4879
20.869111754, 96.390, 2652.0, 51.4976
20.895372320, 96.390, 2627.0, 51.2543
20.921632885, 96.390, 2707.0, 52.0288
20.947893450, 96.390, 2678.0, 51.7494
20.974154016, 96.390, 2679.0, 51.7591
21.000414581, 96.390, 2684.0, 51.8073
21.026675146, 96.390, 2695.0, 51.9134
21.052935712, 96.390, 2643.0, 51.4101
21.079196277, 96.390, 2677.0, 51.7397
21.105456842, 96.390, 2704.0, 52.0000
21.131717408, 96.390, 2669.0, 51.6624
21.157977973, 96.390, 2825.0, 53.1507
21.184238538, 96.390, 2657.0, 51.5461
21.210499104, 96.390, 2700.0, 51.9615
21.236759669, 96.390, 2678.0, 51.7494
21.263020235, 96.390, 2754.0, 52.4786
21.289280800, 96.390, 2676.0, 51.7301
21.315541365, 96.390, 2626.0, 51.2445
21.341801931, 96.390, 2688.0, 51.8459
21.368062496, 96.390, 2761.0, 52.5452
21.394323061, 96.390, 2832.0, 53.2165
21.420583627, 96.390, 2812.0, 53.0283
21.446844192, 96.390, 2700.0, 51.9615
21.473104757, 96.390, 2658.0, 51.5558
21.499365323, 96.390, 2619.0, 51.1762
21.525625888, 96.390, 2785.0, 52.7731
21.551886453, 96.390, 2927.0, 54.1018
21.578147019, 96.390, 2694.0, 51.9038
21.604407584, 96.390, 2794.0, 52.8583
21.630668149, 96.390, 2800.0, 52.9150
21.656928715, 96.390, 2804.0, 52.9528
21.683189280, 96.390, 2885.0, 53.7122
21.709449846, 96.390, 2823.0, 53.1319
21.735710411, 96.390, 2772.0, 52.6498
21.761970976, 96.390, 2911.0, 53.9537
21.788231542, 96.390, 2829.0, 53.1883
21.814492107, 96.390, 2795.0, 52.8678
21.840752672, 96.390, 2736.0, 52.3068
21.867013238, 96.390, 2757.0, 52.5071
21.893273803, 96.390, 2865.0, 53.5257
21.919534368, 96.390, 2887.0, 53.7308
21.945794934, 96.390, 2813.0, 53.0377
21.972055499, 96.390, 2938.0, 54.2033
21.998316064, 96.390, 2854.0, 53.4228
22.024576630, 96.390, 2808.0, 52.9906
22.050837195, 96.390, 2850.0, 53.3854
22.077097761, 96.390, 2841.0, 53.3010
22.103358326, 96.390, 2837.0, 53.2635
22.129618891, 96.390, 2779.0, 52.7162
22.155879457, 96.390, 2837.0, 53.2635
22.182140022, 96.390, 2808.0, 52.9906
22.208400587, 96.390, 2945.0, 54.2679
22.234661153, 96.390, 2721.0, 52.1632
22.260921718, 96.390, 2817.0, 53.0754
22.287182283, 96.390, 2827.0, 53.1695
22.313442849, 96.390, 2822.0, 53.1225
22.339703414, 96.390, 2868.0, 53.5537
22.365963979, 96.390, 2754.0, 52.4786
22.392224545, 96.390, 2870.0, 53.5724
22.418485110, 96.390, 2761.0, 52.5452
22.444745675, 96.390, 3003.0, 54.7996
22.471006241, 96.390, 2853.0, 53.4135
22.497266806, 96.390, 2872.0, 53.5910
22.523527372, 96.390, 2886.0, 53.7215
22.549787937, 96.390, 2813.0, 53.0377
22.576048502, 96.390, 2840.0, 53.2917
22.602309068, 96.390, 2719.0, 52.1440
22.628569633, 96.390, 2879.0, 53.6563
22.654830198, 96.390, 2807.0, 52.9811
22.681090764, 96.390, 2833.0, 53.2259
22.707351329, 96.390, 2865.0, 53.5257
22.733611894, 96.390, 2793.0, 52.8488
22.759872460, 96.390, 2775.0, 52.6783
22.786133025, 96.390, 2886.0, 53.7215
22.812393590, 96.390, 2702.0, 51.9808
22.838654156, 96.390, 2827.0, 53.1695
22.864914721, 96.390, 2817.0, 53.0754
22.891175287, 96.390, 2717.0, 52.1249
22.917435852, 96.390, 2869.0, 53.5630
22.943696417, 96.390, 2935.0, 54.1756
22.969956983, 96.390, 2823.0, 53.1319
22.996217548, 96.390, 2780.0, 52.7257
23.022478113, 96.390, 2800.0, 52.9150
23.048738679, 96.390, 2811.0, 53.0189
23.074999244, 96.390, 2762.0, 52.5547
23.101259809, 96.390, 2771.0, 52.6403
23.127520375, 96.390, 2832.0, 53.2165
23.153780940, 96.390, 2793.0, 52.8488
23.180041505, 96.390, 2796.0, 52.8772
23.206302071, 96.390, 2892.0, 53.7773
23.232562636, 96.390, 2766.0, 52.5928
23.258823201, 96.390, 2719.0, 52.1440
23.285083767, 96.390, 2826.0, 53.1601
23.311344332, 96.390, 2731.0, 52.2590
23.337604898, 96.390, 2672.0, 51.6914
23.363865463, 96.390, 2792.0, 52.8394
23.390126028, 96.390, 2677.0, 51.7397
23.416386594, 96.390, 2864.0, 53.5164
23.442647159, 96.390, 2634.0, 51.3225
23.468907724, 96.390, 2827.0, 53.1695
23.495168290, 96.390, 2820.0, 53.1037
23.521428855, 96.390, 2695.0, 51.9134
23.547689420, 96.390, 2657.0, 51.5461
23.573949986, 96.390, 2706.0, 52.0192
23.600210551, 96.390, 2616.0, 51.1468
23.626471116, 96.390, 2674.0, 51.7107
23.652731682, 96.390, 2667.0, 51.6430
23.678992247, 96.390, 2673.0, 51.7011
23.705252813, 96.390, 2592.0, 50.9117
23.731513378, 96.390, 2650.0, 51.4782
23.757773943, 96.390, 2559.0, 50.5866
23.784034509, 96.390, 2592.0, 50.9117
23.810295074, 96.390, 2657.0, 51.5461
23.836555639, 96.390, 2651.0, 51.4879
23.862816205, 96.390, 2569.0, 50.6853
23.889076770, 96.390, 2521.0, 50.2096
23.915337335, 96.390, 2484.0, 49.8397
23.941597901, 96.390, 2569.0, 50.6853
23.967858466, 96.390, 2634.0, 51.3225
23.994119031, 96.390, 2622.0, 51.2055
24.020379597, 96.390, 2526.0, 50.2593
24.046640162, 96.390, 2573.0, 50.7247
24.072900727, 96.390, 2527.0, 50.2693
24.099161293, 96.390, 2528.0, 50.2792
24.125421858, 96.390, 2522.0, 50.2195
24.151682424, 96.390, 2544.0, 50.4381
24.177942989, 96.390, 2519.0, 50.1896
24.204203554, 96.390, 2516.0, 50.1597
24.230464120, 96.390, 2533.0, 50.3289
24.256724685, 96.390, 2521.0, 50.2096
24.282985250, 96.390, 2431.0, 49.3052
24.309245816, 96.390, 2477.0, 49.7695
24.335506381, 96.390, 2556.0, 50.5569
24.361766946, 96.390, 2433.0, 49.3254
24.388027512, 96.390, 2474.0, 49.7393
24.414288077, 96.390, 2480.0, 49.7996
24.440548642, 96.390, 2437.0, 49.3660
24.466809208, 96.390, 2404.0, 49.0306
24.493069773, 96.390, 2507.0, 50.0700
24.519330338, 96.390, 2469.0, 49.6890
24.545590904, 96.390, 2416.0, 49.1528
24.571851469, 96.390, 2375.0, 48.7340
24.598112035, 96.390, 2375.0, 48.7340
24.624372600, 96.390, 2413.0, 49.1223
24.650633165, 96.390, 2377.0, 48.7545
24.676893731, 96.390, 2400.0, 48.9898
24.703154296, 96.390, 2470.0, 49.6991
24.729414861, 96.390, 2324.0, 48.2079
24.755675427, 96.390, 2329.0, 48.2597
24.781935992, 96.390, 2397.0, 48.9592
24.808196557, 96.390, 2333.0, 48.3011
24.834457123, 96.390, 2388.0, 48.8672
24.860717688, 96.390, 2337.0, 48.3425
24.886978253, 96.390, 2303.0, 47.9896
24.913238819, 96.390, 2252.0, 47.4552
24.939499384, 96.390, 2434.0, 49.3356
24.965759950, 96.390, 2317.0, 48.1352
24.992020515, 96.390, 2312.0, 48.0833
25.018281080, 96.390, 2226.0, 47.1805
25.044541646, 96.390, 2347.0, 48.4458
25.070802211, 96.390, 2340.0, 48.3735
25.097062776, 96.390, 2213.0, 47.0425
25.123323342, 96.390, 2227.0, 47.1911
25.149583907, 96.390, 2232.0, 47.2440
25.175844472, 96.390, 2279.0, 47.7389
25.202105038, 96.390, 2279.0, 47.7389
25.228365603, 96.390, 2152.0, 46.3897
25.254626168, 96.390, 2158.0, 46.4543
25.280886734, 96.390, 2262.0, 47.5605
25.307147299, 96.390, 2195.0, 46.8508
25.333407864, 96.390, 2283.0, 47.7807
25.359668430, 96.390, 2230.0, 47.2229
25.385928995, 96.390, 2183.0, 46.7226
25.412189561, 96.390, 2180.0, 46.6905
25.438450126, 96.390, 2292.0, 47.8748
25.464710691, 96.390, 2293.0, 47.8853
25.490971257, 96.390, 2274.0, 47.6865
25.517231822, 96.390, 2252.0, 47.4552
25.543492387, 96.390, 2228.0, 47.2017
25.569752953, 96.390, 2172.0, 46.6047
25.596013518, 96.390, 2133.0, 46.1844
25.622274083, 96.390, 2121.0, 46.0543
25.648534649, 96.390, 2268.0, 47.6235
25.674795214, 96.390, 2222.0, 47.1381
25.701055779, 96.390, 2138.0, 46.2385
25.727316345, 96.390, 2073.0, 45.5302
25.753576910, 96.390, 2173.0, 46.6154
25.779837476, 96.390, 2155.0, 46.4220
25.806098041, 96.390, 2208.0, 46.9894
25.832358606, 96.390, 2233.0, 47.2546
25.858619172, 96.390, 2171.0, 46.5940
25.884879737, 96.390, 2105.0, 45.8803
25.911140302, 96.390, 2140.0, 46.2601
25.937400868, 96.390, 2138.0, 46.2385
25.963661433, 96.390, 2210.0, 47.0106
25.989921998, 96.390, 2108.0, 45.9130
26.016182564, 96.390, 2125.0, 46.0977
26.042443129, 96.390, 2122.0, 46.0652
26.068703694, 96.390, 2240.0, 47.3286
26.094964260, 96.390, 2186.0, 46.7547
26.121224825, 96.390, 2099.0, 45.8148
26.147485390, 96.390, 2009.0, 44.8219
26.173745956, 96.390, 2210.0, 47.0106
26.200006521, 96.390, 2096.0, 45.7821
26.226267087, 96.390, 2115.0, 45.9891
26.252527652, 96.390, 2086.0, 45.6727
26.278788217, 96.390, 2060.0, 45.3872
26.305048783, 96.390, 2122.0, 46.0652
26.331309348, 96.390, 2093.0, 45.7493
26.357569913, 96.390, 2100.0, 45.8258
26.383830479, 96.390, 2151.0, 46.3789
26.410091044, 96.390, 2136.0, 46.2169
26.436351609, 96.390, 2146.0, 46.3249
26.462612175, 96.390, 2001.0, 44.7325
26.488872740, 96.390, 2103.0, 45.8585
26.515133305, 96.390, 2163.0, 46.5081
26.541393871, 96.390, 2081.0, 45.6180
26.567654436, 96.390, 2043.0, 45.1996
26.593915002, 96.390, 2074.0, 45.5412
26.620175567, 96.390, 2066.0, 45.4533
26.646436132, 96.390, 2015.0, 44.8888
26.672696698, 96.390, 2047.0, 45.2438
26.698957263, 96.390, 2022.0, 44.9667
26.725217828, 96.390, 2078.0, 45.5851
26.751478394, 96.390, 2084.0, 45.6508
26.777738959, 96.390, 2227.0, 47.1911
26.803999524, 96.390, 2154.0, 46.4112
26.830260090, 96.390, 2022.0, 44.9667
26.856520655, 96.390, 2034.0, 45.0999
26.882781220, 96.390, 2076.0, 45.5631
26.909041786, 96.390, 2098.0, 45.8039
26.935302351, 96.390, 2174.0, 46.6262
26.961562916, 96.390, 2024.0, 44.9889
26.987823482, 96.390, 2119.0, 46.0326
27.014084047, 96.390, 1930.0, 43.9318
27.040344613, 96.390, 1976.0, 44.4522
27.066605178, 96.390, 2123.0, 46.0760
27.092865743, 96.390, 1973.0, 44.4185
27.119126309, 96.390, 2004.0, 44.7661
27.145386874, 96.390, 2030.0, 45.0555
27.171647439, 96.390, 2065.0, 45.4423
27.197908005, 96.390, 2022.0, 44.9667
27.224168570, 96.390, 1990.0, 44.6094
27.250429135, 96.390, 2043.0, 45.1996
27.276689701, 96.390, 2046.0, 45.2327
27.302950266, 96.390, 2055.0, 45.3321
27.329210831, 96.390, 2064.0, 45.4313
27.355471397, 96.390, 1939.0, 44.0341
27.381731962, 96.390, 2030.0, 45.0555
27.407992528, 96.390, 2105.0, 45.8803
27.434253093, 96.390, 2099.0, 45.8148
27.460513658, 96.390, 2140.0, 46.2601
27.486774224, 96.390, 2034.0, 45.0999
27.513034789, 96.390, 1943.0, 44.0795
27.539295354, 96.390, 1990.0, 44.6094
27.565555920, 96.390, 2048.0, 45.2548
27.591816485, 96.390, 2009.0, 44.8219
27.618077050, 96.390, 2043.0, 45.1996
27.644337616, 96.390, 2022.0, 44.9667
27.670598181, 96.390, 2011.0, 44.8442
27.696858746, 96.390, 1944.0, 44.0908
27.723119312, 96.390, 2077.0, 45.5741
27.749379877, 96.390, 2013.0, 44.8665
27.775640442, 96.390, 2052.0, 45.2990
27.801901008, 96.390, 2136.0, 46.2169
27.828161573, 96.390, 1975.0, 44.4410
27.854422139, 96.390, 2038.0, 45.1442
27.880682704, 96.390, 2039.0, 45.1553
27.906943269, 96.390, 1982.0, 44.5197
27.933203835, 96.390, 2143.0, 46.2925
27.959464400, 96.390, 2015.0, 44.8888
27.985724965, 96.390, 2034.0, 45.0999
28.011985531, 96.390, 2023.0, 44.9778
28.038246096, 96.390, 2059.0, 45.3762
28.064506661, 96.390, 2014.0, 44.8776
28.090767227, 96.390, 2000.0, 44.7214
28.117027792, 96.390, 2069.0, 45.4863
28.143288357, 96.390, 2000.0, 44.7214
28.169548923, 96.390, 2029.0, 45.0444
28.195809488, 96.390, 2038.0, 45.1442
28.222070054, 96.390, 1959.0, 44.2606
28.248330619, 96.390, 2048.0, 45.2548
28.274591184, 96.390, 2032.0, 45.0777
28.300851750, 96.390, 2066.0, 45.4533
28.327112315, 96.390, 1990.0, 44.6094
28.353372880, 96.390, 2046.0, 45.2327
28.379633446, 96.390, 2009.0, 44.8219
28.405894011, 96.390, 2056.0, 45.3431
28.432154576, 96.390, 2051.0, 45.2880
28.458415142, 96.390, 1904.0, 43.6348
28.484675707, 96.390, 2107.0, 45.9021
28.510936272, 96.390, 2106.0, 45.8912
28.537196838, 96.390, 2078.0, 45.5851
28.563457403, 96.390, 1962.0, 44.2945
28.589717968, 96.390, 1949.0, 44.1475
28.615978534, 96.390, 2112.0, 45.9565
28.642239099, 96.390, 2063.0, 45.4203
28.668499665, 96.390, 1943.0, 44.0795
28.694760230, 96.390, 2020.0, 44.9444
28.721020795, 96.390, 2079.0, 45.5961
28.747281361, 96.390, 1986.0, 44.5646
28.773541926, 96.390, 2032.0, 45.0777
28.799802491, 96.390, 1953.0, 44.1928
28.826063057, 96.390, 2079.0, 45.5961
28.852323622, 96.390, 1985.0, 44.5533
28.878584187, 96.390, 2079.0, 45.5961
28.904844753, 96.390, 2060.0, 45.3872
28.931105318, 96.390, 2008.0, 44.8107
28.957365883, 96.390, 1952.0, 44.1814
28.983626449, 96.390, 1957.0, 44.2380
29.009887014, 96.390, 2039.0, 45.1553
29.036147579, 96.390, 2008.0, 44.8107
29.062408145, 96.390, 2008.0, 44.8107
29.088668710, 96.390, 2137.0, 46.2277
29.114929276, 96.390, 1964.0, 44.3170
29.141189841, 96.390, 2029.0, 45.0444
29.167450406, 96.390, 2008.0, 44.8107
29.193710972, 96.390, 2013.0, 44.8665
29.219971537, 96.390, 2125.0, 46.0977
29.246232102, 96.390, 1997.0, 44.6878
29.272492668, 96.390, 1996.0, 44.6766
29.298753233, 96.390, 2071.0, 45.5082
29.325013798, 96.390, 2096.0, 45.7821
29.351274364, 96.390, 2057.0, 45.3542
29.377534929, 96.390, 2046.0, 45.2327
29.403795494, 96.390, 2081.0, 45.6180
29.430056060, 96.390, 2115.0, 45.9891
29.456316625, 96.390, 2072.0, 45.5192
29.482577191, 96.390, 2057.0, 45.3542
29.508837756, 96.390, 2075.0, 45.5522
29.535098321, 96.390, 2119.0, 46.0326
29.561358887, 96.390, 2079.0, 45.5961
29.587619452, 96.390, 2047.0, 45.2438
29.613880017, 96.390, 2084.0, 45.6508
29.640140583, 96.390, 2055.0, 45.3321
29.666401148, 96.390, 2073.0, 45.5302
29.692661713, 96.390, 2100.0, 45.8258
29.718922279, 96.390, 2094.0, 45.7602
29.745182844, 96.390, 2077.0, 45.5741
29.771443409, 96.390, 2098.0, 45.8039
29.797703975, 96.390, 1997.0, 44.6878
29.823964540, 96.390, 2038.0, 45.1442
29.850225105, 96.390, 2025.0, 45.0000
29.876485671, 96.390, 2031.0, 45.0666
29.902746236, 96.390, 2037.0, 45.1331
29.929006802, 96.390, 1991.0, 44.6206
29.955267367, 96.390, 1999.0, 44.7102
29.981527932, 96.390, 2063.0, 45.4203
30.007788498, 96.390, 2098.0, 45.8039
30.034049063, 96.390, 1967.0, 44.3509
30.060309628, 96.390, 1993.0, 44.6430
30.086570194, 96.390, 2032.0, 45.0777
30.112830759, 96.390, 2045.0, 45.2217
30.139091324, 96.390, 1981.0, 44.5084
30.165351890, 96.390, 2029.0, 45.0444
30.191612455, 96.390, 2040.0, 45.1664
30.217873020, 96.390, 2083.0, 45.6399
30.244133586, 96.390, 1999.0, 44.7102
30.270394151, 96.390, 2035.0, 45.1110
30.296654717, 96.390, 2034.0, 45.0999
30.322915282, 96.390, 2048.0, 45.2548
30.349175847, 96.390, 2017.0, 44.9110
30.375436413, 96.390, 2020.0, 44.9444
30.401696978, 96.390, 1986.0, 44.5646
30.427957543, 96.390, 1976.0, 44.4522
30.454218109, 96.390, 2021.0, 44.9555
30.480478674, 96.390, 1977.0, 44.4635
30.506739239, 96.390, 2045.0, 45.2217
30.532999805, 96.390, 2004.0, 44.7661
30.559260370, 96.390, 2052.0, 45.2990
30.585520935, 96.390, 2033.0, 45.0888
30.611781501, 96.390, 2084.0, 45.6508
30.638042066, 96.390, 1915.0, 43.7607
30.664302631, 96.390, 2060.0, 45.3872
30.690563197, 96.390, 2009.0, 44.8219
30.716823762, 96.390, 1910.0, 43.7035
30.743084328, 96.390, 1984.0, 44.5421
30.769344893, 96.390, 2003.0, 44.7549
30.795605458, 96.390, 1953.0, 44.1928
30.821866024, 96.390, 2024.0, 44.9889
30.848126589, 96.390, 2021.0, 44.9555
30.874387154, 96.390, 1981.0, 44.5084
30.900647720, 96.390, 1966.0, 44.3396
30.926908285, 96.390, 1928.0, 43.9090
30.953168850, 96.390, 2113.0, 45.9674
30.979429416, 96.390, 1949.0, 44.1475
31.005689981, 96.390, 1982.0, 44.5197
31.031950546, 96.390, 1860.0, 43.1277
31.058211112, 96.390, 1921.0, 43.8292
31.084471677, 96.390, 1983.0, 44.5309
31.110732243, 96.390, 1956.0, 44.2267
31.136992808, 96.390, 1915.0, 43.7607
31.163253373, 96.390, 2005.0, 44.7772
31.189513939, 96.390, 1919.0, 43.8064
31.215774504, 96.390, 1923.0, 43.8520
31.242035069, 96.390, 1913.0, 43.7379
31.268295635, 96.390, 1971.0, 44.3959
31.294556200, 96.390, 1902.0, 43.6119
31.320816765, 96.390, 1920.0, 43.8178
31.347077331, 96.390, 2013.0, 44.8665
31.373337896, 96.390, 1945.0, 44.1022
31.399598461, 96.390, 1901.0, 43.6005
31.425859027, 96.390, 1985.0, 44.5533
31.452119592, 96.390, 1957.0, 44.2380
31.478380157, 96.390, 1964.0, 44.3170
31.504640723, 96.390, 1954.0, 44.2041
31.530901288, 96.390, 2066.0, 45.4533
31.557161854, 96.390, 1978.0, 44.4747
31.583422419, 96.390, 1971.0, 44.3959
31.609682984, 96.390, 1915.0, 43.7607
31.635943550, 96.390, 2043.0, 45.1996
31.662204115, 96.390, 1994.0, 44.6542
31.688464680, 96.390, 1988.0, 44.5870
31.714725246, 96.390, 1962.0, 44.2945
31.740985811, 96.390, 1889.0, 43.4626
31.767246376, 96.390, 1989.0, 44.5982
31.793506942, 96.390, 1951.0, 44.1701
31.819767507, 96.390, 1894.0, 43.5201
31.846028072, 96.390, 1971.0, 44.3959
31.872288638, 96.390, 1964.0, 44.3170
31.898549203, 96.390, 1922.0, 43.8406
31.924809769, 96.390, 1892.0, 43.4971
31.951070334, 96.390, 1980.0, 44.4972
31.977330899, 96.390, 1938.0, 44.0227
32.003591465, 96.390, 1940.0, 44.0454
32.029852030, 96.390, 1971.0, 44.3959
32.056112595, 96.390, 1977.0, 44.4635
32.082373161, 96.390, 1918.0, 43.7950
32.108633726, 96.390, 1985.0, 44.5533
32.134894291, 96.390, 1873.0, 43.2782
32.161154857, 96.390, 1936.0, 44.0000
32.187415422, 96.390, 1851.0, 43.0232
32.213675987, 96.390, 1916.0, 43.7721
32.239936553, 96.390, 1880.0, 43.3590
32.266197118, 96.390, 1867.0, 43.2088
32.292457683, 96.390, 1943.0, 44.0795
32.318718249, 96.390, 1828.0, 42.7551
32.344978814, 96.390, 1922.0, 43.8406
32.371239380, 96.390, 1831.0, 42.7902
32.397499945, 96.390, 1961.0, 44.2832
32.423760510, 96.390, 1888.0, 43.4511
32.450021076, 96.390, 1940.0, 44.0454
32.476281641, 96.390, 1963.0, 44.3058
32.502542206, 96.390, 1914.0, 43.7493
32.528802772, 96.390, 1777.0, 42.1545
32.555063337, 96.390, 1904.0, 43.6348
32.581323902, 96.390, 1949.0, 44.1475
32.607584468, 96.390, 1880.0, 43.3590
32.633845033, 96.390, 1922.0, 43.8406
32.660105598, 96.390, 1814.0, 42.5911
32.686366164, 96.390, 1879.0, 43.3474
32.712626729, 96.390, 1916.0, 43.7721
32.738887295, 96.390, 1919.0, 43.8064
32.765147860, 96.390, 1918.0, 43.7950
32.791408425, 96.390, 1914.0, 43.7493
32.817668991, 96.390, 1767.0, 42.0357
32.843929556, 96.390, 1850.0, 43.0116
32.870190121, 96.390, 1885.0, 43.4166
32.896450687, 96.390, 1827.0, 42.7434
32.922711252, 96.390, 1903.0, 43.6234
32.948971817, 96.390, 1840.0, 42.8952
32.975232383, 96.390, 1962.0, 44.2945
33.001492948, 96.390, 1900.0, 43.5890
33.027753513, 96.390, 1895.0, 43.5316
33.054014079, 96.390, 1808.0, 42.5206
33.080274644, 96.390, 1873.0, 43.2782
33.106535209, 96.390, 1865.0, 43.1856
33.132795775, 96.390, 1889.0, 43.4626
33.159056340, 96.390, 1900.0, 43.5890
33.185316906, 96.390, 1899.0, 43.5775
33.211577471, 96.390, 1857.0, 43.0929
33.237838036, 96.390, 1978.0, 44.4747
33.264098602, 96.390, 1968.0, 44.3621
33.290359167, 96.390, 1888.0, 43.4511
33.316619732, 96.390, 1829.0, 42.7668
33.342880298, 96.390, 1955.0, 44.2154
33.369140863, 96.390, 1935.0, 43.9886
33.395401428, 96.390, 1877.0, 43.3244
33.421661994, 96.390, 1986.0, 44.5646
33.447922559, 96.390, 1952.0, 44.1814
33.474183124, 96.390, 1904.0, 43.6348
33.500443690, 96.390, 1976.0, 44.4522
33.526704255, 96.390, 1936.0, 44.0000
33.552964820, 96.390, 1976.0, 44.4522
33.579225386, 96.390, 1964.0, 44.3170
33.605485951, 96.390, 1931.0, 43.9431
33.631746517, 96.390, 1948.0, 44.1362
33.658007082, 96.390, 1927.0, 43.8976
33.684267647, 96.390, 2007.0, 44.7996
33.710528213, 96.390, 1970.0, 44.3847
33.736788778, 96.390, 1918.0, 43.7950
33.763049343, 96.390, 2008.0, 44.8107
33.789309909, 96.390, 1947.0, 44.1248
33.815570474, 96.390, 2017.0, 44.9110
33.841831039, 96.390, 1965.0, 44.3283
33.868091605, 96.390, 2088.0, 45.6946
33.894352170, 96.390, 1970.0, 44.3847
33.920612735, 96.390, 2049.0, 45.2659
33.946873301, 96.390, 1987.0, 44.5758
33.973133866, 96.390, 2069.0, 45.4863
33.999394432, 96.390, 2061.0, 45.3982
34.025654997, 96.390, 2100.0, 45.8258
34.051915562, 96.390, 2147.0, 46.3357
34.078176128, 96.390, 2067.0, 45.4643
34.104436693, 96.390, 2084.0, 45.6508
34.130697258, 96.390, 2158.0, 46.4543
34.156957824, 96.390, 2074.0, 45.5412
34.183218389, 96.390, 2124.0, 46.0869
34.209478954, 96.390, 2091.0, 45.7275
34.235739520, 96.390, 2187.0, 46.7654
34.262000085, 96.390, 2234.0, 47.2652
34.288260650, 96.390, 2285.0, 47.8017
34.314521216, 96.390, 2244.0, 47.3709
34.340781781, 96.390, 2303.0, 47.9896
34.367042346, 96.390, 2284.0, 47.7912
34.393302912, 96.390, 2239.0, 47.3181
34.419563477, 96.390, 2248.0, 47.4131
34.445824043, 96.390, 2390.0, 48.8876
34.472084608, 96.390, 2293.0, 47.8853
34.498345173, 96.390, 2258.0, 47.5184
34.524605739, 96.390, 2349.0, 48.4665
34.550866304, 96.390, 2305.0, 48.0104
34.577126869, 96.390, 2279.0, 47.7389
34.603387435, 96.390, 2402.0, 49.0102
34.629648000, 96.390, 2412.0, 49.1121
34.655908565, 96.390, 2380.0, 48.7852
34.682169131, 96.390, 2353.0, 48.5077
34.708429696, 96.390, 2428.0, 49.2747
34.734690261, 96.390, 2329.0, 48.2597
34.760950827, 96.390, 2389.0, 48.8774
34.787211392, 96.390, 2462.0, 49.6185
34.813471958, 96.390, 2518.0, 50.1797
34.839732523, 96.390, 2344.0, 48.4149
34.865993088, 96.390, 2422.0, 49.2138
34.892253654, 96.390, 2359.0, 48.5695
34.918514219, 96.390, 2480.0, 49.7996
34.944774784, 96.390, 2366.0, 48.6415
34.971035350, 96.390, 2440.0, 49.3964
34.997295915, 96.390, 2427.0, 49.2646
35.023556480, 96.390, 2394.0, 48.9285
35.049817046, 96.390, 2407.0, 49.0612
35.076077611, 96.390, 2383.0, 48.8160
35.102338176, 96.390, 2358.0, 48.5592
35.128598742, 96.390, 2356.0, 48.5386
35.154859307, 96.390, 2344.0, 48.4149
35.181119872, 96.390, 2369.0, 48.6724
35.207380438, 96.390, 2306.0, 48.0208
35.233641003, 96.390, 2317.0, 48.1352
35.259901569, 96.390, 2339.0, 48.3632
35.286162134, 96.390, 2407.0, 49.0612
35.312422699, 96.390, 2369.0, 48.6724
35.338683265, 96.390, 2410.0, 49.0918
35.364943830, 96.390, 2284.0, 47.7912
35.391204395, 96.390, 2261.0, 47.5500
35.417464961, 96.390, 2313.0, 48.0937
35.443725526, 96.390, 2309.0, 48.0521
35.469986091, 96.390, 2347.0, 48.4458
35.496246657, 96.390, 2335.0, 48.3218
35.522507222, 96.390, 2278.0, 47.7284
35.548767787, 96.390, 2263.0, 47.5710
35.575028353, 96.390, 2293.0, 47.8853
35.601288918, 96.390, 2152.0, 46.3897
35.627549484, 96.390, 2301.0, 47.9687
35.653810049, 96.390, 2266.0, 47.6025
35.680070614, 96.390, 2266.0, 47.6025
35.706331180, 96.390, 2210.0, 47.0106
35.732591745, 96.390, 2212.0, 47.0319
35.758852310, 96.390, 2226.0, 47.1805
35.785112876, 96.390, 2234.0, 47.2652
35.811373441, 96.390, 2302.0, 47.9792
35.837634006, 96.390, 2205.0, 46.9574
35.863894572, 96.390, 2154.0, 46.4112
35.890155137, 96.390, 2158.0, 46.4543
35.916415702, 96.390, 2118.0, 46.0217
35.942676268, 96.390, 2240.0, 47.3286
35.968936833, 96.390, 2229.0, 47.2123
35.995197398, 96.390, 2169.0, 46.5725
36.021457964, 96.390, 2108.0, 45.9130
36.047718529, 96.390, 2162.0, 46.4973
36.073979095, 96.390, 2220.0, 47.1169
36.100239660, 96.390, 2123.0, 46.0760
36.126500225, 96.390, 2157.0, 46.4435
36.152760791, 96.390, 2192.0, 46.8188
36.179021356, 96.390, 2042.0, 45.1885
36.205281921, 96.390, 2145.0, 46.3141
36.231542487, 96.390, 2095.0, 45.7712
36.257803052, 96.390, 2050.0, 45.2769
36.284063617, 96.390, 2111.0, 45.9456
36.310324183, 96.390, 2036.0, 45.1221
36.336584748, 96.390, 2088.0, 45.6946
36.362845313, 96.390, 1985.0, 44.5533
36.389105879, 96.390, 2032.0, 45.0777
36.415366444, 96.390, 2057.0, 45.3542
36.441627010, 96.390, 2036.0, 45.1221
36.467887575, 96.390, 1906.0, 43.6578
36.494148140, 96.390, 1990.0, 44.6094
36.520408706, 96.390, 2027.0, 45.0222
36.546669271, 96.390, 1955.0, 44.2154
36.572929836, 96.390, 1972.0, 44.4072
36.599190402, 96.390, 1958.0, 44.2493
36.625450967, 96.390, 1988.0, 44.5870
36.651711532, 96.390, 1978.0, 44.4747
36.677972098, 96.390, 1952.0, 44.1814
36.704232663, 96.390, 1944.0, 44.0908
36.730493228, 96.390, 2038.0, 45.1442
36.756753794, 96.390, 1966.0, 44.3396
36.783014359, 96.390, 1958.0, 44.2493
36.809274924, 96.390, 2019.0, 44.9333
36.835535490, 96.390, 1932.0, 43.9545
36.861796055, 96.390, 1970.0, 44.3847
36.888056621, 96.390, 1963.0, 44.3058
36.914317186, 96.390, 2006.0, 44.7884
36.940577751, 96.390, 1963.0, 44.3058
36.966838317, 96.390, 1972.0, 44.4072
36.993098882, 96.390, 2046.0, 45.2327
37.019359447, 96.390, 1932.0, 43.9545
37.045620013, 96.390, 1938.0, 44.0227
37.071880578, 96.390, 1940.0, 44.0454
37.098141143, 96.390, 1898.0, 43.5660
37.124401709, 96.390, 1894.0, 43.5201
37.150662274, 96.390, 1877.0, 43.3244
37.176922839, 96.390, 1853.0, 43.0465
37.203183405, 96.390, 1949.0, 44.1475
37.229443970, 96.390, 1972.0, 44.4072
37.255704535, 96.390, 1989.0, 44.5982
37.281965101, 96.390, 1936.0, 44.0000
37.308225666, 96.390, 1914.0, 43.7493
37.334486232, 96.390, 1944.0, 44.0908
37.360746797, 96.390, 1870.0, 43.2435
37.387007362, 96.390, 1839.0, 42.8836
37.413267928, 96.390, 1880.0, 43.3590
37.439528493, 96.390, 1796.0, 42.3792
37.465789058, 96.390, 1786.0, 42.2611
37.492049624, 96.390, 1785.0, 42.2493
37.518310189, 96.390, 1834.0, 42.8252
37.544570754, 96.390, 1926.0, 43.8862
37.570831320, 96.390, 1865.0, 43.1856
37.597091885, 96.390, 1808.0, 42.5206
37.623352450, 96.390, 1815.0, 42.6028
37.649613016, 96.390, 1844.0, 42.9418
37.675873581, 96.390, 1831.0, 42.7902
37.702134147, 96.390, 1858.0, 43.1045
37.728394712, 96.390, 1806.0, 42.4971
37.754655277, 96.390, 1757.0, 41.9166
37.780915843, 96.390, 1790.0, 42.3084
37.807176408, 96.390, 1837.0, 42.8602
37.833436973, 96.390, 1884.0, 43.4051
37.859697539, 96.390, 1745.0, 41.7732
37.885958104, 96.390, 1735.0, 41.6533
37.912218669, 96.390, 1824.0, 42.7083
37.938479235, 96.390, 1847.0, 42.9767
37.964739800, 96.390, 1810.0, 42.5441
37.991000365, 96.390, 1826.0, 42.7317
38.017260931, 96.390, 1764.0, 42.0000
38.043521496, 96.390, 1833.0, 42.8135
38.069782061, 96.390, 1849.0, 43.0000
38.096042627, 96.390, 1802.0, 42.4500
38.122303192, 96.390, 1840.0, 42.8952
38.148563758, 96.390, 1832.0, 42.8019
38.174824323, 96.390, 1762.0, 41.9762
38.201084888, 96.390, 1732.0, 41.6173
38.227345454, 96.390, 1739.0, 41.7013
38.253606019, 96.390, 1740.0, 41.7133
38.279866584, 96.390, 1761.0, 41.9643
38.306127150, 96.390, 1769.0, 42.0595
38.332387715, 96.390, 1769.0, 42.0595
38.358648280, 96.390, 1774.0, 42.1189
38.384908846, 96.390, 1749.0, 41.8210
38.411169411, 96.390, 1732.0, 41.6173
38.437429976, 96.390, 1735.0, 41.6533
38.463690542, 96.390, 1818.0, 42.6380
38.489951107, 96.390, 1844.0, 42.9418
38.516211673, 96.390, 1754.0, 41.8808
38.542472238, 96.390, 1714.0, 41.4005
38.568732803, 96.390, 1752.0, 41.8569
38.594993369, 96.390, 1697.0, 41.1947
38.621253934, 96.390, 1706.0, 41.3038
38.647514499, 96.390, 1755.0, 41.8927
38.673775065, 96.390, 1698.0, 41.2068
38.700035630, 96.390, 1720.0, 41.4729
38.726296195, 96.390, 1761.0, 41.9643
38.752556761, 96.390, 1670.0, 40.8656
38.778817326, 96.390, 1702.0, 41.2553
38.805077891, 96.390, 1777.0, 42.1545
38.831338457, 96.390, 1724.0, 41.5211
38.857599022, 96.390, 1717.0, 41.4367
38.883859587, 96.390, 1704.0, 41.2795
38.910120153, 96.390, 1712.0, 41.3763
38.936380718, 96.390, 1730.0, 41.5933
38.962641284, 96.390, 1695.0, 41.1704
38.988901849, 96.390, 1672.0, 40.8901
39.015162414, 96.390, 1692.0, 41.1339
39.041422980, 96.390, 1664.0, 40.7922
39.067683545, 96.390, 1689.0, 41.0974
39.093944110, 96.390, 1625.0, 40.3113
39.120204676, 96.390, 1663.0, 40.7799
39.146465241, 96.390, 1684.0, 41.0366
39.172725806, 96.390, 1623.0, 40.2865
39.198986372, 96.390, 1696.0, 41.1825
39.225246937, 96.390, 1635.0, 40.4351
39.251507502, 96.390, 1610.0, 40.1248
39.277768068, 96.390, 1655.0, 40.6817
39.304028633, 96.390, 1669.0, 40.8534
39.330289199, 96.390, 1684.0, 41.0366
39.356549764, 96.390, 1604.0, 40.0500
39.382810329, 96.390, 1624.0, 40.2989
39.409070895, 96.390, 1632.0, 40.3980
39.435331460, 96.390, 1643.0, 40.5339
39.461592025, 96.390, 1694.0, 41.1582
39.487852591, 96.390, 1652.0, 40.6448
39.514113156, 96.390, 1621.0, 40.2616
39.540373721, 96.390, 1597.0, 39.9625
39.566634287, 96.390, 1626.0, 40.3237
39.592894852, 96.390, 1609.0, 40.1123
39.619155417, 96.390, 1625.0, 40.3113
39.645415983, 96.390, 1606.0, 40.0749
39.671676548, 96.390, 1644.0, 40.5463
39.697937113, 96.390, 1673.0, 40.9023
39.724197679, 96.390, 1728.0, 41.5692
39.750458244, 96.390, 1513.0, 38.8973
39.776718810, 96.390, 1603.0, 40.0375
39.802979375, 96.390, 1521.0, 39.0000
39.829239940, 96.390, 1642.0, 40.5216
39.855500506, 96.390, 1516.0, 38.9358
39.881761071, 96.390, 1545.0, 39.3065
39.908021636, 96.390, 1487.0, 38.5616
39.934282202, 96.390, 1595.0, 39.9375
39.960542767, 96.390, 1563.0, 39.5348
39.986803332, 96.390, 1572.0, 39.6485
40.013063898, 96.390, 1583.0, 39.7869
40.039324463, 96.390, 1529.0, 39.1024
40.065585028, 96.390, 1589.0, 39.8623
40.091845594, 96.390, 1497.0, 38.6911
40.118106159, 96.390, 1573.0, 39.6611
40.144366725, 96.390, 1583.0, 39.7869
40.170627290, 96.390, 1543.0, 39.2810
40.196887855, 96.390, 1524.0, 39.0384
40.223148421, 96.390, 1538.0, 39.2173
40.249408986, 96.390, 1564.0, 39.5474
40.275669551, 96.390, 1532.0, 39.1408
40.301930117, 96.390, 1520.0, 38.9872
40.328190682, 96.390, 1443.0, 37.9868
40.354451247, 96.390, 1514.0, 38.9102
40.380711813, 96.390, 1467.0, 38.3014
40.406972378, 96.390, 1510.0, 38.8587
40.433232943, 96.390, 1510.0, 38.8587
40.459493509, 96.390, 1547.0, 39.3319
40.485754074, 96.390, 1538.0, 39.2173
40.512014639, 96.390, 1481.0, 38.4838
40.538275205, 96.390, 1542.0, 39.2683
40.564535770, 96.390, 1529.0, 39.1024
40.590796336, 96.390, 1576.0, 39.6989
40.617056901, 96.390, 1491.0, 38.6135
40.643317466, 96.390, 1520.0, 38.9872
40.669578032, 96.390, 1570.0, 39.6232
40.695838597, 96.390, 1466.0, 38.2884
40.722099162, 96.390, 1440.0, 37.9473
40.748359728, 96.390, 1473.0, 38.3797
40.774620293, 96.390, 1512.0, 38.8844
40.800880858, 96.390, 1569.0, 39.6106
40.827141424, 96.390, 1552.0, 39.3954
40.853401989, 96.390, 1444.0, 38.0000
40.879662554, 96.390, 1489.0, 38.5876
40.905923120, 96.390, 1457.0, 38.1707
40.932183685, 96.390, 1522.0, 39.0128
40.958444251, 96.390, 1486.0, 38.5487
40.984704816, 96.390, 1503.0, 38.7685
41.010965381, 96.390, 1470.0, 38.3406
41.037225947, 96.390, 1381.0, 37.1618
41.063486512, 96.390, 1419.0, 37.6696
41.089747077, 96.390, 1420.0, 37.6829
41.116007643, 96.390, 1481.0, 38.4838
41.142268208, 96.390, 1462.0, 38.2361
41.168528773, 96.390, 1424.0, 37.7359
41.194789339, 96.390, 1399.0, 37.4032
41.221049904, 96.390, 1468.0, 38.3145
41.247310469, 96.390, 1435.0, 37.8814
41.273571035, 96.390, 1393.0, 37.3229
41.299831600, 96.390, 1453.0, 38.1182
41.326092165, 96.390, 1408.0, 37.5233
41.352352731, 96.390, 1379.0, 37.1349
41.378613296, 96.390, 1459.0, 38.1969
41.404873862, 96.390, 1372.0, 37.0405
41.431134427, 96.390, 1423.0, 37.7227
41.457394992, 96.390, 1441.0, 37.9605
41.483655558, 96.390, 1402.0, 37.4433
41.509916123, 96.390, 1422.0, 37.7094
41.536176688, 96.390, 1368.0, 36.9865
41.562437254, 96.390, 1378.0, 37.1214
41.588697819, 96.390, 1428.0, 37.7889
41.614958384, 96.390, 1420.0, 37.6829
41.641218950, 96.390, 1395.0, 37.3497
41.667479515, 96.390, 1403.0, 37.4566
41.693740080, 96.390, 1348.0, 36.7151
41.720000646, 96.390, 1391.0, 37.2961
41.746261211, 96.390, 1370.0, 37.0135
41.772521776, 96.390, 1410.0, 37.5500
41.798782342, 96.390, 1374.0, 37.0675
41.825042907, 96.390, 1369.0, 37.0000
41.851303473, 96.390, 1447.0, 38.0395
41.877564038, 96.390, 1336.0, 36.5513
41.903824603, 96.390, 1395.0, 37.3497
41.930085169, 96.390, 1389.0, 37.2693
41.956345734, 96.390, 1330.0, 36.4692
41.982606299, 96.390, 1417.0, 37.6431
42.008866865, 96.390, 1344.0, 36.6606
42.035127430, 96.390, 1359.0, 36.8646
42.061387995, 96.390, 1409.0, 37.5366
42.087648561, 96.390, 1377.0, 37.1080
42.113909126, 96.390, 1344.0, 36.6606
42.140169691, 96.390, 1326.0, 36.4143
42.166430257, 96.390, 1344.0, 36.6606
42.192690822, 96.390, 1386.0, 37.2290
42.218951388, 96.390, 1429.0, 37.8021
42.245211953, 96.390, 1346.0, 36.6879
42.271472518, 96.390, 1326.0, 36.4143
42.297733084, 96.390, 1248.0, 35.3270
42.323993649, 96.390, 1412.0, 37.5766
42.350254214, 96.390, 1326.0, 36.4143
42.376514780, 96.390, 1408.0, 37.5233
42.402775345, 96.390, 1377.0, 37.1080
42.429035910, 96.390, 1383.0, 37.1887
42.455296476, 96.390, 1392.0, 37.3095
42.481557041, 96.390, 1316.0, 36.2767
42.507817606, 96.390, 1400.0, 37.4166
42.534078172, 96.390, 1281.0, 35.7911
42.560338737, 96.390, 1388.0, 37.2559
42.586599302, 96.390, 1330.0, 36.4692
42.612859868, 96.390, 1360.0, 36.8782
42.639120433, 96.390, 1308.0, 36.1663
42.665380999, 96.390, 1372.0, 37.0405
42.691641564, 96.390, 1365.0, 36.9459
42.717902129, 96.390, 1303.0, 36.0971
42.744162695, 96.390, 1316.0, 36.2767
42.770423260, 96.390, 1357.0, 36.8375
42.796683825, 96.390, 1298.0, 36.0278
42.822944391, 96.390, 1276.0, 35.7211
42.849204956, 96.390, 1344.0, 36.6606
42.875465521, 96.390, 1405.0, 37.4833
42.901726087, 96.390, 1409.0, 37.5366
42.927986652, 96.390, 1361.0, 36.8917
42.954247217, 96.390, 1332.0, 36.4966
42.980507783, 96.390, 1373.0, 37.0540
43.006768348, 96.390, 1348.0, 36.7151
43.033028914, 96.390, 1332.0, 36.4966
43.059289479, 96.390, 1293.0, 35.9583
43.085550044, 96.390, 1315.0, 36.2629
43.111810610, 96.390, 1384.0, 37.2022
43.138071175, 96.390, 1318.0, 36.3043
43.164331740, 96.390, 1370.0, 37.0135
43.190592306, 96.390, 1376.0, 37.0945
43.216852871, 96.390, 1344.0, 36.6606
43.243113436, 96.390, 1305.0, 36.1248
43.269374002, 96.390, 1318.0, 36.3043
43.295634567, 96.390, 1343.0, 36.6470
43.321895132, 96.390, 1343.0, 36.6470
43.348155698, 96.390, 1274.0, 35.6931
43.374416263, 96.390, 1322.0, 36.3593
43.400676828, 96.390, 1284.0, 35.8329
43.426937394, 96.390, 1308.0, 36.1663
43.453197959, 96.390, 1253.0, 35.3977
43.479458525, 96.390, 1359.0, 36.8646
43.505719090, 96.390, 1305.0, 36.1248
43.531979655, 96.390, 1318.0, 36.3043
43.558240221, 96.390, 1265.0, 35.5668
43.584500786, 96.390, 1261.0, 35.5106
43.610761351, 96.390, 1353.0, 36.7831
43.637021917, 96.390, 1329.0, 36.4555
43.663282482, 96.390, 1375.0, 37.0810
43.689543047, 96.390, 1327.0, 36.4280
43.715803613, 96.390, 1311.0, 36.2077
43.742064178, 96.390, 1366.0, 36.9594
43.768324743, 96.390, 1320.0, 36.3318
43.794585309, 96.390, 1322.0, 36.3593
43.820845874, 96.390, 1355.0, 36.8103
43.847106440, 96.390, 1356.0, 36.8239
43.873367005, 96.390, 1282.0, 35.8050
43.899627570, 96.390, 1282.0, 35.8050
43.925888136, 96.390, 1377.0, 37.1080
43.952148701, 96.390, 1364.0, 36.9324
43.978409266, 96.390, 1349.0, 36.7287
44.004669832, 96.390, 1368.0, 36.9865
44.030930397, 96.390, 1316.0, 36.2767
44.057190962, 96.390, 1344.0, 36.6606
44.083451528, 96.390, 1359.0, 36.8646
44.109712093, 96.390, 1321.0, 36.3456
44.135972658, 96.390, 1272.0, 35.6651
44.162233224, 96.390, 1360.0, 36.8782
44.188493789, 96.390, 1384.0, 37.2022
44.214754354, 96.390, 1265.0, 35.5668
44.241014920, 96.390, 1309.0, 36.1801
44.267275485, 96.390, 1284.0, 35.8329
44.293536051, 96.390, 1358.0, 36.8511
44.319796616, 96.390, 1323.0, 36.3731
44.346057181, 96.390, 1355.0, 36.8103
44.372317747, 96.390, 1354.0, 36.7967
44.398578312, 96.390, 1310.0, 36.1939
44.424838877, 96.390, 1380.0, 37.1484
44.451099443, 96.390, 1286.0, 35.8608
44.477360008, 96.390, 1333.0, 36.5103
44.503620573, 96.390, 1379.0, 37.1349
44.529881139, 96.390, 1379.0, 37.1349
44.556141704, 96.390, 1314.0, 36.2491
44.582402269, 96.390, 1393.0, 37.3229
44.608662835, 96.390, 1313.0, 36.2353
44.634923400, 96.390, 1351.0, 36.7560
44.661183966, 96.390, 1373.0, 37.0540
44.687444531, 96.390, 1313.0, 36.2353
44.713705096, 96.390, 1334.0, 36.5240
44.739965662, 96.390, 1330.0, 36.4692
44.766226227, 96.390, 1292.0, 35.9444
44.792486792, 96.390, 1271.0, 35.6511
44.818747358, 96.390, 1342.0, 36.6333
44.845007923, 96.390, 1362.0, 36.9053
44.871268488, 96.390, 1338.0, 36.5787
44.897529054, 96.390, 1315.0, 36.2629
44.923789619, 96.390, 1413.0, 37.5899
44.950050184, 96.390, 1370.0, 37.0135
44.976310750, 96.390, 1292.0, 35.9444
45.002571315, 96.390, 1352.0, 36.7696
45.028831880, 96.390, 1395.0, 37.3497
45.055092446, 96.390, 1314.0, 36.2491
45.081353011, 96.390, 1423.0, 37.7227
45.107613577, 96.390, 1386.0, 37.2290
45.133874142, 96.390, 1327.0, 36.4280
45.160134707, 96.390, 1327.0, 36.4280
45.186395273, 96.390, 1318.0, 36.3043
45.212655838, 96.390, 1298.0, 36.0278
45.238916403, 96.390, 1348.0, 36.7151
45.265176969, 96.390, 1266.0, 35.5809
45.291437534, 96.390, 1349.0, 36.7287
45.317698099, 96.390, 1361.0, 36.8917
45.343958665, 96.390, 1305.0, 36.1248
45.370219230, 96.390, 1339.0, 36.5923
45.396479795, 96.390, 1420.0, 37.6829
45.422740361, 96.390, 1355.0, 36.8103
45.449000926, 96.390, 1355.0, 36.8103
45.475261492, 96.390, 1378.0, 37.1214
45.501522057, 96.390, 1323.0, 36.3731
45.527782622, 96.390, 1361.0, 36.8917
45.554043188, 96.390, 1338.0, 36.5787
45.580303753, 96.390, 1348.0, 36.7151
45.606564318, 96.390, 1324.0, 36.3868
45.632824884, 96.390, 1359.0, 36.8646
45.659085449, 96.390, 1348.0, 36.7151
45.685346014, 96.390, 1316.0, 36.2767
45.711606580, 96.390, 1375.0, 37.0810
45.737867145, 96.390, 1316.0, 36.2767
45.764127710, 96.390, 1353.0, 36.7831
45.790388276, 96.390, 1295.0, 35.9861
45.816648841, 96.390, 1376.0, 37.0945
45.842909406, 96.390, 1315.0, 36.2629
45.869169972, 96.390, 1324.0, 36.3868
45.895430537, 96.390, 1388.0, 37.2559
45.921691103, 96.390, 1276.0, 35.7211
45.947951668, 96.390, 1323.0, 36.3731
45.974212233, 96.390, 1338.0, 36.5787
46.000472799, 96.390, 1323.0, 36.3731
46.026733364, 96.390, 1354.0, 36.7967
46.052993929, 96.390, 1346.0, 36.6879
46.079254495, 96.390, 1341.0, 36.6197
46.105515060, 96.390, 1313.0, 36.2353
46.131775625, 96.390, 1314.0, 36.2491
46.158036191, 96.390, 1289.0, 35.9026
46.184296756, 96.390, 1395.0, 37.3497
46.210557321, 96.390, 1283.0, 35.8190
46.236817887, 96.390, 1317.0, 36.2905
46.263078452, 96.390, 1351.0, 36.7560
46.289339017, 96.390, 1364.0, 36.9324
46.315599583, 96.390, 1310.0, 36.1939
46.341860148, 96.390, 1289.0, 35.9026
46.368120714, 96.390, 1296.0, 36.0000
46.394381279, 96.390, 1329.0, 36.4555
46.420641844, 96.390, 1335.0, 36.5377
46.446902410, 96.390, 1274.0, 35.6931
46.473162975, 96.390, 1346.0, 36.6879
46.499423540, 96.390, 1276.0, 35.7211
46.525684106, 96.390, 1335.0, 36.5377
46.551944671, 96.390, 1288.0, 35.8887
46.578205236, 96.390, 1248.0, 35.3270
46.604465802, 96.390, 1301.0, 36.0694
46.630726367, 96.390, 1315.0, 36.2629
46.656986932, 96.390, 1290.0, 35.9166
46.683247498, 96.390, 1349.0, 36.7287
46.709508063, 96.390, 1287.0, 35.8748
46.735768629, 96.390, 1273.0, 35.6791
46.762029194, 96.390, 1322.0, 36.3593
46.788289759, 96.390, 1248.0, 35.3270
46.814550325, 96.390, 1340.0, 36.6060
46.840810890, 96.390, 1327.0, 36.4280
46.867071455, 96.390, 1278.0, 35.7491
46.893332021, 96.390, 1307.0, 36.1525
46.919592586, 96.390, 1324.0, 36.3868
46.945853151, 96.390, 1328.0, 36.4417
46.972113717, 96.390, 1304.0, 36.1109
46.998374282, 96.390, 1294.0, 35.9722
47.024634847, 96.390, 1270.0, 35.6371
47.050895413, 96.390, 1305.0, 36.1248
47.077155978, 96.390, 1281.0, 35.7911
47.103416543, 96.390, 1293.0, 35.9583
47.129677109, 96.390, 1277.0, 35.7351
47.155937674, 96.390, 1237.0, 35.1710
47.182198240, 96.390, 1253.0, 35.3977
47.208458805, 96.390, 1246.0, 35.2987
47.234719370, 96.390, 1287.0, 35.8748
47.260979936, 96.390, 1284.0, 35.8329
47.287240501, 96.390, 1303.0, 36.0971
47.313501066, 96.390, 1278.0, 35.7491
47.339761632, 96.390, 1257.0, 35.4542
47.366022197, 96.390, 1265.0, 35.5668
47.392282762, 96.390, 1289.0, 35.9026
47.418543328, 96.390, 1279.0, 35.7631
47.444803893, 96.390, 1254.0, 35.4119
47.471064458, 96.390, 1294.0, 35.9722
47.497325024, 96.390, 1209.0, 34.7707
47.523585589, 96.390, 1190.0, 34.4964
47.549846155, 96.390, 1235.0, 35.1426
47.576106720, 96.390, 1232.0, 35.0999
47.602367285, 96.390, 1207.0, 34.7419
47.628627851, 96.390, 1303.0, 36.0971
47.654888416, 96.390, 1277.0, 35.7351
47.681148981, 96.390, 1233.0, 35.1141
47.707409547, 96.390, 1228.0, 35.0428
47.733670112, 96.390, 1240.0, 35.2136
47.759930677, 96.390, 1215.0, 34.8569
47.786191243, 96.390, 1238.0, 35.1852
47.812451808, 96.390, 1203.0, 34.6843
47.838712373, 96.390, 1201.0, 34.6554
47.864972939, 96.390, 1194.0, 34.5543
47.891233504, 96.390, 1207.0, 34.7419
47.917494069, 96.390, 1274.0, 35.6931
47.943754635, 96.390, 1260.0, 35.4965
47.970015200, 96.390, 1107.0, 33.2716
47.996275766, 96.390, 1238.0, 35.1852
48.022536331, 96.390, 1133.0, 33.6601
48.048796896, 96.390, 1240.0, 35.2136
48.075057462, 96.390, 1185.0, 34.4238
48.101318027, 96.390, 1276.0, 35.7211
48.127578592, 96.390, 1219.0, 34.9142
48.153839158, 96.390, 1214.0, 34.8425
48.180099723, 96.390, 1217.0, 34.8855
48.206360288, 96.390, 1261.0, 35.5106
48.232620854, 96.390, 1129.0, 33.6006
48.258881419, 96.390, 1192.0, 34.5254
48.285141984, 96.390, 1153.0, 33.9559
48.311402550, 96.390, 1180.0, 34.3511
48.337663115, 96.390, 1216.0, 34.8712
48.363923681, 96.390, 1179.0, 34.3366
48.390184246, 96.390, 1161.0, 34.0735
48.416444811, 96.390, 1201.0, 34.6554
48.442705377, 96.390, 1188.0, 34.4674
48.468965942, 96.390, 1172.0, 34.2345
48.495226507, 96.390, 1165.0, 34.1321
48.521487073, 96.390, 1265.0, 35.5668
48.547747638, 96.390, 1175.0, 34.2783
48.574008203, 96.390, 1183.0, 34.3948
48.600268769, 96.390, 1203.0, 34.6843
48.626529334, 96.390, 1137.0, 33.7194
48.652789899, 96.390, 1150.0, 33.9116
48.679050465, 96.390, 1167.0, 34.1614
48.705311030, 96.390, 1126.0, 33.5559
48.731571595, 96.390, 1159.0, 34.0441
48.757832161, 96.390, 1171.0, 34.2199
48.784092726, 96.390, 1172.0, 34.2345
48.810353292, 96.390, 1147.0, 33.8674
48.836613857, 96.390, 1140.0, 33.7639
48.862874422, 96.390, 1117.0, 33.4215
48.889134988, 96.390, 1140.0, 33.7639
48.915395553, 96.390, 1110.0, 33.3167
48.941656118, 96.390, 1110.0, 33.3167
48.967916684, 96.390, 1170.0, 34.2053
48.994177249, 96.390, 1154.0, 33.9706
49.020437814, 96.390, 1204.0, 34.6987
49.046698380, 96.390, 1150.0, 33.9116
49.072958945, 96.390, 1129.0, 33.6006
49.099219510, 96.390, 1108.0, 33.2866
49.125480076, 96.390, 1154.0, 33.9706
49.151740641, 96.390, 1145.0, 33.8378
49.178001207, 96.390, 1155.0, 33.9853
49.204261772, 96.390, 1139.0, 33.7491
49.230522337, 96.390, 1158.0, 34.0294
49.256782903, 96.390, 1138.0, 33.7343
49.283043468, 96.390, 1088.0, 32.9848
49.309304033, 96.390, 1143.0, 33.8083
49.335564599, 96.390, 1165.0, 34.1321
49.361825164, 96.390, 1130.0, 33.6155
49.388085729, 96.390, 1105.0, 33.2415
49.414346295, 96.390, 1173.0, 34.2491
49.440606860, 96.390, 1167.0, 34.1614
49.466867425, 96.390, 1094.0, 33.0757
49.493127991, 96.390, 1132.0, 33.6452
49.519388556, 96.390, 1120.0, 33.4664
49.545649121, 96.390, 1070.0, 32.7109
49.571909687, 96.390, 1070.0, 32.7109
49.598170252, 96.390, 1142.0, 33.7935
49.624430818, 96.390, 1110.0, 33.3167
49.650691383, 96.390, 1105.0, 33.2415
49.676951948, 96.390, 1093.0, 33.0606
49.703212514, 96.390, 1111.0, 33.3317
49.729473079, 96.390, 1058.0, 32.5269
49.755733644, 96.390, 1094.0, 33.0757
49.781994210, 96.390, 1125.0, 33.5410
49.808254775, 96.390, 1070.0, 32.7109
49.834515340, 96.390, 1083.0, 32.9090
49.860775906, 96.390, 1126.0, 33.5559
49.887036471, 96.390, 1140.0, 33.7639
49.913297036, 96.390, 1074.0, 32.7719
49.939557602, 96.390, 1060.0, 32.5576
49.965818167, 96.390, 1064.0, 32.6190
49.992078732, 96.390, 1031.0, 32.1092
50.018339298, 96.390, 1091.0, 33.0303
50.044599863, 96.390, 1059.0, 32.5423
50.070860429, 96.390, 1102.0, 33.1964
50.097120994, 96.390, 1040.0, 32.2490
50.123381559, 96.390, 1064.0, 32.6190
50.149642125, 96.390, 1076.0, 32.8024
50.175902690, 96.390, 1070.0, 32.7109
50.202163255, 96.390, 1057.0, 32.5115
50.228423821, 96.390, 1102.0, 33.1964
50.254684386, 96.390, 1053.0, 32.4500
50.280944951, 96.390, 1114.0, 33.3766
50.307205517, 96.390, 1087.0, 32.9697
50.333466082, 96.390, 1115.0, 33.3916
50.359726647, 96.390, 1031.0, 32.1092
50.385987213, 96.390, 1004.0, 31.6860
50.412247778, 96.390, 1055.0, 32.4808
50.438508344, 96.390, 1088.0, 32.9848
50.464768909, 96.390, 990.0, 31.4643
50.491029474, 96.390, 1070.0, 32.7109
50.517290040, 96.390, 1059.0, 32.5423
50.543550605, 96.390, 1043.0, 32.2955
50.569811170, 96.390, 1081.0, 32.8786
50.596071736, 96.390, 1078.0, 32.8329
50.622332301, 96.390, 1037.0, 32.2025
50.648592866, 96.390, 1097.0, 33.1210
50.674853432, 96.390, 1089.0, 33.0000
50.701113997, 96.390, 1012.0, 31.8119
50.727374562, 96.390, 982.0, 31.3369
50.753635128, 96.390, 1047.0, 32.3574
50.779895693, 96.390, 1095.0, 33.0908
50.806156258, 96.390, 1048.0, 32.3728
50.832416824, 96.390, 1044.0, 32.3110
50.858677389, 96.390, 1035.0, 32.1714
50.884937955, 96.390, 1007.0, 31.7333
50.911198520, 96.390, 1078.0, 32.8329
50.937459085, 96.390, 1005.0, 31.7017
50.963719651, 96.390, 1048.0, 32.3728
50.989980216, 96.390, 1074.0, 32.7719
51.016240781, 96.390, 1030.0, 32.0936
51.042501347, 96.390, 1071.0, 32.7261
51.068761912, 96.390, 1000.0, 31.6228
51.095022477, 96.390, 1019.0, 31.9218
51.121283043, 96.390, 991.0, 31.4802
51.147543608, 96.390, 1000.0, 31.6228
51.173804173, 96.390, 1013.0, 31.8277
51.200064739, 96.390, 1032.0, 32.1248
51.226325304, 96.390, 1036.0, 32.1870
51.252585870, 96.390, 1027.0, 32.0468
51.278846435, 96.390, 1010.0, 31.7805
51.305107000, 96.390, 992.0, 31.4960
51.331367566, 96.390, 1024.0, 32.0000
51.357628131, 96.390, 968.0, 31.1127
51.383888696, 96.390, 995.0, 31.5436
51.410149262, 96.390, 1018.0, 31.9061
51.436409827, 96.390, 994.0, 31.5278
51.462670392, 96.390, 993.0, 31.5119
51.488930958, 96.390, 983.0, 31.3528
51.515191523, 96.390, 1025.0, 32.0156
51.541452088, 96.390, 966.0, 31.0805
51.567712654, 96.390, 998.0, 31.5911
51.593973219, 96.390, 1064.0, 32.6190
51.620233784, 96.390, 997.0, 31.5753
51.646494350, 96.390, 989.0, 31.4484
51.672754915, 96.390, 1052.0, 32.4345
51.699015481, 96.390, 997.0, 31.5753
51.725276046, 96.390, 1012.0, 31.8119
51.751536611, 96.390, 955.0, 30.9031
51.777797177, 96.390, 1032.0, 32.1248
51.804057742, 96.390, 992.0, 31.4960
51.830318307, 96.390, 1024.0, 32.0000
51.856578873, 96.390, 1043.0, 32.2955
51.882839438, 96.390, 1009.0, 31.7648
51.909100003, 96.390, 964.0, 31.0483
51.935360569, 96.390, 1011.0, 31.7962
51.961621134, 96.390, 1063.0, 32.6037
51.987881699, 96.390, 990.0, 31.4643
52.014142265, 96.390, 949.0, 30.8058
52.040402830, 96.390, 1065.0, 32.6343
52.066663396, 96.390, 977.0, 31.2570
52.092923961, 96.390, 1001.0, 31.6386
52.119184526, 96.390, 1004.0, 31.6860
52.145445092, 96.390, 1050.0, 32.4037
52.171705657, 96.390, 1014.0, 31.8434
52.197966222, 96.390, 931.0, 30.5123
52.224226788, 96.390, 960.0, 30.9839
52.250487353, 96.390, 993.0, 31.5119
52.276747918, 96.390, 947.0, 30.7734
52.303008484, 96.390, 1020.0, 31.9374
52.329269049, 96.390, 1002.0, 31.6544
52.355529614, 96.390, 983.0, 31.3528
52.381790180, 96.390, 937.0, 30.6105
52.408050745, 96.390, 965.0, 31.0644
52.434311310, 96.390, 938.0, 30.6268
52.460571876, 96.390, 972.0, 31.1769
52.486832441, 96.390, 991.0, 31.4802
52.513093007, 96.390, 942.0, 30.6920
52.539353572, 96.390, 965.0, 31.0644
52.565614137, 96.390, 978.0, 31.2730
52.591874703, 96.390, 967.0, 31.0966
52.618135268, 96.390, 960.0, 30.9839
52.644395833, 96.390, 1011.0, 31.7962
52.670656399, 96.390, 949.0, 30.8058
52.696916964, 96.390, 1028.0, 32.0624
52.723177529, 96.390, 939.0, 30.6431
52.749438095, 96.390, 997.0, 31.5753
52.775698660, 96.390, 985.0, 31.3847
52.801959225, 96.390, 1001.0, 31.6386
52.828219791, 96.390, 1011.0, 31.7962
52.854480356, 96.390, 929.0, 30.4795
52.880740922, 96.390, 961.0, 31.0000
52.907001487, 96.390, 921.0, 30.3480
52.933262052, 96.390, 1039.0, 32.2335
52.959522618, 96.390, 978.0, 31.2730
52.985783183, 96.390, 968.0, 31.1127
53.012043748, 96.390, 1005.0, 31.7017
53.038304314, 96.390, 992.0, 31.4960
53.064564879, 96.390, 977.0, 31.2570
53.090825444, 96.390, 941.0, 30.6757
53.117086010, 96.390, 970.0, 31.1448
53.143346575, 96.390, 916.0, 30.2655
53.169607140, 96.390, 929.0, 30.4795
53.195867706, 96.390, 948.0, 30.7896
53.222128271, 96.390, 948.0, 30.7896
53.248388836, 96.390, 952.0, 30.8545
53.274649402, 96.390, 921.0, 30.3480
53.300909967, 96.390, 921.0, 30.3480
53.327170533, 96.390, 925.0, 30.4138
53.353431098, 96.390, 928.0, 30.4631
53.379691663, 96.390, 960.0, 30.9839
53.405952229, 96.390, 964.0, 31.0483
53.432212794, 96.390, 966.0, 31.0805
53.458473359, 96.390, 982.0, 31.3369
53.484733925, 96.390, 904.0, 30.0666
53.510994490, 96.390, 944.0, 30.7246
53.537255055, 96.390, 969.0, 31.1288
53.563515621, 96.390, 954.0, 30.8869
53.589776186, 96.390, 912.0, 30.1993
53.616036751, 96.390, 851.0, 29.1719
53.642297317, 96.390, 948.0, 30.7896
53.668557882, 96.390, 951.0, 30.8383
53.694818448, 96.390, 928.0, 30.4631
53.721079013, 96.390, 886.0, 29.7658
53.747339578, 96.390, 975.0, 31.2250
53.773600144, 96.390, 922.0, 30.3645
53.799860709, 96.390, 891.0, 29.8496
53.826121274, 96.390, 933.0, 30.5450
53.852381840, 96.390, 889.0, 29.8161
53.878642405, 96.390, 924.0, 30.3974
53.904902970, 96.390, 939.0, 30.6431
53.931163536, 96.390, 843.0, 29.0345
53.957424101, 96.390, 998.0, 31.5911
53.983684666, 96.390, 916.0, 30.2655
54.009945232, 96.390, 955.0, 30.9031
54.036205797, 96.390, 975.0, 31.2250
54.062466362, 96.390, 916.0, 30.2655
54.088726928, 96.390, 899.0, 29.9833
54.114987493, 96.390, 902.0, 30.0333
54.141248059, 96.390, 889.0, 29.8161
54.167508624, 96.390, 879.0, 29.6479
54.193769189, 96.390, 877.0, 29.6142
54.220029755, 96.390, 897.0, 29.9500
54.246290320, 96.390, 913.0, 30.2159
54.272550885, 96.390, 886.0, 29.7658
54.298811451, 96.390, 946.0, 30.7571
54.325072016, 96.390, 904.0, 30.0666
54.351332581, 96.390, 951.0, 30.8383
54.377593147, 96.390, 899.0, 29.9833
54.403853712, 96.390, 947.0, 30.7734
54.430114277, 96.390, 953.0, 30.8707
54.456374843, 96.390, 909.0, 30.1496
54.482635408, 96.390, 963.0, 31.0322
54.508895973, 96.390, 930.0, 30.4959
54.535156539, 96.390, 954.0, 30.8869
54.561417104, 96.390, 923.0, 30.3809
54.587677670, 96.390, 915.0, 30.2490
54.613938235, 96.390, 903.0, 30.0500
54.640198800, 96.390, 912.0, 30.1993
54.666459366, 96.390, 923.0, 30.3809
54.692719931, 96.390, 870.0, 29.4958
54.718980496, 96.390, 914.0, 30.2324
54.745241062, 96.390, 913.0, 30.2159
54.771501627, 96.390, 908.0, 30.1330
54.797762192, 96.390, 848.0, 29.1204
54.824022758, 96.390, 931.0, 30.5123
54.850283323, 96.390, 899.0, 29.9833
54.876543888, 96.390, 870.0, 29.4958
54.902804454, 96.390, 921.0, 30.3480
54.929065019, 96.390, 905.0, 30.0832
54.955325585, 96.390, 893.0, 29.8831
54.981586150, 96.390, 909.0, 30.1496
55.007846715, 96.390, 900.0, 30.0000
55.034107281, 96.390, 889.0, 29.8161
55.060367846, 96.390, 935.0, 30.5778
55.086628411, 96.390, 924.0, 30.3974
55.112888977, 96.390, 832.0, 28.8444
55.139149542, 96.390, 895.0, 29.9166
55.165410107, 96.390, 862.0, 29.3598
55.191670673, 96.390, 961.0, 31.0000
55.217931238, 96.390, 890.0, 29.8329
55.244191803, 96.390, 878.0, 29.6311
55.270452369, 96.390, 923.0, 30.3809
55.296712934, 96.390, 885.0, 29.7489
55.322973499, 96.390, 886.0, 29.7658
55.349234065, 96.390, 936.0, 30.5941
55.375494630, 96.390, 867.0, 29.4449
55.401755196, 96.390, 925.0, 30.4138
55.428015761, 96.390, 925.0, 30.4138
55.454276326, 96.390, 903.0, 30.0500
55.480536892, 96.390, 924.0, 30.3974
55.506797457, 96.390, 905.0, 30.0832
55.533058022, 96.390, 921.0, 30.3480
55.559318588, 96.390, 904.0, 30.0666
55.585579153, 96.390, 951.0, 30.8383
55.611839718, 96.390, 950.0, 30.8221
55.638100284, 96.390, 892.0, 29.8664
55.664360849, 96.390, 924.0, 30.3974
55.690621414, 96.390, 930.0, 30.4959
55.716881980, 96.390, 927.0, 30.4467
55.743142545, 96.390, 889.0, 29.8161
55.769403111, 96.390, 881.0, 29.6816
55.795663676, 96.390, 866.0, 29.4279
55.821924241, 96.390, 836.0, 28.9137
55.848184807, 96.390, 963.0, 31.0322
55.874445372, 96.390, 920.0, 30.3315
55.900705937, 96.390, 862.0, 29.3598
55.926966503, 96.390, 875.0, 29.5804
55.953227068, 96.390, 916.0, 30.2655
55.979487633, 96.390, 904.0, 30.0666
56.005748199, 96.390, 886.0, 29.7658
56.032008764, 96.390, 881.0, 29.6816
56.058269329, 96.390, 909.0, 30.1496
56.084529895, 96.390, 887.0, 29.7825
56.110790460, 96.390, 880.0, 29.6648
56.137051025, 96.390, 889.0, 29.8161
56.163311591, 96.390, 868.0, 29.4618
56.189572156, 96.390, 868.0, 29.4618
56.215832722, 96.390, 892.0, 29.8664
56.242093287, 96.390, 858.0, 29.2916
56.268353852, 96.390, 905.0, 30.0832
56.294614418, 96.390, 803.0, 28.3373
56.320874983, 96.390, 881.0, 29.6816
56.347135548, 96.390, 816.0, 28.5657
56.373396114, 96.390, 845.0, 29.0689
56.399656679, 96.390, 839.0, 28.9655
56.425917244, 96.390, 874.0, 29.5635
56.452177810, 96.390, 859.0, 29.3087
56.478438375, 96.390, 841.0, 29.0000
56.504698940, 96.390, 956.0, 30.9192
56.530959506, 96.390, 826.0, 28.7402
56.557220071, 96.390, 875.0, 29.5804
56.583480637, 96.390, 844.0, 29.0517
56.609741202, 96.390, 904.0, 30.0666
56.636001767, 96.390, 963.0, 31.0322
56.662262333, 96.390, 849.0, 29.1376
56.688522898, 96.390, 876.0, 29.5973
56.714783463, 96.390, 846.0, 29.0861
56.741044029, 96.390, 889.0, 29.8161
56.767304594, 96.390, 828.0, 28.7750
56.793565159, 96.390, 854.0, 29.2233
56.819825725, 96.390, 868.0, 29.4618
56.846086290, 96.390, 862.0, 29.3598
56.872346855, 96.390, 890.0, 29.8329
56.898607421, 96.390, 884.0, 29.7321
56.924867986, 96.390, 867.0, 29.4449
56.951128551, 96.390, 853.0, 29.2062
56.977389117, 96.390, 888.0, 29.7993
57.003649682, 96.390, 904.0, 30.0666
57.029910248, 96.390, 855.0, 29.2404
57.056170813, 96.390, 853.0, 29.2062
57.082431378, 96.390, 887.0, 29.7825
57.108691944, 96.390, 827.0, 28.7576
57.134952509, 96.390, 906.0, 30.0998
57.161213074, 96.390, 924.0, 30.3974
57.187473640, 96.390, 880.0, 29.6648
57.213734205, 96.390, 902.0, 30.0333
57.239994770, 96.390, 903.0, 30.0500
57.266255336, 96.390, 854.0, 29.2233
57.292515901, 96.390, 833.0, 28.8617
57.318776466, 96.390, 895.0, 29.9166
57.345037032, 96.390, 924.0, 30.3974
57.371297597, 96.390, 855.0, 29.2404
57.397558163, 96.390, 872.0, 29.5296
57.423818728, 96.390, 842.0, 29.0172
57.450079293, 96.390, 920.0, 30.3315
57.476339859, 96.390, 859.0, 29.3087
57.502600424, 96.390, 891.0, 29.8496
57.528860989, 96.390, 816.0, 28.5657
57.555121555, 96.390, 823.0, 28.6880
57.581382120, 96.390, 856.0, 29.2575
57.607642685, 96.390, 844.0, 29.0517
57.633903251, 96.390, 851.0, 29.1719
57.660163816, 96.390, 888.0, 29.7993
57.686424381, 96.390, 855.0, 29.2404
57.712684947, 96.390, 831.0, 28.8271
57.738945512, 96.390, 878.0, 29.6311
57.765206077, 96.390, 867.0, 29.4449
57.791466643, 96.390, 864.0, 29.3939
57.817727208, 96.390, 823.0, 28.6880
57.843987774, 96.390, 878.0, 29.6311
57.870248339, 96.390, 872.0, 29.5296
57.896508904, 96.390, 891.0, 29.8496
57.922769470, 96.390, 938.0, 30.6268
57.949030035, 96.390, 884.0, 29.7321
57.975290600, 96.390, 873.0, 29.5466
58.001551166, 96.390, 883.0, 29.7153
58.027811731, 96.390, 886.0, 29.7658
58.054072296, 96.390, 864.0, 29.3939
58.080332862, 96.390, 861.0, 29.3428
58.106593427, 96.390, 907.0, 30.1164
58.132853992, 96.390, 878.0, 29.6311
58.159114558, 96.390, 855.0, 29.2404
58.185375123, 96.390, 908.0, 30.1330
58.211635689, 96.390, 849.0, 29.1376
58.237896254, 96.390, 916.0, 30.2655
58.264156819, 96.390, 878.0, 29.6311
58.290417385, 96.390, 898.0, 29.9666
58.316677950, 96.390, 970.0, 31.1448
58.342938515, 96.390, 946.0, 30.7571
58.369199081, 96.390, 900.0, 30.0000
58.395459646, 96.390, 889.0, 29.8161
58.421720211, 96.390, 800.0, 28.2843
58.447980777, 96.390, 857.0, 29.2746
58.474241342, 96.390, 848.0, 29.1204
58.500501907, 96.390, 875.0, 29.5804
58.526762473, 96.390, 922.0, 30.3645
58.553023038, 96.390, 852.0, 29.1890
58.579283603, 96.390, 906.0, 30.0998
58.605544169, 96.390, 841.0, 29.0000
58.631804734, 96.390, 886.0, 29.7658
58.658065300, 96.390, 896.0, 29.9333
58.684325865, 96.390, 875.0, 29.5804
58.710586430, 96.390, 926.0, 30.4302
58.736846996, 96.390, 895.0, 29.9166
58.763107561, 96.390, 822.0, 28.6705
58.789368126, 96.390, 926.0, 30.4302
58.815628692, 96.390, 816.0, 28.5657
58.841889257, 96.390, 912.0, 30.1993
58.868149822, 96.390, 921.0, 30.3480
58.894410388, 96.390, 886.0, 29.7658
58.920670953, 96.390, 914.0, 30.2324
58.946931518, 96.390, 868.0, 29.4618
58.973192084, 96.390, 886.0, 29.7658
58.999452649, 96.390, 918.0, 30.2985
59.025713214, 96.390, 868.0, 29.4618
59.051973780, 96.390, 861.0, 29.3428
59.078234345, 96.390, 890.0, 29.8329
59.104494911, 96.390, 891.0, 29.8496
59.130755476, 96.390, 946.0, 30.7571
59.157016041, 96.390, 960.0, 30.9839
59.183276607, 96.390, 887.0, 29.7825
59.209537172, 96.390, 859.0, 29.3087
59.235797737, 96.390, 898.0, 29.9666
59.262058303, 96.390, 883.0, 29.7153
59.288318868, 96.390, 942.0, 30.6920
59.314579433, 96.390, 863.0, 29.3769
59.340839999, 96.390, 905.0, 30.0832
59.367100564, 96.390, 930.0, 30.4959
59.393361129, 96.390, 953.0, 30.8707
59.419621695, 96.390, 946.0, 30.7571
59.445882260, 96.390, 992.0, 31.4960
59.472142826, 96.390, 970.0, 31.1448
59.498403391, 96.390, 962.0, 31.0161
59.524663956, 96.390, 879.0, 29.6479
59.550924522, 96.390, 932.0, 30.5287
59.577185087, 96.390, 967.0, 31.0966
59.603445652, 96.390, 907.0, 30.1164
59.629706218, 96.390, 942.0, 30.6920
59.655966783, 96.390, 954.0, 30.8869
59.682227348, 96.390, 928.0, 30.4631
59.708487914, 96.390, 930.0, 30.4959
59.734748479, 96.390, 981.0, 31.3209
59.761009044, 96.390, 957.0, 30.9354
59.787269610, 96.390, 959.0, 30.9677
59.813530175, 96.390, 1006.0, 31.7175
59.839790740, 96.390, 952.0, 30.8545
59.866051306, 96.390, 1014.0, 31.8434
59.892311871, 96.390, 1023.0, 31.9844
59.918572437, 96.390, 1016.0, 31.8748
59.944833002, 96.390, 1027.0, 32.0468
59.971093567, 96.390, 978.0, 31.2730
59.997354133, 96.390, 998.0, 31.5911
60.023614698, 96.390, 985.0, 31.3847
60.049875263, 96.390, 1027.0, 32.0468
60.076135829, 96.390, 1047.0, 32.3574
60.102396394, 96.390, 987.0, 31.4166
60.128656959, 96.390, 1089.0, 33.0000
60.154917525, 96.390, 1067.0, 32.6650
60.181178090, 96.390, 1036.0, 32.1870
60.207438655, 96.390, 1090.0, 33.0151
60.233699221, 96.390, 1073.0, 32.7567
60.259959786, 96.390, 1127.0, 33.5708
60.286220352, 96.390, 1037.0, 32.2025
60.312480917, 96.390, 1089.0, 33.0000
60.338741482, 96.390, 1151.0, 33.9264
60.365002048, 96.390, 1198.0, 34.6121
60.391262613, 96.390, 1116.0, 33.4066
60.417523178, 96.390, 1159.0, 34.0441
60.443783744, 96.390, 1177.0, 34.3074
60.470044309, 96.390, 1181.0, 34.3657
60.496304874, 96.390, 1174.0, 34.2637
60.522565440, 96.390, 1196.0, 34.5832
60.548826005, 96.390, 1260.0, 35.4965
60.575086570, 96.390, 1196.0, 34.5832
60.601347136, 96.390, 1292.0, 35.9444
60.627607701, 96.390, 1220.0, 34.9285
60.653868266, 96.390, 1266.0, 35.5809
60.680128832, 96.390, 1282.0, 35.8050
60.706389397, 96.390, 1273.0, 35.6791
60.732649963, 96.390, 1277.0, 35.7351
60.758910528, 96.390, 1273.0, 35.6791
60.785171093, 96.390, 1342.0, 36.6333
60.811431659, 96.390, 1346.0, 36.6879
60.837692224, 96.390, 1270.0, 35.6371
60.863952789, 96.390, 1255.0, 35.4260
60.890213355, 96.390, 1326.0, 36.4143
60.916473920, 96.390, 1305.0, 36.1248
60.942734485, 96.390, 1339.0, 36.5923
60.968995051, 96.390, 1321.0, 36.3456
60.995255616, 96.390, 1466.0, 38.2884
61.021516181, 96.390, 1296.0, 36.0000
61.047776747, 96.390, 1395.0, 37.3497
61.074037312, 96.390, 1342.0, 36.6333
61.100297878, 96.390, 1395.0, 37.3497
61.126558443, 96.390, 1383.0, 37.1887
61.152819008, 96.390, 1300.0, 36.0555
61.179079574, 96.390, 1340.0, 36.6060
61.205340139, 96.390, 1409.0, 37.5366
61.231600704, 96.390, 1436.0, 37.8946
61.257861270, 96.390, 1370.0, 37.0135
61.284121835, 96.390, 1327.0, 36.4280
61.310382400, 96.390, 1359.0, 36.8646
61.336642966, 96.390, 1384.0, 37.2022
61.362903531, 96.390, 1309.0, 36.1801
61.389164096, 96.390, 1335.0, 36.5377
61.415424662, 96.390, 1284.0, 35.8329
61.441685227, 96.390, 1325.0, 36.4005
61.467945792, 96.390, 1323.0, 36.3731
61.494206358, 96.390, 1318.0, 36.3043
61.520466923, 96.390, 1295.0, 35.9861
61.546727489, 96.390, 1370.0, 37.0135
61.572988054, 96.390, 1360.0, 36.8782
61.599248619, 96.390, 1276.0, 35.7211
61.625509185, 96.390, 1321.0, 36.3456
61.651769750, 96.390, 1243.0, 35.2562
61.678030315, 96.390, 1340.0, 36.6060
61.704290881, 96.390, 1257.0, 35.4542
61.730551446, 96.390, 1253.0, 35.3977
61.756812011, 96.390, 1344.0, 36.6606
61.783072577, 96.390, 1276.0, 35.7211
61.809333142, 96.390, 1224.0, 34.9857
61.835593707, 96.390, 1279.0, 35.7631
61.861854273, 96.390, 1286.0, 35.8608
61.888114838, 96.390, 1290.0, 35.9166
61.914375404, 96.390, 1247.0, 35.3129
61.940635969, 96.390, 1298.0, 36.0278
61.966896534, 96.390, 1270.0, 35.6371
61.993157100, 96.390, 1258.0, 35.4683
62.019417665, 96.390, 1267.0, 35.5949
62.045678230, 96.390, 1246.0, 35.2987
62.071938796, 96.390, 1240.0, 35.2136
62.098199361, 96.390, 1298.0, 36.0278
62.124459926, 96.390, 1250.0, 35.3553
62.150720492, 96.390, 1216.0, 34.8712
62.176981057, 96.390, 1235.0, 35.1426
62.203241622, 96.390, 1131.0, 33.6303
62.229502188, 96.390, 1158.0, 34.0294
62.255762753, 96.390, 1210.0, 34.7851
62.282023318, 96.390, 1187.0, 34.4529
62.308283884, 96.390, 1184.0, 34.4093
62.334544449, 96.390, 1147.0, 33.8674
62.360805015, 96.390, 1142.0, 33.7935
62.387065580, 96.390, 1135.0, 33.6898
62.413326145, 96.390, 1093.0, 33.0606
62.439586711, 96.390, 1128.0, 33.5857
62.465847276, 96.390, 1169.0, 34.1906
62.492107841, 96.390, 1158.0, 34.0294
62.518368407, 96.390, 1164.0, 34.1174
62.544628972, 96.390, 1092.0, 33.0454
62.570889537, 96.390, 1077.0, 32.8177
62.597150103, 96.390, 1111.0, 33.3317
62.623410668, 96.390, 1089.0, 33.0000
62.649671233, 96.390, 1107.0, 33.2716
62.675931799, 96.390, 1038.0, 32.2180
62.702192364, 96.390, 1070.0, 32.7109
62.728452930, 96.390, 994.0, 31.5278
62.754713495, 96.390, 1042.0, 32.2800
62.780974060, 96.390, 1021.0, 31.9531
62.807234626, 96.390, 1015.0, 31.8591
62.833495191, 96.390, 1004.0, 31.6860
62.859755756, 96.390, 1034.0, 32.1559
62.886016322, 96.390, 1024.0, 32.0000
62.912276887, 96.390, 1024.0, 32.0000
62.938537452, 96.390, 987.0, 31.4166
62.964798018, 96.390, 983.0, 31.3528
62.991058583, 96.390, 961.0, 31.0000
63.017319148, 96.390, 993.0, 31.5119
63.043579714, 96.390, 993.0, 31.5119
63.069840279, 96.390, 957.0, 30.9354
63.096100844, 96.390, 954.0, 30.8869
63.122361410, 96.390, 1001.0, 31.6386
63.148621975, 96.390, 943.0, 30.7083
63.174882541, 96.390, 981.0, 31.3209
63.201143106, 96.390, 942.0, 30.6920
63.227403671, 96.390, 937.0, 30.6105
63.253664237, 96.390, 909.0, 30.1496
63.279924802, 96.390, 958.0, 30.9516
63.306185367, 96.390, 923.0, 30.3809
63.332445933, 96.390, 893.0, 29.8831
63.358706498, 96.390, 858.0, 29.2916
63.384967063, 96.390, 942.0, 30.6920
63.411227629, 96.390, 844.0, 29.0517
63.437488194, 96.390, 927.0, 30.4467
63.463748759, 96.390, 896.0, 29.9333
63.490009325, 96.390, 808.0, 28.4253
63.516269890, 96.390, 880.0, 29.6648
63.542530455, 96.390, 844.0, 29.0517
63.568791021, 96.390, 856.0, 29.2575
63.595051586, 96.390, 893.0, 29.8831
63.621312152, 96.390, 882.0, 29.6985
63.647572717, 96.390, 876.0, 29.5973
63.673833282, 96.390, 892.0, 29.8664
63.700093848, 96.390, 875.0, 29.5804
63.726354413, 96.390, 894.0, 29.8998
63.752614978, 96.390, 864.0, 29.3939
63.778875544, 96.390, 874.0, 29.5635
63.805136109, 96.390, 902.0, 30.0333
63.831396674, 96.390, 871.0, 29.5127
63.857657240, 96.390, 866.0, 29.4279
63.883917805, 96.390, 860.0, 29.3258
63.910178370, 96.390, 940.0, 30.6594
63.936438936, 96.390, 865.0, 29.4109
63.962699501, 96.390, 848.0, 29.1204
63.988960067, 96.390, 837.0, 28.9310
64.015220632, 96.390, 811.0, 28.4781
64.041481197, 96.390, 822.0, 28.6705
64.067741763, 96.390, 875.0, 29.5804
64.094002328, 96.390, 847.0, 29.1033
64.120262893, 96.390, 774.0, 27.8209
64.146523459, 96.390, 828.0, 28.7750
64.172784024, 96.390, 799.0, 28.2666
64.199044589, 96.390, 861.0, 29.3428
64.225305155, 96.390, 805.0, 28.3725
64.251565720, 96.390, 823.0, 28.6880
64.277826285, 96.390, 794.0, 28.1780
64.304086851, 96.390, 827.0, 28.7576
64.330347416, 96.390, 833.0, 28.8617
64.356607981, 96.390, 749.0, 27.3679
64.382868547, 96.390, 786.0, 28.0357
64.409129112, 96.390, 778.0, 27.8927
64.435389678, 96.390, 804.0, 28.3549
64.461650243, 96.390, 770.0, 27.7489
64.487910808, 96.390, 815.0, 28.5482
64.514171374, 96.390, 758.0, 27.5318
64.540431939, 96.390, 797.0, 28.2312
64.566692504, 96.390, 781.0, 27.9464
64.592953070, 96.390, 798.0, 28.2489
64.619213635, 96.390, 780.0, 27.9285
64.645474200, 96.390, 790.0, 28.1069
64.671734766, 96.390, 796.0, 28.2135
64.697995331, 96.390, 796.0, 28.2135
64.724255896, 96.390, 762.0, 27.6043
64.750516462, 96.390, 773.0, 27.8029
64.776777027, 96.390, 740.0, 27.2029
64.803037593, 96.390, 782.0, 27.9643
64.829298158, 96.390, 723.0, 26.8887
64.855558723, 96.390, 773.0, 27.8029
64.881819289, 96.390, 816.0, 28.5657
64.908079854, 96.390, 776.0, 27.8568
64.934340419, 96.390, 784.0, 28.0000
64.960600985, 96.390, 762.0, 27.6043
64.986861550, 96.390, 779.0, 27.9106
