[Measurement conditions]
Sample identification,XRD_Si Corner03Feb22_Act01Mar22_B2_0455M_NaOH_LS0122_1
Comment - 1,"Configuration=Stage for Flat Samples/Holders, Owner=User-1, Creation date=7/1/2020 9:53:24 AM"
Comment - 2,"Goniometer=Theta/Theta; Minimum step size 2Theta:0.0001; Minimum step size Omega:0.0001"
Comment - 3,"Sample stage=Stage for flat samples/holders"
Comment - 4,"Diffractometer system=EMPYREAN"
Comment - 5,"Measurement program=C:\Users\ibo5034\OneDrive - The Pennsylvania State University\NEUP - Reed, Titus's files\XRD\Cement\Zerobackground scan.xrdmp, Identifier={98A3B11C-88F9-4AA6-982C-73314A311EF5}"
Anode material,Cu
K-Alpha1 wavelength,1.5405980
K-Alpha2 wavelength,1.5444260
Ratio K-Alpha2/K-Alpha1,0.500
Divergence slit,Fixed,0.25
Monochromator used,NO
Generator voltage, 45
Tube current, 40
File date and time,04/Mar/2022 12:55
Unit cell,
h k l, 0 0 0
Scan axis,Gonio
Scan range,4.994599997,64.999991833
Scan step size,0.0262606
No. of points, 2285
Scan type,CONTINUOUS
Time per step,96.390
[Scan points]
Angle, TimePerStep, Intensity, ESD
5.007730280, 96.390, 4739.0, 68.8404
5.033990845, 96.390, 4696.0, 68.5274
5.060251411, 96.390, 4781.0, 69.1448
5.086511976, 96.390, 4680.0, 68.4105
5.112772541, 96.390, 4670.0, 68.3374
5.139033107, 96.390, 4663.0, 68.2862
5.165293672, 96.390, 4568.0, 67.5870
5.191554237, 96.390, 4508.0, 67.1416
5.217814803, 96.390, 4469.0, 66.8506
5.244075368, 96.390, 4386.0, 66.2269
5.270335934, 96.390, 4412.0, 66.4229
5.296596499, 96.390, 4436.0, 66.6033
5.322857064, 96.390, 4431.0, 66.5658
5.349117630, 96.390, 4252.0, 65.2074
5.375378195, 96.390, 4378.0, 66.1665
5.401638760, 96.390, 4222.0, 64.9769
5.427899326, 96.390, 4224.0, 64.9923
5.454159891, 96.390, 4115.0, 64.1483
5.480420456, 96.390, 4283.0, 65.4446
5.506681022, 96.390, 4168.0, 64.5600
5.532941587, 96.390, 4128.0, 64.2495
5.559202152, 96.390, 4063.0, 63.7417
5.585462718, 96.390, 4112.0, 64.1249
5.611723283, 96.390, 4215.0, 64.9230
5.637983849, 96.390, 4138.0, 64.3273
5.664244414, 96.390, 3994.0, 63.1981
5.690504979, 96.390, 3967.0, 62.9841
5.716765545, 96.390, 4046.0, 63.6082
5.743026110, 96.390, 3929.0, 62.6817
5.769286675, 96.390, 3981.0, 63.0952
5.795547241, 96.390, 3952.0, 62.8649
5.821807806, 96.390, 4005.0, 63.2851
5.848068371, 96.390, 4027.0, 63.4586
5.874328937, 96.390, 3967.0, 62.9841
5.900589502, 96.390, 3864.0, 62.1611
5.926850067, 96.390, 3910.0, 62.5300
5.953110633, 96.390, 3918.0, 62.5939
5.979371198, 96.390, 3910.0, 62.5300
6.005631763, 96.390, 3888.0, 62.3538
6.031892329, 96.390, 3924.0, 62.6418
6.058152894, 96.390, 3866.0, 62.1772
6.084413460, 96.390, 3880.0, 62.2896
6.110674025, 96.390, 3907.0, 62.5060
6.136934590, 96.390, 3776.0, 61.4492
6.163195156, 96.390, 3930.0, 62.6897
6.189455721, 96.390, 3871.0, 62.2174
6.215716286, 96.390, 3851.0, 62.0564
6.241976852, 96.390, 3813.0, 61.7495
6.268237417, 96.390, 3840.0, 61.9677
6.294497982, 96.390, 3727.0, 61.0492
6.320758548, 96.390, 3884.0, 62.3217
6.347019113, 96.390, 3805.0, 61.6847
6.373279678, 96.390, 3763.0, 61.3433
6.399540244, 96.390, 3831.0, 61.8951
6.425800809, 96.390, 3763.0, 61.3433
6.452061375, 96.390, 3787.0, 61.5386
6.478321940, 96.390, 3819.0, 61.7981
6.504582505, 96.390, 3874.0, 62.2415
6.530843071, 96.390, 3679.0, 60.6548
6.557103636, 96.390, 3653.0, 60.4401
6.583364201, 96.390, 3821.0, 61.8142
6.609624767, 96.390, 3745.0, 61.1964
6.635885332, 96.390, 3718.0, 60.9754
6.662145897, 96.390, 3676.0, 60.6300
6.688406463, 96.390, 3751.0, 61.2454
6.714667028, 96.390, 3622.0, 60.1831
6.740927593, 96.390, 3746.0, 61.2046
6.767188159, 96.390, 3794.0, 61.5955
6.793448724, 96.390, 3754.0, 61.2699
6.819709289, 96.390, 3683.0, 60.6877
6.845969855, 96.390, 3758.0, 61.3025
6.872230420, 96.390, 3713.0, 60.9344
6.898490986, 96.390, 3676.0, 60.6300
6.924751551, 96.390, 3615.0, 60.1249
6.951012116, 96.390, 3637.0, 60.3075
6.977272682, 96.390, 3653.0, 60.4401
7.003533247, 96.390, 3622.0, 60.1831
7.029793812, 96.390, 3640.0, 60.3324
7.056054378, 96.390, 3600.0, 60.0000
7.082314943, 96.390, 3696.0, 60.7947
7.108575508, 96.390, 3648.0, 60.3987
7.134836074, 96.390, 3588.0, 59.8999
7.161096639, 96.390, 3619.0, 60.1581
7.187357204, 96.390, 3691.0, 60.7536
7.213617770, 96.390, 3595.0, 59.9583
7.239878335, 96.390, 3629.0, 60.2412
7.266138900, 96.390, 3583.0, 59.8582
7.292399466, 96.390, 3665.0, 60.5392
7.318660031, 96.390, 3563.0, 59.6909
7.344920597, 96.390, 3545.0, 59.5399
7.371181162, 96.390, 3569.0, 59.7411
7.397441727, 96.390, 3605.0, 60.0417
7.423702293, 96.390, 3625.0, 60.2080
7.449962858, 96.390, 3647.0, 60.3904
7.476223423, 96.390, 3582.0, 59.8498
7.502483989, 96.390, 3602.0, 60.0167
7.528744554, 96.390, 3599.0, 59.9917
7.555005119, 96.390, 3628.0, 60.2329
7.581265685, 96.390, 3535.0, 59.4559
7.607526250, 96.390, 3621.0, 60.1747
7.633786815, 96.390, 3505.0, 59.2030
7.660047381, 96.390, 3521.0, 59.3380
7.686307946, 96.390, 3613.0, 60.1082
7.712568512, 96.390, 3567.0, 59.7244
7.738829077, 96.390, 3464.0, 58.8558
7.765089642, 96.390, 3439.0, 58.6430
7.791350208, 96.390, 3453.0, 58.7622
7.817610773, 96.390, 3503.0, 59.1861
7.843871338, 96.390, 3515.0, 59.2874
7.870131904, 96.390, 3528.0, 59.3970
7.896392469, 96.390, 3459.0, 58.8133
7.922653034, 96.390, 3464.0, 58.8558
7.948913600, 96.390, 3405.0, 58.3524
7.975174165, 96.390, 3539.0, 59.4895
8.001434730, 96.390, 3398.0, 58.2924
8.027695296, 96.390, 3478.0, 58.9746
8.053955861, 96.390, 3545.0, 59.5399
8.080216426, 96.390, 3344.0, 57.8273
8.106476992, 96.390, 3588.0, 59.8999
8.132737557, 96.390, 3397.0, 58.2838
8.158998123, 96.390, 3469.0, 58.8982
8.185258688, 96.390, 3464.0, 58.8558
8.211519253, 96.390, 3379.0, 58.1292
8.237779819, 96.390, 3505.0, 59.2030
8.264040384, 96.390, 3461.0, 58.8303
8.290300949, 96.390, 3470.0, 58.9067
8.316561515, 96.390, 3457.0, 58.7963
8.342822080, 96.390, 3461.0, 58.8303
8.369082645, 96.390, 3318.0, 57.6021
8.395343211, 96.390, 3477.0, 58.9661
8.421603776, 96.390, 3390.0, 58.2237
8.447864341, 96.390, 3466.0, 58.8727
8.474124907, 96.390, 3405.0, 58.3524
8.500385472, 96.390, 3372.0, 58.0689
8.526646038, 96.390, 3380.0, 58.1378
8.552906603, 96.390, 3427.0, 58.5406
8.579167168, 96.390, 3411.0, 58.4038
8.605427734, 96.390, 3362.0, 57.9828
8.631688299, 96.390, 3324.0, 57.6541
8.657948864, 96.390, 3315.0, 57.5760
8.684209430, 96.390, 3419.0, 58.4722
8.710469995, 96.390, 3330.0, 57.7062
8.736730560, 96.390, 3275.0, 57.2276
8.762991126, 96.390, 3297.0, 57.4195
8.789251691, 96.390, 3296.0, 57.4108
8.815512256, 96.390, 3381.0, 58.1464
8.841772822, 96.390, 3247.0, 56.9825
8.868033387, 96.390, 3323.0, 57.6455
8.894293952, 96.390, 3305.0, 57.4891
8.920554518, 96.390, 3228.0, 56.8155
8.946815083, 96.390, 3253.0, 57.0351
8.973075649, 96.390, 3246.0, 56.9737
8.999336214, 96.390, 3309.0, 57.5239
9.025596779, 96.390, 3319.0, 57.6108
9.051857345, 96.390, 3235.0, 56.8771
9.078117910, 96.390, 3240.0, 56.9210
9.104378475, 96.390, 3280.0, 57.2713
9.130639041, 96.390, 3264.0, 57.1314
9.156899606, 96.390, 3274.0, 57.2189
9.183160171, 96.390, 3343.0, 57.8187
9.209420737, 96.390, 3274.0, 57.2189
9.235681302, 96.390, 3348.0, 57.8619
9.261941867, 96.390, 3156.0, 56.1783
9.288202433, 96.390, 3169.0, 56.2939
9.314462998, 96.390, 3272.0, 57.2014
9.340723564, 96.390, 3127.0, 55.9196
9.366984129, 96.390, 3080.0, 55.4977
9.393244694, 96.390, 3111.0, 55.7763
9.419505260, 96.390, 3178.0, 56.3738
9.445765825, 96.390, 3254.0, 57.0438
9.472026390, 96.390, 3141.0, 56.0446
9.498286956, 96.390, 3136.0, 56.0000
9.524547521, 96.390, 3088.0, 55.5698
9.550808086, 96.390, 3188.0, 56.4624
9.577068652, 96.390, 3139.0, 56.0268
9.603329217, 96.390, 3095.0, 55.6327
9.629589782, 96.390, 3230.0, 56.8331
9.655850348, 96.390, 3202.0, 56.5862
9.682110913, 96.390, 3015.0, 54.9090
9.708371478, 96.390, 3197.0, 56.5420
9.734632044, 96.390, 3061.0, 55.3263
9.760892609, 96.390, 3093.0, 55.6147
9.787153175, 96.390, 3044.0, 55.1725
9.813413740, 96.390, 3103.0, 55.7046
9.839674305, 96.390, 3065.0, 55.3624
9.865934871, 96.390, 3143.0, 56.0625
9.892195436, 96.390, 2976.0, 54.5527
9.918456001, 96.390, 3020.0, 54.9545
9.944716567, 96.390, 3028.0, 55.0273
9.970977132, 96.390, 2906.0, 53.9073
9.997237697, 96.390, 3078.0, 55.4797
10.023498263, 96.390, 2990.0, 54.6809
10.049758828, 96.390, 3103.0, 55.7046
10.076019393, 96.390, 2990.0, 54.6809
10.102279959, 96.390, 3024.0, 54.9909
10.128540524, 96.390, 3011.0, 54.8726
10.154801090, 96.390, 2988.0, 54.6626
10.181061655, 96.390, 3037.0, 55.1090
10.207322220, 96.390, 2975.0, 54.5436
10.233582786, 96.390, 3003.0, 54.7996
10.259843351, 96.390, 2977.0, 54.5619
10.286103916, 96.390, 2958.0, 54.3875
10.312364482, 96.390, 3005.0, 54.8179
10.338625047, 96.390, 2969.0, 54.4885
10.364885612, 96.390, 2955.0, 54.3599
10.391146178, 96.390, 2930.0, 54.1295
10.417406743, 96.390, 2957.0, 54.3783
10.443667308, 96.390, 3017.0, 54.9272
10.469927874, 96.390, 2890.0, 53.7587
10.496188439, 96.390, 2923.0, 54.0648
10.522449004, 96.390, 2929.0, 54.1202
10.548709570, 96.390, 2933.0, 54.1572
10.574970135, 96.390, 2953.0, 54.3415
10.601230701, 96.390, 2939.0, 54.2125
10.627491266, 96.390, 2946.0, 54.2771
10.653751831, 96.390, 2917.0, 54.0093
10.680012397, 96.390, 2854.0, 53.4228
10.706272962, 96.390, 2850.0, 53.3854
10.732533527, 96.390, 2952.0, 54.3323
10.758794093, 96.390, 2869.0, 53.5630
10.785054658, 96.390, 2864.0, 53.5164
10.811315223, 96.390, 2799.0, 52.9056
10.837575789, 96.390, 2821.0, 53.1131
10.863836354, 96.390, 2978.0, 54.5711
10.890096919, 96.390, 2841.0, 53.3010
10.916357485, 96.390, 2876.0, 53.6284
10.942618050, 96.390, 2845.0, 53.3385
10.968878616, 96.390, 2825.0, 53.1507
10.995139181, 96.390, 2842.0, 53.3104
11.021399746, 96.390, 2839.0, 53.2823
11.047660312, 96.390, 2712.0, 52.0769
11.073920877, 96.390, 2790.0, 52.8205
11.100181442, 96.390, 2829.0, 53.1883
11.126442008, 96.390, 2740.0, 52.3450
11.152702573, 96.390, 2804.0, 52.9528
11.178963138, 96.390, 2806.0, 52.9717
11.205223704, 96.390, 2767.0, 52.6023
11.231484269, 96.390, 2825.0, 53.1507
11.257744834, 96.390, 2671.0, 51.6817
11.284005400, 96.390, 2744.0, 52.3832
11.310265965, 96.390, 2740.0, 52.3450
11.336526530, 96.390, 2767.0, 52.6023
11.362787096, 96.390, 2757.0, 52.5071
11.389047661, 96.390, 2712.0, 52.0769
11.415308227, 96.390, 2742.0, 52.3641
11.441568792, 96.390, 2675.0, 51.7204
11.467829357, 96.390, 2652.0, 51.4976
11.494089923, 96.390, 2740.0, 52.3450
11.520350488, 96.390, 2709.0, 52.0481
11.546611053, 96.390, 2745.0, 52.3927
11.572871619, 96.390, 2680.0, 51.7687
11.599132184, 96.390, 2659.0, 51.5655
11.625392749, 96.390, 2640.0, 51.3809
11.651653315, 96.390, 2661.0, 51.5849
11.677913880, 96.390, 2677.0, 51.7397
11.704174445, 96.390, 2630.0, 51.2835
11.730435011, 96.390, 2649.0, 51.4684
11.756695576, 96.390, 2700.0, 51.9615
11.782956141, 96.390, 2707.0, 52.0288
11.809216707, 96.390, 2700.0, 51.9615
11.835477272, 96.390, 2585.0, 50.8429
11.861737838, 96.390, 2684.0, 51.8073
11.887998403, 96.390, 2713.0, 52.0865
11.914258968, 96.390, 2714.0, 52.0961
11.940519534, 96.390, 2638.0, 51.3615
11.966780099, 96.390, 2616.0, 51.1468
11.993040664, 96.390, 2643.0, 51.4101
12.019301230, 96.390, 2635.0, 51.3323
12.045561795, 96.390, 2542.0, 50.4183
12.071822360, 96.390, 2530.0, 50.2991
12.098082926, 96.390, 2677.0, 51.7397
12.124343491, 96.390, 2592.0, 50.9117
12.150604056, 96.390, 2640.0, 51.3809
12.176864622, 96.390, 2618.0, 51.1664
12.203125187, 96.390, 2644.0, 51.4198
12.229385753, 96.390, 2538.0, 50.3786
12.255646318, 96.390, 2580.0, 50.7937
12.281906883, 96.390, 2530.0, 50.2991
12.308167449, 96.390, 2626.0, 51.2445
12.334428014, 96.390, 2556.0, 50.5569
12.360688579, 96.390, 2610.0, 51.0882
12.386949145, 96.390, 2646.0, 51.4393
12.413209710, 96.390, 2556.0, 50.5569
12.439470275, 96.390, 2435.0, 49.3457
12.465730841, 96.390, 2547.0, 50.4678
12.491991406, 96.390, 2488.0, 49.8799
12.518251971, 96.390, 2608.0, 51.0686
12.544512537, 96.390, 2543.0, 50.4282
12.570773102, 96.390, 2498.0, 49.9800
12.597033667, 96.390, 2550.0, 50.4975
12.623294233, 96.390, 2538.0, 50.3786
12.649554798, 96.390, 2482.0, 49.8197
12.675815364, 96.390, 2457.0, 49.5681
12.702075929, 96.390, 2465.0, 49.6488
12.728336494, 96.390, 2427.0, 49.2646
12.754597060, 96.390, 2558.0, 50.5767
12.780857625, 96.390, 2458.0, 49.5782
12.807118190, 96.390, 2491.0, 49.9099
12.833378756, 96.390, 2605.0, 51.0392
12.859639321, 96.390, 2460.0, 49.5984
12.885899886, 96.390, 2505.0, 50.0500
12.912160452, 96.390, 2486.0, 49.8598
12.938421017, 96.390, 2570.0, 50.6952
12.964681582, 96.390, 2541.0, 50.4083
12.990942148, 96.390, 2525.0, 50.2494
13.017202713, 96.390, 2485.0, 49.8498
13.043463279, 96.390, 2432.0, 49.3153
13.069723844, 96.390, 2491.0, 49.9099
13.095984409, 96.390, 2512.0, 50.1199
13.122244975, 96.390, 2469.0, 49.6890
13.148505540, 96.390, 2492.0, 49.9199
13.174766105, 96.390, 2566.0, 50.6557
13.201026671, 96.390, 2504.0, 50.0400
13.227287236, 96.390, 2491.0, 49.9099
13.253547801, 96.390, 2581.0, 50.8035
13.279808367, 96.390, 2502.0, 50.0200
13.306068932, 96.390, 2546.0, 50.4579
13.332329497, 96.390, 2492.0, 49.9199
13.358590063, 96.390, 2486.0, 49.8598
13.384850628, 96.390, 2437.0, 49.3660
13.411111193, 96.390, 2400.0, 48.9898
13.437371759, 96.390, 2555.0, 50.5470
13.463632324, 96.390, 2394.0, 48.9285
13.489892890, 96.390, 2324.0, 48.2079
13.516153455, 96.390, 2499.0, 49.9900
13.542414020, 96.390, 2498.0, 49.9800
13.568674586, 96.390, 2435.0, 49.3457
13.594935151, 96.390, 2396.0, 48.9490
13.621195716, 96.390, 2488.0, 49.8799
13.647456282, 96.390, 2506.0, 50.0600
13.673716847, 96.390, 2489.0, 49.8899
13.699977412, 96.390, 2422.0, 49.2138
13.726237978, 96.390, 2481.0, 49.8096
13.752498543, 96.390, 2485.0, 49.8498
13.778759108, 96.390, 2536.0, 50.3587
13.805019674, 96.390, 2576.0, 50.7543
13.831280239, 96.390, 2633.0, 51.3128
13.857540805, 96.390, 2519.0, 50.1896
13.883801370, 96.390, 2504.0, 50.0400
13.910061935, 96.390, 2444.0, 49.4368
13.936322501, 96.390, 2467.0, 49.6689
13.962583066, 96.390, 2367.0, 48.6518
13.988843631, 96.390, 2521.0, 50.2096
14.015104197, 96.390, 2393.0, 48.9183
14.041364762, 96.390, 2415.0, 49.1426
14.067625327, 96.390, 2459.0, 49.5883
14.093885893, 96.390, 2397.0, 48.9592
14.120146458, 96.390, 2445.0, 49.4469
14.146407023, 96.390, 2412.0, 49.1121
14.172667589, 96.390, 2527.0, 50.2693
14.198928154, 96.390, 2452.0, 49.5177
14.225188719, 96.390, 2527.0, 50.2693
14.251449285, 96.390, 2680.0, 51.7687
14.277709850, 96.390, 3461.0, 58.8303
14.303970416, 96.390, 3119.0, 55.8480
14.330230981, 96.390, 2715.0, 52.1057
14.356491546, 96.390, 2455.0, 49.5480
14.382752112, 96.390, 2375.0, 48.7340
14.409012677, 96.390, 2515.0, 50.1498
14.435273242, 96.390, 2382.0, 48.8057
14.461533808, 96.390, 2450.0, 49.4975
14.487794373, 96.390, 2384.0, 48.8262
14.514054938, 96.390, 2428.0, 49.2747
14.540315504, 96.390, 2430.0, 49.2950
14.566576069, 96.390, 2420.0, 49.1935
14.592836634, 96.390, 2420.0, 49.1935
14.619097200, 96.390, 2339.0, 48.3632
14.645357765, 96.390, 2467.0, 49.6689
14.671618331, 96.390, 2278.0, 47.7284
14.697878896, 96.390, 2440.0, 49.3964
14.724139461, 96.390, 2400.0, 48.9898
14.750400027, 96.390, 2412.0, 49.1121
14.776660592, 96.390, 2518.0, 50.1797
14.802921157, 96.390, 2370.0, 48.6826
14.829181723, 96.390, 2398.0, 48.9694
14.855442288, 96.390, 2485.0, 49.8498
14.881702853, 96.390, 2408.0, 49.0714
14.907963419, 96.390, 2453.0, 49.5278
14.934223984, 96.390, 2419.0, 49.1833
14.960484549, 96.390, 2468.0, 49.6790
14.986745115, 96.390, 2467.0, 49.6689
15.013005680, 96.390, 2393.0, 48.9183
15.039266245, 96.390, 2405.0, 49.0408
15.065526811, 96.390, 2393.0, 48.9183
15.091787376, 96.390, 2422.0, 49.2138
15.118047942, 96.390, 2352.0, 48.4974
15.144308507, 96.390, 2475.0, 49.7494
15.170569072, 96.390, 2486.0, 49.8598
15.196829638, 96.390, 2412.0, 49.1121
15.223090203, 96.390, 2425.0, 49.2443
15.249350768, 96.390, 2314.0, 48.1041
15.275611334, 96.390, 2496.0, 49.9600
15.301871899, 96.390, 2465.0, 49.6488
15.328132464, 96.390, 2443.0, 49.4267
15.354393030, 96.390, 2323.0, 48.1975
15.380653595, 96.390, 2383.0, 48.8160
15.406914160, 96.390, 2399.0, 48.9796
15.433174726, 96.390, 2397.0, 48.9592
15.459435291, 96.390, 2512.0, 50.1199
15.485695857, 96.390, 2319.0, 48.1560
15.511956422, 96.390, 2462.0, 49.6185
15.538216987, 96.390, 2400.0, 48.9898
15.564477553, 96.390, 2500.0, 50.0000
15.590738118, 96.390, 2433.0, 49.3254
15.616998683, 96.390, 2426.0, 49.2544
15.643259249, 96.390, 2491.0, 49.9099
15.669519814, 96.390, 2415.0, 49.1426
15.695780379, 96.390, 2453.0, 49.5278
15.722040945, 96.390, 2403.0, 49.0204
15.748301510, 96.390, 2435.0, 49.3457
15.774562075, 96.390, 2421.0, 49.2037
15.800822641, 96.390, 2467.0, 49.6689
15.827083206, 96.390, 2433.0, 49.3254
15.853343771, 96.390, 2489.0, 49.8899
15.879604337, 96.390, 2522.0, 50.2195
15.905864902, 96.390, 2410.0, 49.0918
15.932125468, 96.390, 2548.0, 50.4777
15.958386033, 96.390, 2445.0, 49.4469
15.984646598, 96.390, 2442.0, 49.4166
16.010907164, 96.390, 2441.0, 49.4065
16.037167729, 96.390, 2441.0, 49.4065
16.063428294, 96.390, 2460.0, 49.5984
16.089688860, 96.390, 2522.0, 50.2195
16.115949425, 96.390, 2526.0, 50.2593
16.142209990, 96.390, 2505.0, 50.0500
16.168470556, 96.390, 2439.0, 49.3862
16.194731121, 96.390, 2499.0, 49.9900
16.220991686, 96.390, 2501.0, 50.0100
16.247252252, 96.390, 2541.0, 50.4083
16.273512817, 96.390, 2475.0, 49.7494
16.299773382, 96.390, 2434.0, 49.3356
16.326033948, 96.390, 2515.0, 50.1498
16.352294513, 96.390, 2527.0, 50.2693
16.378555079, 96.390, 2583.0, 50.8232
16.404815644, 96.390, 2489.0, 49.8899
16.431076209, 96.390, 2569.0, 50.6853
16.457336775, 96.390, 2463.0, 49.6286
16.483597340, 96.390, 2586.0, 50.8527
16.509857905, 96.390, 2529.0, 50.2892
16.536118471, 96.390, 2491.0, 49.9099
16.562379036, 96.390, 2587.0, 50.8626
16.588639601, 96.390, 2568.0, 50.6754
16.614900167, 96.390, 2539.0, 50.3885
16.641160732, 96.390, 2523.0, 50.2295
16.667421297, 96.390, 2602.0, 51.0098
16.693681863, 96.390, 2601.0, 51.0000
16.719942428, 96.390, 2516.0, 50.1597
16.746202994, 96.390, 2558.0, 50.5767
16.772463559, 96.390, 2558.0, 50.5767
16.798724124, 96.390, 2550.0, 50.4975
16.824984690, 96.390, 2606.0, 51.0490
16.851245255, 96.390, 2632.0, 51.3030
16.877505820, 96.390, 2520.0, 50.1996
16.903766386, 96.390, 2547.0, 50.4678
16.930026951, 96.390, 2667.0, 51.6430
16.956287516, 96.390, 2496.0, 49.9600
16.982548082, 96.390, 2524.0, 50.2394
17.008808647, 96.390, 2653.0, 51.5073
17.035069212, 96.390, 2606.0, 51.0490
17.061329778, 96.390, 2658.0, 51.5558
17.087590343, 96.390, 2562.0, 50.6162
17.113850908, 96.390, 2737.0, 52.3163
17.140111474, 96.390, 2580.0, 50.7937
17.166372039, 96.390, 2603.0, 51.0196
17.192632605, 96.390, 2667.0, 51.6430
17.218893170, 96.390, 2520.0, 50.1996
17.245153735, 96.390, 2646.0, 51.4393
17.271414301, 96.390, 2632.0, 51.3030
17.297674866, 96.390, 2554.0, 50.5371
17.323935431, 96.390, 2702.0, 51.9808
17.350195997, 96.390, 2688.0, 51.8459
17.376456562, 96.390, 2774.0, 52.6688
17.402717127, 96.390, 2728.0, 52.2303
17.428977693, 96.390, 2768.0, 52.6118
17.455238258, 96.390, 2711.0, 52.0673
17.481498823, 96.390, 2653.0, 51.5073
17.507759389, 96.390, 2671.0, 51.6817
17.534019954, 96.390, 2613.0, 51.1175
17.560280520, 96.390, 2802.0, 52.9339
17.586541085, 96.390, 2675.0, 51.7204
17.612801650, 96.390, 2646.0, 51.4393
17.639062216, 96.390, 2761.0, 52.5452
17.665322781, 96.390, 2708.0, 52.0384
17.691583346, 96.390, 2676.0, 51.7301
17.717843912, 96.390, 2657.0, 51.5461
17.744104477, 96.390, 2779.0, 52.7162
17.770365042, 96.390, 2709.0, 52.0481
17.796625608, 96.390, 2624.0, 51.2250
17.822886173, 96.390, 2707.0, 52.0288
17.849146738, 96.390, 2697.0, 51.9326
17.875407304, 96.390, 2626.0, 51.2445
17.901667869, 96.390, 2583.0, 50.8232
17.927928434, 96.390, 2724.0, 52.1920
17.954189000, 96.390, 2618.0, 51.1664
17.980449565, 96.390, 2743.0, 52.3737
18.006710131, 96.390, 2763.0, 52.5642
18.032970696, 96.390, 2707.0, 52.0288
18.059231261, 96.390, 2655.0, 51.5267
18.085491827, 96.390, 2734.0, 52.2877
18.111752392, 96.390, 2674.0, 51.7107
18.138012957, 96.390, 2782.0, 52.7447
18.164273523, 96.390, 2848.0, 53.3667
18.190534088, 96.390, 2762.0, 52.5547
18.216794653, 96.390, 2782.0, 52.7447
18.243055219, 96.390, 2767.0, 52.6023
18.269315784, 96.390, 2812.0, 53.0283
18.295576349, 96.390, 2898.0, 53.8331
18.321836915, 96.390, 2955.0, 54.3599
18.348097480, 96.390, 2880.0, 53.6656
18.374358046, 96.390, 2892.0, 53.7773
18.400618611, 96.390, 2878.0, 53.6470
18.426879176, 96.390, 2876.0, 53.6284
18.453139742, 96.390, 2900.0, 53.8516
18.479400307, 96.390, 2940.0, 54.2218
18.505660872, 96.390, 2926.0, 54.0925
18.531921438, 96.390, 2978.0, 54.5711
18.558182003, 96.390, 2760.0, 52.5357
18.584442568, 96.390, 2883.0, 53.6936
18.610703134, 96.390, 2806.0, 52.9717
18.636963699, 96.390, 2872.0, 53.5910
18.663224264, 96.390, 2923.0, 54.0648
18.689484830, 96.390, 2742.0, 52.3641
18.715745395, 96.390, 2885.0, 53.7122
18.742005960, 96.390, 2974.0, 54.5344
18.768266526, 96.390, 2958.0, 54.3875
18.794527091, 96.390, 2787.0, 52.7920
18.820787657, 96.390, 2878.0, 53.6470
18.847048222, 96.390, 2935.0, 54.1756
18.873308787, 96.390, 2871.0, 53.5817
18.899569353, 96.390, 2974.0, 54.5344
18.925829918, 96.390, 2896.0, 53.8145
18.952090483, 96.390, 3014.0, 54.8999
18.978351049, 96.390, 2960.0, 54.4059
19.004611614, 96.390, 3056.0, 55.2811
19.030872179, 96.390, 2987.0, 54.6535
19.057132745, 96.390, 3026.0, 55.0091
19.083393310, 96.390, 2922.0, 54.0555
19.109653875, 96.390, 2904.0, 53.8888
19.135914441, 96.390, 2998.0, 54.7540
19.162175006, 96.390, 3031.0, 55.0545
19.188435572, 96.390, 2992.0, 54.6992
19.214696137, 96.390, 3021.0, 54.9636
19.240956702, 96.390, 3040.0, 55.1362
19.267217268, 96.390, 2958.0, 54.3875
19.293477833, 96.390, 2998.0, 54.7540
19.319738398, 96.390, 3051.0, 55.2359
19.345998964, 96.390, 3089.0, 55.5788
19.372259529, 96.390, 3126.0, 55.9106
19.398520094, 96.390, 3041.0, 55.1453
19.424780660, 96.390, 2980.0, 54.5894
19.451041225, 96.390, 3123.0, 55.8838
19.477301790, 96.390, 3140.0, 56.0357
19.503562356, 96.390, 3211.0, 56.6657
19.529822921, 96.390, 3200.0, 56.5685
19.556083486, 96.390, 3214.0, 56.6922
19.582344052, 96.390, 3140.0, 56.0357
19.608604617, 96.390, 3125.0, 55.9017
19.634865183, 96.390, 3123.0, 55.8838
19.661125748, 96.390, 3217.0, 56.7186
19.687386313, 96.390, 3231.0, 56.8419
19.713646879, 96.390, 3324.0, 57.6541
19.739907444, 96.390, 3321.0, 57.6281
19.766168009, 96.390, 3371.0, 58.0603
19.792428575, 96.390, 3344.0, 57.8273
19.818689140, 96.390, 3463.0, 58.8473
19.844949705, 96.390, 3340.0, 57.7927
19.871210271, 96.390, 3225.0, 56.7891
19.897470836, 96.390, 3195.0, 56.5243
19.923731401, 96.390, 3243.0, 56.9473
19.949991967, 96.390, 3250.0, 57.0088
19.976252532, 96.390, 3319.0, 57.6108
20.002513097, 96.390, 3301.0, 57.4543
20.028773663, 96.390, 3397.0, 58.2838
20.055034228, 96.390, 3229.0, 56.8243
20.081294794, 96.390, 3333.0, 57.7321
20.107555359, 96.390, 3308.0, 57.5152
20.133815924, 96.390, 3262.0, 57.1139
20.160076490, 96.390, 3341.0, 57.8014
20.186337055, 96.390, 3395.0, 58.2666
20.212597620, 96.390, 3329.0, 57.6975
20.238858186, 96.390, 3324.0, 57.6541
20.265118751, 96.390, 3264.0, 57.1314
20.291379316, 96.390, 3367.0, 58.0259
20.317639882, 96.390, 3325.0, 57.6628
20.343900447, 96.390, 3471.0, 58.9152
20.370161012, 96.390, 3544.0, 59.5315
20.396421578, 96.390, 3626.0, 60.2163
20.422682143, 96.390, 3710.0, 60.9098
20.448942709, 96.390, 3641.0, 60.3407
20.475203274, 96.390, 3629.0, 60.2412
20.501463839, 96.390, 3543.0, 59.5231
20.527724405, 96.390, 3429.0, 58.5577
20.553984970, 96.390, 3546.0, 59.5483
20.580245535, 96.390, 3559.0, 59.6574
20.606506101, 96.390, 3614.0, 60.1166
20.632766666, 96.390, 3671.0, 60.5888
20.659027231, 96.390, 3567.0, 59.7244
20.685287797, 96.390, 3563.0, 59.6909
20.711548362, 96.390, 3609.0, 60.0750
20.737808927, 96.390, 3528.0, 59.3970
20.764069493, 96.390, 3527.0, 59.3886
20.790330058, 96.390, 3519.0, 59.3212
20.816590623, 96.390, 3523.0, 59.3549
20.842851189, 96.390, 3453.0, 58.7622
20.869111754, 96.390, 3536.0, 59.4643
20.895372320, 96.390, 3606.0, 60.0500
20.921632885, 96.390, 3463.0, 58.8473
20.947893450, 96.390, 3587.0, 59.8916
20.974154016, 96.390, 3527.0, 59.3886
21.000414581, 96.390, 3449.0, 58.7282
21.026675146, 96.390, 3492.0, 59.0931
21.052935712, 96.390, 3524.0, 59.3633
21.079196277, 96.390, 3483.0, 59.0169
21.105456842, 96.390, 3538.0, 59.4811
21.131717408, 96.390, 3617.0, 60.1415
21.157977973, 96.390, 3524.0, 59.3633
21.184238538, 96.390, 3651.0, 60.4235
21.210499104, 96.390, 3539.0, 59.4895
21.236759669, 96.390, 3412.0, 58.4123
21.263020235, 96.390, 3544.0, 59.5315
21.289280800, 96.390, 3554.0, 59.6154
21.315541365, 96.390, 3485.0, 59.0339
21.341801931, 96.390, 3501.0, 59.1692
21.368062496, 96.390, 3600.0, 60.0000
21.394323061, 96.390, 3719.0, 60.9836
21.420583627, 96.390, 3519.0, 59.3212
21.446844192, 96.390, 3541.0, 59.5063
21.473104757, 96.390, 3514.0, 59.2790
21.499365323, 96.390, 3556.0, 59.6322
21.525625888, 96.390, 3487.0, 59.0508
21.551886453, 96.390, 3545.0, 59.5399
21.578147019, 96.390, 3700.0, 60.8276
21.604407584, 96.390, 3644.0, 60.3656
21.630668149, 96.390, 3572.0, 59.7662
21.656928715, 96.390, 3748.0, 61.2209
21.683189280, 96.390, 3731.0, 61.0819
21.709449846, 96.390, 3634.0, 60.2827
21.735710411, 96.390, 3600.0, 60.0000
21.761970976, 96.390, 3648.0, 60.3987
21.788231542, 96.390, 3527.0, 59.3886
21.814492107, 96.390, 3600.0, 60.0000
21.840752672, 96.390, 3552.0, 59.5987
21.867013238, 96.390, 3634.0, 60.2827
21.893273803, 96.390, 3595.0, 59.9583
21.919534368, 96.390, 3627.0, 60.2246
21.945794934, 96.390, 3603.0, 60.0250
21.972055499, 96.390, 3507.0, 59.2199
21.998316064, 96.390, 3651.0, 60.4235
22.024576630, 96.390, 3656.0, 60.4649
22.050837195, 96.390, 3631.0, 60.2578
22.077097761, 96.390, 3616.0, 60.1332
22.103358326, 96.390, 3600.0, 60.0000
22.129618891, 96.390, 3637.0, 60.3075
22.155879457, 96.390, 3669.0, 60.5723
22.182140022, 96.390, 3624.0, 60.1997
22.208400587, 96.390, 3563.0, 59.6909
22.234661153, 96.390, 3584.0, 59.8665
22.260921718, 96.390, 3643.0, 60.3573
22.287182283, 96.390, 3586.0, 59.8832
22.313442849, 96.390, 3633.0, 60.2744
22.339703414, 96.390, 3553.0, 59.6070
22.365963979, 96.390, 3494.0, 59.1101
22.392224545, 96.390, 3480.0, 58.9915
22.418485110, 96.390, 3621.0, 60.1747
22.444745675, 96.390, 3630.0, 60.2495
22.471006241, 96.390, 3602.0, 60.0167
22.497266806, 96.390, 3684.0, 60.6960
22.523527372, 96.390, 3570.0, 59.7495
22.549787937, 96.390, 3590.0, 59.9166
22.576048502, 96.390, 3591.0, 59.9250
22.602309068, 96.390, 3698.0, 60.8112
22.628569633, 96.390, 3577.0, 59.8080
22.654830198, 96.390, 3642.0, 60.3490
22.681090764, 96.390, 3556.0, 59.6322
22.707351329, 96.390, 3574.0, 59.7829
22.733611894, 96.390, 3532.0, 59.4306
22.759872460, 96.390, 3586.0, 59.8832
22.786133025, 96.390, 3542.0, 59.5147
22.812393590, 96.390, 3703.0, 60.8523
22.838654156, 96.390, 3582.0, 59.8498
22.864914721, 96.390, 3569.0, 59.7411
22.891175287, 96.390, 3562.0, 59.6825
22.917435852, 96.390, 3442.0, 58.6686
22.943696417, 96.390, 3605.0, 60.0417
22.969956983, 96.390, 3506.0, 59.2115
22.996217548, 96.390, 3534.0, 59.4475
23.022478113, 96.390, 3550.0, 59.5819
23.048738679, 96.390, 3484.0, 59.0254
23.074999244, 96.390, 3541.0, 59.5063
23.101259809, 96.390, 3532.0, 59.4306
23.127520375, 96.390, 3550.0, 59.5819
23.153780940, 96.390, 3549.0, 59.5735
23.180041505, 96.390, 3492.0, 59.0931
23.206302071, 96.390, 3550.0, 59.5819
23.232562636, 96.390, 3493.0, 59.1016
23.258823201, 96.390, 3517.0, 59.3043
23.285083767, 96.390, 3491.0, 59.0847
23.311344332, 96.390, 3540.0, 59.4979
23.337604898, 96.390, 3439.0, 58.6430
23.363865463, 96.390, 3484.0, 59.0254
23.390126028, 96.390, 3332.0, 57.7235
23.416386594, 96.390, 3404.0, 58.3438
23.442647159, 96.390, 3505.0, 59.2030
23.468907724, 96.390, 3552.0, 59.5987
23.495168290, 96.390, 3564.0, 59.6992
23.521428855, 96.390, 3540.0, 59.4979
23.547689420, 96.390, 3511.0, 59.2537
23.573949986, 96.390, 3455.0, 58.7792
23.600210551, 96.390, 3516.0, 59.2959
23.626471116, 96.390, 3428.0, 58.5491
23.652731682, 96.390, 3415.0, 58.4380
23.678992247, 96.390, 3379.0, 58.1292
23.705252813, 96.390, 3328.0, 57.6888
23.731513378, 96.390, 3370.0, 58.0517
23.757773943, 96.390, 3364.0, 58.0000
23.784034509, 96.390, 3402.0, 58.3267
23.810295074, 96.390, 3346.0, 57.8446
23.836555639, 96.390, 3248.0, 56.9912
23.862816205, 96.390, 3449.0, 58.7282
23.889076770, 96.390, 3356.0, 57.9310
23.915337335, 96.390, 3307.0, 57.5065
23.941597901, 96.390, 3317.0, 57.5934
23.967858466, 96.390, 3239.0, 56.9122
23.994119031, 96.390, 3390.0, 58.2237
24.020379597, 96.390, 3342.0, 57.8100
24.046640162, 96.390, 3375.0, 58.0948
24.072900727, 96.390, 3341.0, 57.8014
24.099161293, 96.390, 3379.0, 58.1292
24.125421858, 96.390, 3309.0, 57.5239
24.151682424, 96.390, 3333.0, 57.7321
24.177942989, 96.390, 3404.0, 58.3438
24.204203554, 96.390, 3238.0, 56.9034
24.230464120, 96.390, 3364.0, 58.0000
24.256724685, 96.390, 3335.0, 57.7495
24.282985250, 96.390, 3324.0, 57.6541
24.309245816, 96.390, 3406.0, 58.3609
24.335506381, 96.390, 3312.0, 57.5500
24.361766946, 96.390, 3239.0, 56.9122
24.388027512, 96.390, 3159.0, 56.2050
24.414288077, 96.390, 3124.0, 55.8928
24.440548642, 96.390, 3173.0, 56.3294
24.466809208, 96.390, 3188.0, 56.4624
24.493069773, 96.390, 3243.0, 56.9473
24.519330338, 96.390, 3185.0, 56.4358
24.545590904, 96.390, 3181.0, 56.4004
24.571851469, 96.390, 3247.0, 56.9825
24.598112035, 96.390, 3045.0, 55.1815
24.624372600, 96.390, 3013.0, 54.8908
24.650633165, 96.390, 3060.0, 55.3173
24.676893731, 96.390, 3103.0, 55.7046
24.703154296, 96.390, 2969.0, 54.4885
24.729414861, 96.390, 3070.0, 55.4076
24.755675427, 96.390, 3060.0, 55.3173
24.781935992, 96.390, 3031.0, 55.0545
24.808196557, 96.390, 2976.0, 54.5527
24.834457123, 96.390, 2960.0, 54.4059
24.860717688, 96.390, 2955.0, 54.3599
24.886978253, 96.390, 3075.0, 55.4527
24.913238819, 96.390, 2989.0, 54.6717
24.939499384, 96.390, 3080.0, 55.4977
24.965759950, 96.390, 2960.0, 54.4059
24.992020515, 96.390, 2955.0, 54.3599
25.018281080, 96.390, 3033.0, 55.0727
25.044541646, 96.390, 2981.0, 54.5985
25.070802211, 96.390, 2877.0, 53.6377
25.097062776, 96.390, 3026.0, 55.0091
25.123323342, 96.390, 2786.0, 52.7826
25.149583907, 96.390, 2887.0, 53.7308
25.175844472, 96.390, 2902.0, 53.8702
25.202105038, 96.390, 2846.0, 53.3479
25.228365603, 96.390, 2931.0, 54.1387
25.254626168, 96.390, 2924.0, 54.0740
25.280886734, 96.390, 2841.0, 53.3010
25.307147299, 96.390, 2904.0, 53.8888
25.333407864, 96.390, 2944.0, 54.2586
25.359668430, 96.390, 2880.0, 53.6656
25.385928995, 96.390, 2936.0, 54.1849
25.412189561, 96.390, 2909.0, 53.9351
25.438450126, 96.390, 3004.0, 54.8088
25.464710691, 96.390, 2999.0, 54.7631
25.490971257, 96.390, 2737.0, 52.3163
25.517231822, 96.390, 2926.0, 54.0925
25.543492387, 96.390, 2826.0, 53.1601
25.569752953, 96.390, 2777.0, 52.6972
25.596013518, 96.390, 2736.0, 52.3068
25.622274083, 96.390, 2814.0, 53.0471
25.648534649, 96.390, 2702.0, 51.9808
25.674795214, 96.390, 2839.0, 53.2823
25.701055779, 96.390, 2678.0, 51.7494
25.727316345, 96.390, 2853.0, 53.4135
25.753576910, 96.390, 2809.0, 53.0000
25.779837476, 96.390, 2665.0, 51.6236
25.806098041, 96.390, 2755.0, 52.4881
25.832358606, 96.390, 2878.0, 53.6470
25.858619172, 96.390, 2721.0, 52.1632
25.884879737, 96.390, 2713.0, 52.0865
25.911140302, 96.390, 2665.0, 51.6236
25.937400868, 96.390, 2700.0, 51.9615
25.963661433, 96.390, 2659.0, 51.5655
25.989921998, 96.390, 2687.0, 51.8363
26.016182564, 96.390, 2713.0, 52.0865
26.042443129, 96.390, 2706.0, 52.0192
26.068703694, 96.390, 2683.0, 51.7977
26.094964260, 96.390, 2668.0, 51.6527
26.121224825, 96.390, 2588.0, 50.8724
26.147485390, 96.390, 2558.0, 50.5767
26.173745956, 96.390, 2693.0, 51.8941
26.200006521, 96.390, 2627.0, 51.2543
26.226267087, 96.390, 2625.0, 51.2348
26.252527652, 96.390, 2580.0, 50.7937
26.278788217, 96.390, 2622.0, 51.2055
26.305048783, 96.390, 2612.0, 51.1077
26.331309348, 96.390, 2669.0, 51.6624
26.357569913, 96.390, 2590.0, 50.8920
26.383830479, 96.390, 2638.0, 51.3615
26.410091044, 96.390, 2608.0, 51.0686
26.436351609, 96.390, 2588.0, 50.8724
26.462612175, 96.390, 2556.0, 50.5569
26.488872740, 96.390, 2628.0, 51.2640
26.515133305, 96.390, 2446.0, 49.4571
26.541393871, 96.390, 2596.0, 50.9510
26.567654436, 96.390, 2526.0, 50.2593
26.593915002, 96.390, 2501.0, 50.0100
26.620175567, 96.390, 2444.0, 49.4368
26.646436132, 96.390, 2567.0, 50.6656
26.672696698, 96.390, 2565.0, 50.6458
26.698957263, 96.390, 2425.0, 49.2443
26.725217828, 96.390, 2467.0, 49.6689
26.751478394, 96.390, 2552.0, 50.5173
26.777738959, 96.390, 2522.0, 50.2195
26.803999524, 96.390, 2503.0, 50.0300
26.830260090, 96.390, 2431.0, 49.3052
26.856520655, 96.390, 2520.0, 50.1996
26.882781220, 96.390, 2440.0, 49.3964
26.909041786, 96.390, 2445.0, 49.4469
26.935302351, 96.390, 2386.0, 48.8467
26.961562916, 96.390, 2511.0, 50.1099
26.987823482, 96.390, 2493.0, 49.9300
27.014084047, 96.390, 2500.0, 50.0000
27.040344613, 96.390, 2489.0, 49.8899
27.066605178, 96.390, 2477.0, 49.7695
27.092865743, 96.390, 2404.0, 49.0306
27.119126309, 96.390, 2415.0, 49.1426
27.145386874, 96.390, 2495.0, 49.9500
27.171647439, 96.390, 2354.0, 48.5180
27.197908005, 96.390, 2516.0, 50.1597
27.224168570, 96.390, 2503.0, 50.0300
27.250429135, 96.390, 2526.0, 50.2593
27.276689701, 96.390, 2441.0, 49.4065
27.302950266, 96.390, 2431.0, 49.3052
27.329210831, 96.390, 2428.0, 49.2747
27.355471397, 96.390, 2372.0, 48.7032
27.381731962, 96.390, 2461.0, 49.6085
27.407992528, 96.390, 2316.0, 48.1248
27.434253093, 96.390, 2431.0, 49.3052
27.460513658, 96.390, 2357.0, 48.5489
27.486774224, 96.390, 2458.0, 49.5782
27.513034789, 96.390, 2324.0, 48.2079
27.539295354, 96.390, 2339.0, 48.3632
27.565555920, 96.390, 2436.0, 49.3559
27.591816485, 96.390, 2426.0, 49.2544
27.618077050, 96.390, 2404.0, 49.0306
27.644337616, 96.390, 2403.0, 49.0204
27.670598181, 96.390, 2470.0, 49.6991
27.696858746, 96.390, 2567.0, 50.6656
27.723119312, 96.390, 2412.0, 49.1121
27.749379877, 96.390, 2371.0, 48.6929
27.775640442, 96.390, 2510.0, 50.0999
27.801901008, 96.390, 2366.0, 48.6415
27.828161573, 96.390, 2345.0, 48.4252
27.854422139, 96.390, 2344.0, 48.4149
27.880682704, 96.390, 2289.0, 47.8435
27.906943269, 96.390, 2260.0, 47.5395
27.933203835, 96.390, 2316.0, 48.1248
27.959464400, 96.390, 2314.0, 48.1041
27.985724965, 96.390, 2271.0, 47.6550
28.011985531, 96.390, 2315.0, 48.1144
28.038246096, 96.390, 2328.0, 48.2494
28.064506661, 96.390, 2385.0, 48.8365
28.090767227, 96.390, 2396.0, 48.9490
28.117027792, 96.390, 2330.0, 48.2701
28.143288357, 96.390, 2269.0, 47.6340
28.169548923, 96.390, 2361.0, 48.5901
28.195809488, 96.390, 2372.0, 48.7032
28.222070054, 96.390, 2355.0, 48.5283
28.248330619, 96.390, 2296.0, 47.9166
28.274591184, 96.390, 2267.0, 47.6130
28.300851750, 96.390, 2273.0, 47.6760
28.327112315, 96.390, 2236.0, 47.2864
28.353372880, 96.390, 2265.0, 47.5920
28.379633446, 96.390, 2353.0, 48.5077
28.405894011, 96.390, 2284.0, 47.7912
28.432154576, 96.390, 2256.0, 47.4974
28.458415142, 96.390, 2239.0, 47.3181
28.484675707, 96.390, 2188.0, 46.7761
28.510936272, 96.390, 2293.0, 47.8853
28.537196838, 96.390, 2357.0, 48.5489
28.563457403, 96.390, 2283.0, 47.7807
28.589717968, 96.390, 2295.0, 47.9062
28.615978534, 96.390, 2242.0, 47.3498
28.642239099, 96.390, 2250.0, 47.4342
28.668499665, 96.390, 2358.0, 48.5592
28.694760230, 96.390, 2278.0, 47.7284
28.721020795, 96.390, 2362.0, 48.6004
28.747281361, 96.390, 2361.0, 48.5901
28.773541926, 96.390, 2360.0, 48.5798
28.799802491, 96.390, 2292.0, 47.8748
28.826063057, 96.390, 2259.0, 47.5289
28.852323622, 96.390, 2218.0, 47.0956
28.878584187, 96.390, 2230.0, 47.2229
28.904844753, 96.390, 2190.0, 46.7974
28.931105318, 96.390, 2294.0, 47.8957
28.957365883, 96.390, 2272.0, 47.6655
28.983626449, 96.390, 2247.0, 47.4025
29.009887014, 96.390, 2204.0, 46.9468
29.036147579, 96.390, 2209.0, 47.0000
29.062408145, 96.390, 2231.0, 47.2335
29.088668710, 96.390, 2196.0, 46.8615
29.114929276, 96.390, 2324.0, 48.2079
29.141189841, 96.390, 2281.0, 47.7598
29.167450406, 96.390, 2191.0, 46.8081
29.193710972, 96.390, 2272.0, 47.6655
29.219971537, 96.390, 2231.0, 47.2335
29.246232102, 96.390, 2122.0, 46.0652
29.272492668, 96.390, 2190.0, 46.7974
29.298753233, 96.390, 2260.0, 47.5395
29.325013798, 96.390, 2079.0, 45.5961
29.351274364, 96.390, 2232.0, 47.2440
29.377534929, 96.390, 2208.0, 46.9894
29.403795494, 96.390, 2265.0, 47.5920
29.430056060, 96.390, 2157.0, 46.4435
29.456316625, 96.390, 2160.0, 46.4758
29.482577191, 96.390, 2124.0, 46.0869
29.508837756, 96.390, 2172.0, 46.6047
29.535098321, 96.390, 2227.0, 47.1911
29.561358887, 96.390, 2082.0, 45.6289
29.587619452, 96.390, 2213.0, 47.0425
29.613880017, 96.390, 2192.0, 46.8188
29.640140583, 96.390, 2254.0, 47.4763
29.666401148, 96.390, 2123.0, 46.0760
29.692661713, 96.390, 2219.0, 47.1063
29.718922279, 96.390, 2190.0, 46.7974
29.745182844, 96.390, 2126.0, 46.1086
29.771443409, 96.390, 2090.0, 45.7165
29.797703975, 96.390, 2171.0, 46.5940
29.823964540, 96.390, 2185.0, 46.7440
29.850225105, 96.390, 2151.0, 46.3789
29.876485671, 96.390, 2307.0, 48.0312
29.902746236, 96.390, 2138.0, 46.2385
29.929006802, 96.390, 2099.0, 45.8148
29.955267367, 96.390, 2164.0, 46.5188
29.981527932, 96.390, 2131.0, 46.1628
30.007788498, 96.390, 2085.0, 45.6618
30.034049063, 96.390, 2097.0, 45.7930
30.060309628, 96.390, 2086.0, 45.6727
30.086570194, 96.390, 2108.0, 45.9130
30.112830759, 96.390, 2210.0, 47.0106
30.139091324, 96.390, 2221.0, 47.1275
30.165351890, 96.390, 2224.0, 47.1593
30.191612455, 96.390, 2209.0, 47.0000
30.217873020, 96.390, 2286.0, 47.8121
30.244133586, 96.390, 2339.0, 48.3632
30.270394151, 96.390, 2265.0, 47.5920
30.296654717, 96.390, 2178.0, 46.6690
30.322915282, 96.390, 2153.0, 46.4004
30.349175847, 96.390, 2157.0, 46.4435
30.375436413, 96.390, 2169.0, 46.5725
30.401696978, 96.390, 2191.0, 46.8081
30.427957543, 96.390, 2147.0, 46.3357
30.454218109, 96.390, 2100.0, 45.8258
30.480478674, 96.390, 2145.0, 46.3141
30.506739239, 96.390, 2223.0, 47.1487
30.532999805, 96.390, 2141.0, 46.2709
30.559260370, 96.390, 2176.0, 46.6476
30.585520935, 96.390, 2154.0, 46.4112
30.611781501, 96.390, 2129.0, 46.1411
30.638042066, 96.390, 2106.0, 45.8912
30.664302631, 96.390, 2127.0, 46.1194
30.690563197, 96.390, 2110.0, 45.9347
30.716823762, 96.390, 2146.0, 46.3249
30.743084328, 96.390, 2215.0, 47.0638
30.769344893, 96.390, 2180.0, 46.6905
30.795605458, 96.390, 2197.0, 46.8722
30.821866024, 96.390, 2115.0, 45.9891
30.848126589, 96.390, 2135.0, 46.2061
30.874387154, 96.390, 2062.0, 45.4093
30.900647720, 96.390, 2042.0, 45.1885
30.926908285, 96.390, 2106.0, 45.8912
30.953168850, 96.390, 2084.0, 45.6508
30.979429416, 96.390, 2038.0, 45.1442
31.005689981, 96.390, 2009.0, 44.8219
31.031950546, 96.390, 2004.0, 44.7661
31.058211112, 96.390, 2046.0, 45.2327
31.084471677, 96.390, 2018.0, 44.9222
31.110732243, 96.390, 1987.0, 44.5758
31.136992808, 96.390, 2053.0, 45.3100
31.163253373, 96.390, 2005.0, 44.7772
31.189513939, 96.390, 1997.0, 44.6878
31.215774504, 96.390, 2078.0, 45.5851
31.242035069, 96.390, 2027.0, 45.0222
31.268295635, 96.390, 2029.0, 45.0444
31.294556200, 96.390, 2063.0, 45.4203
31.320816765, 96.390, 2016.0, 44.8999
31.347077331, 96.390, 2051.0, 45.2880
31.373337896, 96.390, 1961.0, 44.2832
31.399598461, 96.390, 2081.0, 45.6180
31.425859027, 96.390, 2058.0, 45.3652
31.452119592, 96.390, 2059.0, 45.3762
31.478380157, 96.390, 1980.0, 44.4972
31.504640723, 96.390, 2044.0, 45.2106
31.530901288, 96.390, 2043.0, 45.1996
31.557161854, 96.390, 1957.0, 44.2380
31.583422419, 96.390, 2058.0, 45.3652
31.609682984, 96.390, 2031.0, 45.0666
31.635943550, 96.390, 2069.0, 45.4863
31.662204115, 96.390, 2066.0, 45.4533
31.688464680, 96.390, 2057.0, 45.3542
31.714725246, 96.390, 2144.0, 46.3033
31.740985811, 96.390, 1997.0, 44.6878
31.767246376, 96.390, 2154.0, 46.4112
31.793506942, 96.390, 2102.0, 45.8476
31.819767507, 96.390, 1968.0, 44.3621
31.846028072, 96.390, 2029.0, 45.0444
31.872288638, 96.390, 2049.0, 45.2659
31.898549203, 96.390, 1911.0, 43.7150
31.924809769, 96.390, 1936.0, 44.0000
31.951070334, 96.390, 2027.0, 45.0222
31.977330899, 96.390, 1972.0, 44.4072
32.003591465, 96.390, 2017.0, 44.9110
32.029852030, 96.390, 1984.0, 44.5421
32.056112595, 96.390, 1959.0, 44.2606
32.082373161, 96.390, 1961.0, 44.2832
32.108633726, 96.390, 1889.0, 43.4626
32.134894291, 96.390, 1937.0, 44.0114
32.161154857, 96.390, 1998.0, 44.6990
32.187415422, 96.390, 1807.0, 42.5088
32.213675987, 96.390, 1922.0, 43.8406
32.239936553, 96.390, 1846.0, 42.9651
32.266197118, 96.390, 1911.0, 43.7150
32.292457683, 96.390, 1868.0, 43.2204
32.318718249, 96.390, 1904.0, 43.6348
32.344978814, 96.390, 1893.0, 43.5086
32.371239380, 96.390, 1928.0, 43.9090
32.397499945, 96.390, 1909.0, 43.6921
32.423760510, 96.390, 1902.0, 43.6119
32.450021076, 96.390, 1886.0, 43.4281
32.476281641, 96.390, 1791.0, 42.3202
32.502542206, 96.390, 1885.0, 43.4166
32.528802772, 96.390, 1795.0, 42.3674
32.555063337, 96.390, 1917.0, 43.7836
32.581323902, 96.390, 1874.0, 43.2897
32.607584468, 96.390, 1925.0, 43.8748
32.633845033, 96.390, 1900.0, 43.5890
32.660105598, 96.390, 1953.0, 44.1928
32.686366164, 96.390, 1956.0, 44.2267
32.712626729, 96.390, 1936.0, 44.0000
32.738887295, 96.390, 1795.0, 42.3674
32.765147860, 96.390, 1844.0, 42.9418
32.791408425, 96.390, 1821.0, 42.6732
32.817668991, 96.390, 1868.0, 43.2204
32.843929556, 96.390, 1827.0, 42.7434
32.870190121, 96.390, 1825.0, 42.7200
32.896450687, 96.390, 1911.0, 43.7150
32.922711252, 96.390, 1809.0, 42.5323
32.948971817, 96.390, 1864.0, 43.1741
32.975232383, 96.390, 1957.0, 44.2380
33.001492948, 96.390, 1934.0, 43.9773
33.027753513, 96.390, 1981.0, 44.5084
33.054014079, 96.390, 2017.0, 44.9110
33.080274644, 96.390, 1986.0, 44.5646
33.106535209, 96.390, 2062.0, 45.4093
33.132795775, 96.390, 1958.0, 44.2493
33.159056340, 96.390, 2028.0, 45.0333
33.185316906, 96.390, 1895.0, 43.5316
33.211577471, 96.390, 1908.0, 43.6807
33.237838036, 96.390, 1892.0, 43.4971
33.264098602, 96.390, 1906.0, 43.6578
33.290359167, 96.390, 1835.0, 42.8369
33.316619732, 96.390, 1793.0, 42.3438
33.342880298, 96.390, 1857.0, 43.0929
33.369140863, 96.390, 1856.0, 43.0813
33.395401428, 96.390, 1971.0, 44.3959
33.421661994, 96.390, 1971.0, 44.3959
33.447922559, 96.390, 2102.0, 45.8476
33.474183124, 96.390, 2003.0, 44.7549
33.500443690, 96.390, 1904.0, 43.6348
33.526704255, 96.390, 1936.0, 44.0000
33.552964820, 96.390, 1938.0, 44.0227
33.579225386, 96.390, 1885.0, 43.4166
33.605485951, 96.390, 1922.0, 43.8406
33.631746517, 96.390, 1911.0, 43.7150
33.658007082, 96.390, 1841.0, 42.9069
33.684267647, 96.390, 1837.0, 42.8602
33.710528213, 96.390, 1828.0, 42.7551
33.736788778, 96.390, 1920.0, 43.8178
33.763049343, 96.390, 1869.0, 43.2319
33.789309909, 96.390, 1879.0, 43.3474
33.815570474, 96.390, 1959.0, 44.2606
33.841831039, 96.390, 1923.0, 43.8520
33.868091605, 96.390, 1928.0, 43.9090
33.894352170, 96.390, 1989.0, 44.5982
33.920612735, 96.390, 2022.0, 44.9667
33.946873301, 96.390, 2110.0, 45.9347
33.973133866, 96.390, 2027.0, 45.0222
33.999394432, 96.390, 2096.0, 45.7821
34.025654997, 96.390, 2032.0, 45.0777
34.051915562, 96.390, 2073.0, 45.5302
34.078176128, 96.390, 2033.0, 45.0888
34.104436693, 96.390, 2082.0, 45.6289
34.130697258, 96.390, 2046.0, 45.2327
34.156957824, 96.390, 2039.0, 45.1553
34.183218389, 96.390, 2066.0, 45.4533
34.209478954, 96.390, 2055.0, 45.3321
34.235739520, 96.390, 2044.0, 45.2106
34.262000085, 96.390, 2082.0, 45.6289
34.288260650, 96.390, 1994.0, 44.6542
34.314521216, 96.390, 2041.0, 45.1774
34.340781781, 96.390, 2035.0, 45.1110
34.367042346, 96.390, 2032.0, 45.0777
34.393302912, 96.390, 2012.0, 44.8553
34.419563477, 96.390, 1889.0, 43.4626
34.445824043, 96.390, 1977.0, 44.4635
34.472084608, 96.390, 2070.0, 45.4973
34.498345173, 96.390, 1936.0, 44.0000
34.524605739, 96.390, 1934.0, 43.9773
34.550866304, 96.390, 1994.0, 44.6542
34.577126869, 96.390, 1995.0, 44.6654
34.603387435, 96.390, 2021.0, 44.9555
34.629648000, 96.390, 1939.0, 44.0341
34.655908565, 96.390, 2001.0, 44.7325
34.682169131, 96.390, 2000.0, 44.7214
34.708429696, 96.390, 2002.0, 44.7437
34.734690261, 96.390, 1912.0, 43.7264
34.760950827, 96.390, 2000.0, 44.7214
34.787211392, 96.390, 1979.0, 44.4860
34.813471958, 96.390, 1933.0, 43.9659
34.839732523, 96.390, 1875.0, 43.3013
34.865993088, 96.390, 1941.0, 44.0568
34.892253654, 96.390, 1984.0, 44.5421
34.918514219, 96.390, 2021.0, 44.9555
34.944774784, 96.390, 2036.0, 45.1221
34.971035350, 96.390, 2087.0, 45.6837
34.997295915, 96.390, 2129.0, 46.1411
35.023556480, 96.390, 1993.0, 44.6430
35.049817046, 96.390, 2076.0, 45.5631
35.076077611, 96.390, 1979.0, 44.4860
35.102338176, 96.390, 1976.0, 44.4522
35.128598742, 96.390, 2076.0, 45.5631
35.154859307, 96.390, 1939.0, 44.0341
35.181119872, 96.390, 1993.0, 44.6430
35.207380438, 96.390, 1994.0, 44.6542
35.233641003, 96.390, 1987.0, 44.5758
35.259901569, 96.390, 1926.0, 43.8862
35.286162134, 96.390, 1929.0, 43.9204
35.312422699, 96.390, 1950.0, 44.1588
35.338683265, 96.390, 1973.0, 44.4185
35.364943830, 96.390, 1989.0, 44.5982
35.391204395, 96.390, 1960.0, 44.2719
35.417464961, 96.390, 1943.0, 44.0795
35.443725526, 96.390, 1985.0, 44.5533
35.469986091, 96.390, 1935.0, 43.9886
35.496246657, 96.390, 1858.0, 43.1045
35.522507222, 96.390, 1921.0, 43.8292
35.548767787, 96.390, 2007.0, 44.7996
35.575028353, 96.390, 1884.0, 43.4051
35.601288918, 96.390, 1906.0, 43.6578
35.627549484, 96.390, 1839.0, 42.8836
35.653810049, 96.390, 1997.0, 44.6878
35.680070614, 96.390, 1873.0, 43.2782
35.706331180, 96.390, 1937.0, 44.0114
35.732591745, 96.390, 1879.0, 43.3474
35.758852310, 96.390, 1836.0, 42.8486
35.785112876, 96.390, 1845.0, 42.9535
35.811373441, 96.390, 1847.0, 42.9767
35.837634006, 96.390, 1767.0, 42.0357
35.863894572, 96.390, 1890.0, 43.4741
35.890155137, 96.390, 1876.0, 43.3128
35.916415702, 96.390, 1872.0, 43.2666
35.942676268, 96.390, 1832.0, 42.8019
35.968936833, 96.390, 1839.0, 42.8836
35.995197398, 96.390, 1809.0, 42.5323
36.021457964, 96.390, 1828.0, 42.7551
36.047718529, 96.390, 1783.0, 42.2256
36.073979095, 96.390, 1791.0, 42.3202
36.100239660, 96.390, 1747.0, 41.7971
36.126500225, 96.390, 1735.0, 41.6533
36.152760791, 96.390, 1725.0, 41.5331
36.179021356, 96.390, 1722.0, 41.4970
36.205281921, 96.390, 1686.0, 41.0609
36.231542487, 96.390, 1728.0, 41.5692
36.257803052, 96.390, 1784.0, 42.2374
36.284063617, 96.390, 1746.0, 41.7852
36.310324183, 96.390, 1736.0, 41.6653
36.336584748, 96.390, 1843.0, 42.9302
36.362845313, 96.390, 1742.0, 41.7373
36.389105879, 96.390, 1792.0, 42.3320
36.415366444, 96.390, 1760.0, 41.9524
36.441627010, 96.390, 1722.0, 41.4970
36.467887575, 96.390, 1749.0, 41.8210
36.494148140, 96.390, 1757.0, 41.9166
36.520408706, 96.390, 1659.0, 40.7308
36.546669271, 96.390, 1706.0, 41.3038
36.572929836, 96.390, 1735.0, 41.6533
36.599190402, 96.390, 1613.0, 40.1622
36.625450967, 96.390, 1654.0, 40.6694
36.651711532, 96.390, 1661.0, 40.7554
36.677972098, 96.390, 1759.0, 41.9404
36.704232663, 96.390, 1732.0, 41.6173
36.730493228, 96.390, 1638.0, 40.4722
36.756753794, 96.390, 1631.0, 40.3856
36.783014359, 96.390, 1604.0, 40.0500
36.809274924, 96.390, 1620.0, 40.2492
36.835535490, 96.390, 1632.0, 40.3980
36.861796055, 96.390, 1620.0, 40.2492
36.888056621, 96.390, 1630.0, 40.3733
36.914317186, 96.390, 1536.0, 39.1918
36.940577751, 96.390, 1581.0, 39.7618
36.966838317, 96.390, 1600.0, 40.0000
36.993098882, 96.390, 1516.0, 38.9358
37.019359447, 96.390, 1563.0, 39.5348
37.045620013, 96.390, 1559.0, 39.4842
37.071880578, 96.390, 1512.0, 38.8844
37.098141143, 96.390, 1511.0, 38.8716
37.124401709, 96.390, 1573.0, 39.6611
37.150662274, 96.390, 1523.0, 39.0256
37.176922839, 96.390, 1562.0, 39.5221
37.203183405, 96.390, 1543.0, 39.2810
37.229443970, 96.390, 1596.0, 39.9500
37.255704535, 96.390, 1463.0, 38.2492
37.281965101, 96.390, 1582.0, 39.7744
37.308225666, 96.390, 1571.0, 39.6358
37.334486232, 96.390, 1520.0, 38.9872
37.360746797, 96.390, 1481.0, 38.4838
37.387007362, 96.390, 1532.0, 39.1408
37.413267928, 96.390, 1484.0, 38.5227
37.439528493, 96.390, 1477.0, 38.4318
37.465789058, 96.390, 1441.0, 37.9605
37.492049624, 96.390, 1547.0, 39.3319
37.518310189, 96.390, 1476.0, 38.4187
37.544570754, 96.390, 1498.0, 38.7040
37.570831320, 96.390, 1561.0, 39.5095
37.597091885, 96.390, 1514.0, 38.9102
37.623352450, 96.390, 1476.0, 38.4187
37.649613016, 96.390, 1506.0, 38.8072
37.675873581, 96.390, 1481.0, 38.4838
37.702134147, 96.390, 1580.0, 39.7492
37.728394712, 96.390, 1508.0, 38.8330
37.754655277, 96.390, 1560.0, 39.4968
37.780915843, 96.390, 1522.0, 39.0128
37.807176408, 96.390, 1509.0, 38.8458
37.833436973, 96.390, 1587.0, 39.8372
37.859697539, 96.390, 1538.0, 39.2173
37.885958104, 96.390, 1430.0, 37.8153
37.912218669, 96.390, 1507.0, 38.8201
37.938479235, 96.390, 1515.0, 38.9230
37.964739800, 96.390, 1483.0, 38.5097
37.991000365, 96.390, 1408.0, 37.5233
38.017260931, 96.390, 1447.0, 38.0395
38.043521496, 96.390, 1503.0, 38.7685
38.069782061, 96.390, 1493.0, 38.6394
38.096042627, 96.390, 1519.0, 38.9744
38.122303192, 96.390, 1493.0, 38.6394
38.148563758, 96.390, 1500.0, 38.7298
38.174824323, 96.390, 1451.0, 38.0920
38.201084888, 96.390, 1444.0, 38.0000
38.227345454, 96.390, 1519.0, 38.9744
38.253606019, 96.390, 1520.0, 38.9872
38.279866584, 96.390, 1454.0, 38.1314
38.306127150, 96.390, 1488.0, 38.5746
38.332387715, 96.390, 1515.0, 38.9230
38.358648280, 96.390, 1535.0, 39.1791
38.384908846, 96.390, 1457.0, 38.1707
38.411169411, 96.390, 1488.0, 38.5746
38.437429976, 96.390, 1422.0, 37.7094
38.463690542, 96.390, 1431.0, 37.8286
38.489951107, 96.390, 1456.0, 38.1576
38.516211673, 96.390, 1327.0, 36.4280
38.542472238, 96.390, 1413.0, 37.5899
38.568732803, 96.390, 1376.0, 37.0945
38.594993369, 96.390, 1420.0, 37.6829
38.621253934, 96.390, 1456.0, 38.1576
38.647514499, 96.390, 1363.0, 36.9188
38.673775065, 96.390, 1422.0, 37.7094
38.700035630, 96.390, 1372.0, 37.0405
38.726296195, 96.390, 1410.0, 37.5500
38.752556761, 96.390, 1367.0, 36.9730
38.778817326, 96.390, 1385.0, 37.2156
38.805077891, 96.390, 1395.0, 37.3497
38.831338457, 96.390, 1412.0, 37.5766
38.857599022, 96.390, 1321.0, 36.3456
38.883859587, 96.390, 1329.0, 36.4555
38.910120153, 96.390, 1371.0, 37.0270
38.936380718, 96.390, 1315.0, 36.2629
38.962641284, 96.390, 1433.0, 37.8550
38.988901849, 96.390, 1321.0, 36.3456
39.015162414, 96.390, 1376.0, 37.0945
39.041422980, 96.390, 1350.0, 36.7423
39.067683545, 96.390, 1388.0, 37.2559
39.093944110, 96.390, 1368.0, 36.9865
39.120204676, 96.390, 1351.0, 36.7560
39.146465241, 96.390, 1349.0, 36.7287
39.172725806, 96.390, 1342.0, 36.6333
39.198986372, 96.390, 1317.0, 36.2905
39.225246937, 96.390, 1342.0, 36.6333
39.251507502, 96.390, 1373.0, 37.0540
39.277768068, 96.390, 1337.0, 36.5650
39.304028633, 96.390, 1345.0, 36.6742
39.330289199, 96.390, 1306.0, 36.1386
39.356549764, 96.390, 1258.0, 35.4683
39.382810329, 96.390, 1307.0, 36.1525
39.409070895, 96.390, 1305.0, 36.1248
39.435331460, 96.390, 1322.0, 36.3593
39.461592025, 96.390, 1361.0, 36.8917
39.487852591, 96.390, 1315.0, 36.2629
39.514113156, 96.390, 1375.0, 37.0810
39.540373721, 96.390, 1357.0, 36.8375
39.566634287, 96.390, 1331.0, 36.4829
39.592894852, 96.390, 1277.0, 35.7351
39.619155417, 96.390, 1359.0, 36.8646
39.645415983, 96.390, 1344.0, 36.6606
39.671676548, 96.390, 1336.0, 36.5513
39.697937113, 96.390, 1258.0, 35.4683
39.724197679, 96.390, 1314.0, 36.2491
39.750458244, 96.390, 1321.0, 36.3456
39.776718810, 96.390, 1309.0, 36.1801
39.802979375, 96.390, 1381.0, 37.1618
39.829239940, 96.390, 1276.0, 35.7211
39.855500506, 96.390, 1357.0, 36.8375
39.881761071, 96.390, 1333.0, 36.5103
39.908021636, 96.390, 1296.0, 36.0000
39.934282202, 96.390, 1298.0, 36.0278
39.960542767, 96.390, 1333.0, 36.5103
39.986803332, 96.390, 1271.0, 35.6511
40.013063898, 96.390, 1237.0, 35.1710
40.039324463, 96.390, 1206.0, 34.7275
40.065585028, 96.390, 1268.0, 35.6090
40.091845594, 96.390, 1232.0, 35.0999
40.118106159, 96.390, 1347.0, 36.7015
40.144366725, 96.390, 1348.0, 36.7151
40.170627290, 96.390, 1325.0, 36.4005
40.196887855, 96.390, 1348.0, 36.7151
40.223148421, 96.390, 1332.0, 36.4966
40.249408986, 96.390, 1328.0, 36.4417
40.275669551, 96.390, 1227.0, 35.0286
40.301930117, 96.390, 1280.0, 35.7771
40.328190682, 96.390, 1240.0, 35.2136
40.354451247, 96.390, 1239.0, 35.1994
40.380711813, 96.390, 1254.0, 35.4119
40.406972378, 96.390, 1268.0, 35.6090
40.433232943, 96.390, 1239.0, 35.1994
40.459493509, 96.390, 1249.0, 35.3412
40.485754074, 96.390, 1182.0, 34.3802
40.512014639, 96.390, 1181.0, 34.3657
40.538275205, 96.390, 1276.0, 35.7211
40.564535770, 96.390, 1292.0, 35.9444
40.590796336, 96.390, 1254.0, 35.4119
40.617056901, 96.390, 1222.0, 34.9571
40.643317466, 96.390, 1210.0, 34.7851
40.669578032, 96.390, 1227.0, 35.0286
40.695838597, 96.390, 1185.0, 34.4238
40.722099162, 96.390, 1229.0, 35.0571
40.748359728, 96.390, 1224.0, 34.9857
40.774620293, 96.390, 1218.0, 34.8999
40.800880858, 96.390, 1255.0, 35.4260
40.827141424, 96.390, 1211.0, 34.7994
40.853401989, 96.390, 1195.0, 34.5688
40.879662554, 96.390, 1268.0, 35.6090
40.905923120, 96.390, 1226.0, 35.0143
40.932183685, 96.390, 1270.0, 35.6371
40.958444251, 96.390, 1228.0, 35.0428
40.984704816, 96.390, 1212.0, 34.8138
41.010965381, 96.390, 1241.0, 35.2278
41.037225947, 96.390, 1211.0, 34.7994
41.063486512, 96.390, 1228.0, 35.0428
41.089747077, 96.390, 1248.0, 35.3270
41.116007643, 96.390, 1256.0, 35.4401
41.142268208, 96.390, 1232.0, 35.0999
41.168528773, 96.390, 1204.0, 34.6987
41.194789339, 96.390, 1135.0, 33.6898
41.221049904, 96.390, 1200.0, 34.6410
41.247310469, 96.390, 1237.0, 35.1710
41.273571035, 96.390, 1253.0, 35.3977
41.299831600, 96.390, 1234.0, 35.1283
41.326092165, 96.390, 1186.0, 34.4384
41.352352731, 96.390, 1226.0, 35.0143
41.378613296, 96.390, 1206.0, 34.7275
41.404873862, 96.390, 1253.0, 35.3977
41.431134427, 96.390, 1197.0, 34.5977
41.457394992, 96.390, 1182.0, 34.3802
41.483655558, 96.390, 1177.0, 34.3074
41.509916123, 96.390, 1174.0, 34.2637
41.536176688, 96.390, 1261.0, 35.5106
41.562437254, 96.390, 1198.0, 34.6121
41.588697819, 96.390, 1231.0, 35.0856
41.614958384, 96.390, 1208.0, 34.7563
41.641218950, 96.390, 1128.0, 33.5857
41.667479515, 96.390, 1227.0, 35.0286
41.693740080, 96.390, 1211.0, 34.7994
41.720000646, 96.390, 1128.0, 33.5857
41.746261211, 96.390, 1260.0, 35.4965
41.772521776, 96.390, 1183.0, 34.3948
41.798782342, 96.390, 1189.0, 34.4819
41.825042907, 96.390, 1220.0, 34.9285
41.851303473, 96.390, 1206.0, 34.7275
41.877564038, 96.390, 1247.0, 35.3129
41.903824603, 96.390, 1204.0, 34.6987
41.930085169, 96.390, 1189.0, 34.4819
41.956345734, 96.390, 1157.0, 34.0147
41.982606299, 96.390, 1178.0, 34.3220
42.008866865, 96.390, 1166.0, 34.1467
42.035127430, 96.390, 1219.0, 34.9142
42.061387995, 96.390, 1220.0, 34.9285
42.087648561, 96.390, 1150.0, 33.9116
42.113909126, 96.390, 1198.0, 34.6121
42.140169691, 96.390, 1207.0, 34.7419
42.166430257, 96.390, 1268.0, 35.6090
42.192690822, 96.390, 1325.0, 36.4005
42.218951388, 96.390, 1250.0, 35.3553
42.245211953, 96.390, 1188.0, 34.4674
42.271472518, 96.390, 1238.0, 35.1852
42.297733084, 96.390, 1240.0, 35.2136
42.323993649, 96.390, 1174.0, 34.2637
42.350254214, 96.390, 1205.0, 34.7131
42.376514780, 96.390, 1154.0, 33.9706
42.402775345, 96.390, 1233.0, 35.1141
42.429035910, 96.390, 1221.0, 34.9428
42.455296476, 96.390, 1190.0, 34.4964
42.481557041, 96.390, 1161.0, 34.0735
42.507817606, 96.390, 1225.0, 35.0000
42.534078172, 96.390, 1167.0, 34.1614
42.560338737, 96.390, 1180.0, 34.3511
42.586599302, 96.390, 1251.0, 35.3695
42.612859868, 96.390, 1191.0, 34.5109
42.639120433, 96.390, 1196.0, 34.5832
42.665380999, 96.390, 1253.0, 35.3977
42.691641564, 96.390, 1188.0, 34.4674
42.717902129, 96.390, 1187.0, 34.4529
42.744162695, 96.390, 1169.0, 34.1906
42.770423260, 96.390, 1147.0, 33.8674
42.796683825, 96.390, 1225.0, 35.0000
42.822944391, 96.390, 1195.0, 34.5688
42.849204956, 96.390, 1187.0, 34.4529
42.875465521, 96.390, 1203.0, 34.6843
42.901726087, 96.390, 1157.0, 34.0147
42.927986652, 96.390, 1214.0, 34.8425
42.954247217, 96.390, 1262.0, 35.5246
42.980507783, 96.390, 1206.0, 34.7275
43.006768348, 96.390, 1176.0, 34.2929
43.033028914, 96.390, 1173.0, 34.2491
43.059289479, 96.390, 1167.0, 34.1614
43.085550044, 96.390, 1205.0, 34.7131
43.111810610, 96.390, 1175.0, 34.2783
43.138071175, 96.390, 1134.0, 33.6749
43.164331740, 96.390, 1208.0, 34.7563
43.190592306, 96.390, 1172.0, 34.2345
43.216852871, 96.390, 1248.0, 35.3270
43.243113436, 96.390, 1235.0, 35.1426
43.269374002, 96.390, 1202.0, 34.6699
43.295634567, 96.390, 1194.0, 34.5543
43.321895132, 96.390, 1214.0, 34.8425
43.348155698, 96.390, 1221.0, 34.9428
43.374416263, 96.390, 1147.0, 33.8674
43.400676828, 96.390, 1204.0, 34.6987
43.426937394, 96.390, 1160.0, 34.0588
43.453197959, 96.390, 1151.0, 33.9264
43.479458525, 96.390, 1245.0, 35.2846
43.505719090, 96.390, 1217.0, 34.8855
43.531979655, 96.390, 1192.0, 34.5254
43.558240221, 96.390, 1204.0, 34.6987
43.584500786, 96.390, 1144.0, 33.8231
43.610761351, 96.390, 1102.0, 33.1964
43.637021917, 96.390, 1174.0, 34.2637
43.663282482, 96.390, 1169.0, 34.1906
43.689543047, 96.390, 1225.0, 35.0000
43.715803613, 96.390, 1225.0, 35.0000
43.742064178, 96.390, 1209.0, 34.7707
43.768324743, 96.390, 1172.0, 34.2345
43.794585309, 96.390, 1226.0, 35.0143
43.820845874, 96.390, 1248.0, 35.3270
43.847106440, 96.390, 1155.0, 33.9853
43.873367005, 96.390, 1169.0, 34.1906
43.899627570, 96.390, 1248.0, 35.3270
43.925888136, 96.390, 1196.0, 34.5832
43.952148701, 96.390, 1178.0, 34.3220
43.978409266, 96.390, 1172.0, 34.2345
44.004669832, 96.390, 1188.0, 34.4674
44.030930397, 96.390, 1190.0, 34.4964
44.057190962, 96.390, 1195.0, 34.5688
44.083451528, 96.390, 1239.0, 35.1994
44.109712093, 96.390, 1186.0, 34.4384
44.135972658, 96.390, 1210.0, 34.7851
44.162233224, 96.390, 1252.0, 35.3836
44.188493789, 96.390, 1188.0, 34.4674
44.214754354, 96.390, 1236.0, 35.1568
44.241014920, 96.390, 1247.0, 35.3129
44.267275485, 96.390, 1184.0, 34.4093
44.293536051, 96.390, 1256.0, 35.4401
44.319796616, 96.390, 1231.0, 35.0856
44.346057181, 96.390, 1232.0, 35.0999
44.372317747, 96.390, 1232.0, 35.0999
44.398578312, 96.390, 1200.0, 34.6410
44.424838877, 96.390, 1178.0, 34.3220
44.451099443, 96.390, 1184.0, 34.4093
44.477360008, 96.390, 1141.0, 33.7787
44.503620573, 96.390, 1229.0, 35.0571
44.529881139, 96.390, 1236.0, 35.1568
44.556141704, 96.390, 1226.0, 35.0143
44.582402269, 96.390, 1224.0, 34.9857
44.608662835, 96.390, 1161.0, 34.0735
44.634923400, 96.390, 1192.0, 34.5254
44.661183966, 96.390, 1226.0, 35.0143
44.687444531, 96.390, 1220.0, 34.9285
44.713705096, 96.390, 1231.0, 35.0856
44.739965662, 96.390, 1203.0, 34.6843
44.766226227, 96.390, 1242.0, 35.2420
44.792486792, 96.390, 1244.0, 35.2704
44.818747358, 96.390, 1264.0, 35.5528
44.845007923, 96.390, 1231.0, 35.0856
44.871268488, 96.390, 1155.0, 33.9853
44.897529054, 96.390, 1264.0, 35.5528
44.923789619, 96.390, 1122.0, 33.4963
44.950050184, 96.390, 1156.0, 34.0000
44.976310750, 96.390, 1232.0, 35.0999
45.002571315, 96.390, 1160.0, 34.0588
45.028831880, 96.390, 1161.0, 34.0735
45.055092446, 96.390, 1255.0, 35.4260
45.081353011, 96.390, 1190.0, 34.4964
45.107613577, 96.390, 1207.0, 34.7419
45.133874142, 96.390, 1252.0, 35.3836
45.160134707, 96.390, 1190.0, 34.4964
45.186395273, 96.390, 1194.0, 34.5543
45.212655838, 96.390, 1161.0, 34.0735
45.238916403, 96.390, 1172.0, 34.2345
45.265176969, 96.390, 1228.0, 35.0428
45.291437534, 96.390, 1251.0, 35.3695
45.317698099, 96.390, 1207.0, 34.7419
45.343958665, 96.390, 1250.0, 35.3553
45.370219230, 96.390, 1174.0, 34.2637
45.396479795, 96.390, 1218.0, 34.8999
45.422740361, 96.390, 1175.0, 34.2783
45.449000926, 96.390, 1231.0, 35.0856
45.475261492, 96.390, 1201.0, 34.6554
45.501522057, 96.390, 1154.0, 33.9706
45.527782622, 96.390, 1281.0, 35.7911
45.554043188, 96.390, 1192.0, 34.5254
45.580303753, 96.390, 1217.0, 34.8855
45.606564318, 96.390, 1239.0, 35.1994
45.632824884, 96.390, 1168.0, 34.1760
45.659085449, 96.390, 1193.0, 34.5398
45.685346014, 96.390, 1206.0, 34.7275
45.711606580, 96.390, 1217.0, 34.8855
45.737867145, 96.390, 1216.0, 34.8712
45.764127710, 96.390, 1176.0, 34.2929
45.790388276, 96.390, 1197.0, 34.5977
45.816648841, 96.390, 1142.0, 33.7935
45.842909406, 96.390, 1233.0, 35.1141
45.869169972, 96.390, 1198.0, 34.6121
45.895430537, 96.390, 1229.0, 35.0571
45.921691103, 96.390, 1258.0, 35.4683
45.947951668, 96.390, 1206.0, 34.7275
45.974212233, 96.390, 1212.0, 34.8138
46.000472799, 96.390, 1172.0, 34.2345
46.026733364, 96.390, 1214.0, 34.8425
46.052993929, 96.390, 1180.0, 34.3511
46.079254495, 96.390, 1186.0, 34.4384
46.105515060, 96.390, 1254.0, 35.4119
46.131775625, 96.390, 1258.0, 35.4683
46.158036191, 96.390, 1264.0, 35.5528
46.184296756, 96.390, 1224.0, 34.9857
46.210557321, 96.390, 1227.0, 35.0286
46.236817887, 96.390, 1244.0, 35.2704
46.263078452, 96.390, 1170.0, 34.2053
46.289339017, 96.390, 1226.0, 35.0143
46.315599583, 96.390, 1244.0, 35.2704
46.341860148, 96.390, 1186.0, 34.4384
46.368120714, 96.390, 1182.0, 34.3802
46.394381279, 96.390, 1249.0, 35.3412
46.420641844, 96.390, 1160.0, 34.0588
46.446902410, 96.390, 1230.0, 35.0714
46.473162975, 96.390, 1175.0, 34.2783
46.499423540, 96.390, 1193.0, 34.5398
46.525684106, 96.390, 1203.0, 34.6843
46.551944671, 96.390, 1141.0, 33.7787
46.578205236, 96.390, 1167.0, 34.1614
46.604465802, 96.390, 1237.0, 35.1710
46.630726367, 96.390, 1208.0, 34.7563
46.656986932, 96.390, 1181.0, 34.3657
46.683247498, 96.390, 1166.0, 34.1467
46.709508063, 96.390, 1143.0, 33.8083
46.735768629, 96.390, 1195.0, 34.5688
46.762029194, 96.390, 1235.0, 35.1426
46.788289759, 96.390, 1151.0, 33.9264
46.814550325, 96.390, 1209.0, 34.7707
46.840810890, 96.390, 1197.0, 34.5977
46.867071455, 96.390, 1143.0, 33.8083
46.893332021, 96.390, 1161.0, 34.0735
46.919592586, 96.390, 1187.0, 34.4529
46.945853151, 96.390, 1155.0, 33.9853
46.972113717, 96.390, 1172.0, 34.2345
46.998374282, 96.390, 1172.0, 34.2345
47.024634847, 96.390, 1104.0, 33.2265
47.050895413, 96.390, 1181.0, 34.3657
47.077155978, 96.390, 1177.0, 34.3074
47.103416543, 96.390, 1182.0, 34.3802
47.129677109, 96.390, 1161.0, 34.0735
47.155937674, 96.390, 1184.0, 34.4093
47.182198240, 96.390, 1125.0, 33.5410
47.208458805, 96.390, 1084.0, 32.9242
47.234719370, 96.390, 1179.0, 34.3366
47.260979936, 96.390, 1192.0, 34.5254
47.287240501, 96.390, 1176.0, 34.2929
47.313501066, 96.390, 1207.0, 34.7419
47.339761632, 96.390, 1124.0, 33.5261
47.366022197, 96.390, 1159.0, 34.0441
47.392282762, 96.390, 1179.0, 34.3366
47.418543328, 96.390, 1160.0, 34.0588
47.444803893, 96.390, 1138.0, 33.7343
47.471064458, 96.390, 1176.0, 34.2929
47.497325024, 96.390, 1078.0, 32.8329
47.523585589, 96.390, 1170.0, 34.2053
47.549846155, 96.390, 1137.0, 33.7194
47.576106720, 96.390, 1134.0, 33.6749
47.602367285, 96.390, 1178.0, 34.3220
47.628627851, 96.390, 1164.0, 34.1174
47.654888416, 96.390, 1148.0, 33.8821
47.681148981, 96.390, 1100.0, 33.1662
47.707409547, 96.390, 1115.0, 33.3916
47.733670112, 96.390, 1175.0, 34.2783
47.759930677, 96.390, 1091.0, 33.0303
47.786191243, 96.390, 1145.0, 33.8378
47.812451808, 96.390, 1101.0, 33.1813
47.838712373, 96.390, 1123.0, 33.5112
47.864972939, 96.390, 1190.0, 34.4964
47.891233504, 96.390, 1254.0, 35.4119
47.917494069, 96.390, 1266.0, 35.5809
47.943754635, 96.390, 1131.0, 33.6303
47.970015200, 96.390, 1127.0, 33.5708
47.996275766, 96.390, 1173.0, 34.2491
48.022536331, 96.390, 1267.0, 35.5949
48.048796896, 96.390, 1166.0, 34.1467
48.075057462, 96.390, 1121.0, 33.4813
48.101318027, 96.390, 1137.0, 33.7194
48.127578592, 96.390, 1131.0, 33.6303
48.153839158, 96.390, 1171.0, 34.2199
48.180099723, 96.390, 1114.0, 33.3766
48.206360288, 96.390, 1164.0, 34.1174
48.232620854, 96.390, 1153.0, 33.9559
48.258881419, 96.390, 1099.0, 33.1512
48.285141984, 96.390, 1109.0, 33.3017
48.311402550, 96.390, 1217.0, 34.8855
48.337663115, 96.390, 1153.0, 33.9559
48.363923681, 96.390, 1121.0, 33.4813
48.390184246, 96.390, 1127.0, 33.5708
48.416444811, 96.390, 1125.0, 33.5410
48.442705377, 96.390, 1114.0, 33.3766
48.468965942, 96.390, 1139.0, 33.7491
48.495226507, 96.390, 1149.0, 33.8969
48.521487073, 96.390, 1081.0, 32.8786
48.547747638, 96.390, 1149.0, 33.8969
48.574008203, 96.390, 1113.0, 33.3617
48.600268769, 96.390, 1093.0, 33.0606
48.626529334, 96.390, 1107.0, 33.2716
48.652789899, 96.390, 1156.0, 34.0000
48.679050465, 96.390, 1165.0, 34.1321
48.705311030, 96.390, 1111.0, 33.3317
48.731571595, 96.390, 1104.0, 33.2265
48.757832161, 96.390, 1065.0, 32.6343
48.784092726, 96.390, 1147.0, 33.8674
48.810353292, 96.390, 1186.0, 34.4384
48.836613857, 96.390, 1139.0, 33.7491
48.862874422, 96.390, 1050.0, 32.4037
48.889134988, 96.390, 1107.0, 33.2716
48.915395553, 96.390, 1100.0, 33.1662
48.941656118, 96.390, 1086.0, 32.9545
48.967916684, 96.390, 1048.0, 32.3728
48.994177249, 96.390, 1085.0, 32.9393
49.020437814, 96.390, 1087.0, 32.9697
49.046698380, 96.390, 1118.0, 33.4365
49.072958945, 96.390, 1110.0, 33.3167
49.099219510, 96.390, 1103.0, 33.2114
49.125480076, 96.390, 1129.0, 33.6006
49.151740641, 96.390, 1070.0, 32.7109
49.178001207, 96.390, 1190.0, 34.4964
49.204261772, 96.390, 1079.0, 32.8481
49.230522337, 96.390, 1085.0, 32.9393
49.256782903, 96.390, 1081.0, 32.8786
49.283043468, 96.390, 1020.0, 31.9374
49.309304033, 96.390, 1106.0, 33.2566
49.335564599, 96.390, 1080.0, 32.8634
49.361825164, 96.390, 1092.0, 33.0454
49.388085729, 96.390, 1174.0, 34.2637
49.414346295, 96.390, 1059.0, 32.5423
49.440606860, 96.390, 1087.0, 32.9697
49.466867425, 96.390, 1138.0, 33.7343
49.493127991, 96.390, 1080.0, 32.8634
49.519388556, 96.390, 1079.0, 32.8481
49.545649121, 96.390, 1041.0, 32.2645
49.571909687, 96.390, 1136.0, 33.7046
49.598170252, 96.390, 1057.0, 32.5115
49.624430818, 96.390, 1100.0, 33.1662
49.650691383, 96.390, 1098.0, 33.1361
49.676951948, 96.390, 1100.0, 33.1662
49.703212514, 96.390, 1055.0, 32.4808
49.729473079, 96.390, 1047.0, 32.3574
49.755733644, 96.390, 1080.0, 32.8634
49.781994210, 96.390, 1090.0, 33.0151
49.808254775, 96.390, 1056.0, 32.4962
49.834515340, 96.390, 1095.0, 33.0908
49.860775906, 96.390, 1013.0, 31.8277
49.887036471, 96.390, 1007.0, 31.7333
49.913297036, 96.390, 1029.0, 32.0780
49.939557602, 96.390, 988.0, 31.4325
49.965818167, 96.390, 1060.0, 32.5576
49.992078732, 96.390, 1023.0, 31.9844
50.018339298, 96.390, 1021.0, 31.9531
50.044599863, 96.390, 1075.0, 32.7872
50.070860429, 96.390, 1067.0, 32.6650
50.097120994, 96.390, 1092.0, 33.0454
50.123381559, 96.390, 1069.0, 32.6956
50.149642125, 96.390, 1008.0, 31.7490
50.175902690, 96.390, 1104.0, 33.2265
50.202163255, 96.390, 1024.0, 32.0000
50.228423821, 96.390, 1044.0, 32.3110
50.254684386, 96.390, 1056.0, 32.4962
50.280944951, 96.390, 1036.0, 32.1870
50.307205517, 96.390, 1018.0, 31.9061
50.333466082, 96.390, 1066.0, 32.6497
50.359726647, 96.390, 989.0, 31.4484
50.385987213, 96.390, 1071.0, 32.7261
50.412247778, 96.390, 1031.0, 32.1092
50.438508344, 96.390, 1038.0, 32.2180
50.464768909, 96.390, 1051.0, 32.4191
50.491029474, 96.390, 1036.0, 32.1870
50.517290040, 96.390, 1086.0, 32.9545
50.543550605, 96.390, 1032.0, 32.1248
50.569811170, 96.390, 1003.0, 31.6702
50.596071736, 96.390, 1041.0, 32.2645
50.622332301, 96.390, 1049.0, 32.3883
50.648592866, 96.390, 977.0, 31.2570
50.674853432, 96.390, 1014.0, 31.8434
50.701113997, 96.390, 999.0, 31.6070
50.727374562, 96.390, 1044.0, 32.3110
50.753635128, 96.390, 985.0, 31.3847
50.779895693, 96.390, 1036.0, 32.1870
50.806156258, 96.390, 1047.0, 32.3574
50.832416824, 96.390, 1024.0, 32.0000
50.858677389, 96.390, 1014.0, 31.8434
50.884937955, 96.390, 1047.0, 32.3574
50.911198520, 96.390, 1003.0, 31.6702
50.937459085, 96.390, 1018.0, 31.9061
50.963719651, 96.390, 984.0, 31.3688
50.989980216, 96.390, 1021.0, 31.9531
51.016240781, 96.390, 983.0, 31.3528
51.042501347, 96.390, 1052.0, 32.4345
51.068761912, 96.390, 1020.0, 31.9374
51.095022477, 96.390, 1006.0, 31.7175
51.121283043, 96.390, 1037.0, 32.2025
51.147543608, 96.390, 1005.0, 31.7017
51.173804173, 96.390, 945.0, 30.7409
51.200064739, 96.390, 958.0, 30.9516
51.226325304, 96.390, 1009.0, 31.7648
51.252585870, 96.390, 944.0, 30.7246
51.278846435, 96.390, 1039.0, 32.2335
51.305107000, 96.390, 995.0, 31.5436
51.331367566, 96.390, 1040.0, 32.2490
51.357628131, 96.390, 1041.0, 32.2645
51.383888696, 96.390, 1057.0, 32.5115
51.410149262, 96.390, 1024.0, 32.0000
51.436409827, 96.390, 971.0, 31.1609
51.462670392, 96.390, 1034.0, 32.1559
51.488930958, 96.390, 1023.0, 31.9844
51.515191523, 96.390, 977.0, 31.2570
51.541452088, 96.390, 996.0, 31.5595
51.567712654, 96.390, 1008.0, 31.7490
51.593973219, 96.390, 992.0, 31.4960
51.620233784, 96.390, 994.0, 31.5278
51.646494350, 96.390, 977.0, 31.2570
51.672754915, 96.390, 986.0, 31.4006
51.699015481, 96.390, 957.0, 30.9354
51.725276046, 96.390, 887.0, 29.7825
51.751536611, 96.390, 966.0, 31.0805
51.777797177, 96.390, 959.0, 30.9677
51.804057742, 96.390, 953.0, 30.8707
51.830318307, 96.390, 982.0, 31.3369
51.856578873, 96.390, 1020.0, 31.9374
51.882839438, 96.390, 970.0, 31.1448
51.909100003, 96.390, 895.0, 29.9166
51.935360569, 96.390, 950.0, 30.8221
51.961621134, 96.390, 931.0, 30.5123
51.987881699, 96.390, 931.0, 30.5123
52.014142265, 96.390, 1027.0, 32.0468
52.040402830, 96.390, 923.0, 30.3809
52.066663396, 96.390, 959.0, 30.9677
52.092923961, 96.390, 962.0, 31.0161
52.119184526, 96.390, 909.0, 30.1496
52.145445092, 96.390, 965.0, 31.0644
52.171705657, 96.390, 973.0, 31.1929
52.197966222, 96.390, 977.0, 31.2570
52.224226788, 96.390, 950.0, 30.8221
52.250487353, 96.390, 958.0, 30.9516
52.276747918, 96.390, 933.0, 30.5450
52.303008484, 96.390, 970.0, 31.1448
52.329269049, 96.390, 970.0, 31.1448
52.355529614, 96.390, 978.0, 31.2730
52.381790180, 96.390, 955.0, 30.9031
52.408050745, 96.390, 923.0, 30.3809
52.434311310, 96.390, 1014.0, 31.8434
52.460571876, 96.390, 934.0, 30.5614
52.486832441, 96.390, 934.0, 30.5614
52.513093007, 96.390, 993.0, 31.5119
52.539353572, 96.390, 947.0, 30.7734
52.565614137, 96.390, 1039.0, 32.2335
52.591874703, 96.390, 947.0, 30.7734
52.618135268, 96.390, 995.0, 31.5436
52.644395833, 96.390, 1011.0, 31.7962
52.670656399, 96.390, 940.0, 30.6594
52.696916964, 96.390, 998.0, 31.5911
52.723177529, 96.390, 933.0, 30.5450
52.749438095, 96.390, 970.0, 31.1448
52.775698660, 96.390, 987.0, 31.4166
52.801959225, 96.390, 1024.0, 32.0000
52.828219791, 96.390, 984.0, 31.3688
52.854480356, 96.390, 975.0, 31.2250
52.880740922, 96.390, 967.0, 31.0966
52.907001487, 96.390, 943.0, 30.7083
52.933262052, 96.390, 1006.0, 31.7175
52.959522618, 96.390, 981.0, 31.3209
52.985783183, 96.390, 981.0, 31.3209
53.012043748, 96.390, 938.0, 30.6268
53.038304314, 96.390, 954.0, 30.8869
53.064564879, 96.390, 960.0, 30.9839
53.090825444, 96.390, 994.0, 31.5278
53.117086010, 96.390, 1022.0, 31.9687
53.143346575, 96.390, 977.0, 31.2570
53.169607140, 96.390, 1037.0, 32.2025
53.195867706, 96.390, 1044.0, 32.3110
53.222128271, 96.390, 980.0, 31.3050
53.248388836, 96.390, 969.0, 31.1288
53.274649402, 96.390, 932.0, 30.5287
53.300909967, 96.390, 944.0, 30.7246
53.327170533, 96.390, 949.0, 30.8058
53.353431098, 96.390, 937.0, 30.6105
53.379691663, 96.390, 966.0, 31.0805
53.405952229, 96.390, 872.0, 29.5296
53.432212794, 96.390, 948.0, 30.7896
53.458473359, 96.390, 979.0, 31.2890
53.484733925, 96.390, 902.0, 30.0333
53.510994490, 96.390, 970.0, 31.1448
53.537255055, 96.390, 895.0, 29.9166
53.563515621, 96.390, 942.0, 30.6920
53.589776186, 96.390, 926.0, 30.4302
53.616036751, 96.390, 923.0, 30.3809
53.642297317, 96.390, 974.0, 31.2090
53.668557882, 96.390, 964.0, 31.0483
53.694818448, 96.390, 961.0, 31.0000
53.721079013, 96.390, 922.0, 30.3645
53.747339578, 96.390, 934.0, 30.5614
53.773600144, 96.390, 868.0, 29.4618
53.799860709, 96.390, 920.0, 30.3315
53.826121274, 96.390, 900.0, 30.0000
53.852381840, 96.390, 957.0, 30.9354
53.878642405, 96.390, 940.0, 30.6594
53.904902970, 96.390, 920.0, 30.3315
53.931163536, 96.390, 950.0, 30.8221
53.957424101, 96.390, 901.0, 30.0167
53.983684666, 96.390, 969.0, 31.1288
54.009945232, 96.390, 926.0, 30.4302
54.036205797, 96.390, 993.0, 31.5119
54.062466362, 96.390, 921.0, 30.3480
54.088726928, 96.390, 920.0, 30.3315
54.114987493, 96.390, 968.0, 31.1127
54.141248059, 96.390, 977.0, 31.2570
54.167508624, 96.390, 915.0, 30.2490
54.193769189, 96.390, 916.0, 30.2655
54.220029755, 96.390, 912.0, 30.1993
54.246290320, 96.390, 914.0, 30.2324
54.272550885, 96.390, 975.0, 31.2250
54.298811451, 96.390, 953.0, 30.8707
54.325072016, 96.390, 900.0, 30.0000
54.351332581, 96.390, 928.0, 30.4631
54.377593147, 96.390, 920.0, 30.3315
54.403853712, 96.390, 958.0, 30.9516
54.430114277, 96.390, 901.0, 30.0167
54.456374843, 96.390, 947.0, 30.7734
54.482635408, 96.390, 937.0, 30.6105
54.508895973, 96.390, 921.0, 30.3480
54.535156539, 96.390, 925.0, 30.4138
54.561417104, 96.390, 926.0, 30.4302
54.587677670, 96.390, 925.0, 30.4138
54.613938235, 96.390, 881.0, 29.6816
54.640198800, 96.390, 981.0, 31.3209
54.666459366, 96.390, 878.0, 29.6311
54.692719931, 96.390, 894.0, 29.8998
54.718980496, 96.390, 872.0, 29.5296
54.745241062, 96.390, 931.0, 30.5123
54.771501627, 96.390, 958.0, 30.9516
54.797762192, 96.390, 979.0, 31.2890
54.824022758, 96.390, 861.0, 29.3428
54.850283323, 96.390, 891.0, 29.8496
54.876543888, 96.390, 969.0, 31.1288
54.902804454, 96.390, 921.0, 30.3480
54.929065019, 96.390, 862.0, 29.3598
54.955325585, 96.390, 931.0, 30.5123
54.981586150, 96.390, 972.0, 31.1769
55.007846715, 96.390, 920.0, 30.3315
55.034107281, 96.390, 916.0, 30.2655
55.060367846, 96.390, 919.0, 30.3150
55.086628411, 96.390, 965.0, 31.0644
55.112888977, 96.390, 945.0, 30.7409
55.139149542, 96.390, 928.0, 30.4631
55.165410107, 96.390, 840.0, 28.9828
55.191670673, 96.390, 909.0, 30.1496
55.217931238, 96.390, 946.0, 30.7571
55.244191803, 96.390, 888.0, 29.7993
55.270452369, 96.390, 952.0, 30.8545
55.296712934, 96.390, 918.0, 30.2985
55.322973499, 96.390, 885.0, 29.7489
55.349234065, 96.390, 909.0, 30.1496
55.375494630, 96.390, 889.0, 29.8161
55.401755196, 96.390, 926.0, 30.4302
55.428015761, 96.390, 910.0, 30.1662
55.454276326, 96.390, 905.0, 30.0832
55.480536892, 96.390, 910.0, 30.1662
55.506797457, 96.390, 905.0, 30.0832
55.533058022, 96.390, 944.0, 30.7246
55.559318588, 96.390, 887.0, 29.7825
55.585579153, 96.390, 949.0, 30.8058
55.611839718, 96.390, 935.0, 30.5778
55.638100284, 96.390, 904.0, 30.0666
55.664360849, 96.390, 915.0, 30.2490
55.690621414, 96.390, 917.0, 30.2820
55.716881980, 96.390, 855.0, 29.2404
55.743142545, 96.390, 914.0, 30.2324
55.769403111, 96.390, 887.0, 29.7825
55.795663676, 96.390, 967.0, 31.0966
55.821924241, 96.390, 888.0, 29.7993
55.848184807, 96.390, 928.0, 30.4631
55.874445372, 96.390, 899.0, 29.9833
55.900705937, 96.390, 882.0, 29.6985
55.926966503, 96.390, 908.0, 30.1330
55.953227068, 96.390, 887.0, 29.7825
55.979487633, 96.390, 939.0, 30.6431
56.005748199, 96.390, 885.0, 29.7489
56.032008764, 96.390, 905.0, 30.0832
56.058269329, 96.390, 888.0, 29.7993
56.084529895, 96.390, 837.0, 28.9310
56.110790460, 96.390, 911.0, 30.1828
56.137051025, 96.390, 851.0, 29.1719
56.163311591, 96.390, 890.0, 29.8329
56.189572156, 96.390, 913.0, 30.2159
56.215832722, 96.390, 886.0, 29.7658
56.242093287, 96.390, 923.0, 30.3809
56.268353852, 96.390, 906.0, 30.0998
56.294614418, 96.390, 857.0, 29.2746
56.320874983, 96.390, 926.0, 30.4302
56.347135548, 96.390, 927.0, 30.4467
56.373396114, 96.390, 863.0, 29.3769
56.399656679, 96.390, 851.0, 29.1719
56.425917244, 96.390, 893.0, 29.8831
56.452177810, 96.390, 851.0, 29.1719
56.478438375, 96.390, 864.0, 29.3939
56.504698940, 96.390, 913.0, 30.2159
56.530959506, 96.390, 861.0, 29.3428
56.557220071, 96.390, 873.0, 29.5466
56.583480637, 96.390, 803.0, 28.3373
56.609741202, 96.390, 896.0, 29.9333
56.636001767, 96.390, 845.0, 29.0689
56.662262333, 96.390, 880.0, 29.6648
56.688522898, 96.390, 883.0, 29.7153
56.714783463, 96.390, 890.0, 29.8329
56.741044029, 96.390, 917.0, 30.2820
56.767304594, 96.390, 824.0, 28.7054
56.793565159, 96.390, 906.0, 30.0998
56.819825725, 96.390, 892.0, 29.8664
56.846086290, 96.390, 870.0, 29.4958
56.872346855, 96.390, 850.0, 29.1548
56.898607421, 96.390, 852.0, 29.1890
56.924867986, 96.390, 821.0, 28.6531
56.951128551, 96.390, 863.0, 29.3769
56.977389117, 96.390, 905.0, 30.0832
57.003649682, 96.390, 876.0, 29.5973
57.029910248, 96.390, 852.0, 29.1890
57.056170813, 96.390, 817.0, 28.5832
57.082431378, 96.390, 841.0, 29.0000
57.108691944, 96.390, 911.0, 30.1828
57.134952509, 96.390, 825.0, 28.7228
57.161213074, 96.390, 874.0, 29.5635
57.187473640, 96.390, 874.0, 29.5635
57.213734205, 96.390, 902.0, 30.0333
57.239994770, 96.390, 919.0, 30.3150
57.266255336, 96.390, 912.0, 30.1993
57.292515901, 96.390, 857.0, 29.2746
57.318776466, 96.390, 874.0, 29.5635
57.345037032, 96.390, 850.0, 29.1548
57.371297597, 96.390, 863.0, 29.3769
57.397558163, 96.390, 865.0, 29.4109
57.423818728, 96.390, 870.0, 29.4958
57.450079293, 96.390, 877.0, 29.6142
57.476339859, 96.390, 879.0, 29.6479
57.502600424, 96.390, 832.0, 28.8444
57.528860989, 96.390, 906.0, 30.0998
57.555121555, 96.390, 884.0, 29.7321
57.581382120, 96.390, 910.0, 30.1662
57.607642685, 96.390, 833.0, 28.8617
57.633903251, 96.390, 925.0, 30.4138
57.660163816, 96.390, 899.0, 29.9833
57.686424381, 96.390, 867.0, 29.4449
57.712684947, 96.390, 869.0, 29.4788
57.738945512, 96.390, 925.0, 30.4138
57.765206077, 96.390, 898.0, 29.9666
57.791466643, 96.390, 829.0, 28.7924
57.817727208, 96.390, 831.0, 28.8271
57.843987774, 96.390, 822.0, 28.6705
57.870248339, 96.390, 884.0, 29.7321
57.896508904, 96.390, 954.0, 30.8869
57.922769470, 96.390, 845.0, 29.0689
57.949030035, 96.390, 843.0, 29.0345
57.975290600, 96.390, 863.0, 29.3769
58.001551166, 96.390, 880.0, 29.6648
58.027811731, 96.390, 830.0, 28.8097
58.054072296, 96.390, 834.0, 28.8791
58.080332862, 96.390, 871.0, 29.5127
58.106593427, 96.390, 787.0, 28.0535
58.132853992, 96.390, 871.0, 29.5127
58.159114558, 96.390, 835.0, 28.8964
58.185375123, 96.390, 868.0, 29.4618
58.211635689, 96.390, 876.0, 29.5973
58.237896254, 96.390, 828.0, 28.7750
58.264156819, 96.390, 912.0, 30.1993
58.290417385, 96.390, 846.0, 29.0861
58.316677950, 96.390, 902.0, 30.0333
58.342938515, 96.390, 957.0, 30.9354
58.369199081, 96.390, 918.0, 30.2985
58.395459646, 96.390, 856.0, 29.2575
58.421720211, 96.390, 806.0, 28.3901
58.447980777, 96.390, 869.0, 29.4788
58.474241342, 96.390, 846.0, 29.0861
58.500501907, 96.390, 857.0, 29.2746
58.526762473, 96.390, 881.0, 29.6816
58.553023038, 96.390, 907.0, 30.1164
58.579283603, 96.390, 847.0, 29.1033
58.605544169, 96.390, 882.0, 29.6985
58.631804734, 96.390, 889.0, 29.8161
58.658065300, 96.390, 835.0, 28.8964
58.684325865, 96.390, 830.0, 28.8097
58.710586430, 96.390, 898.0, 29.9666
58.736846996, 96.390, 865.0, 29.4109
58.763107561, 96.390, 872.0, 29.5296
58.789368126, 96.390, 882.0, 29.6985
58.815628692, 96.390, 826.0, 28.7402
58.841889257, 96.390, 864.0, 29.3939
58.868149822, 96.390, 878.0, 29.6311
58.894410388, 96.390, 907.0, 30.1164
58.920670953, 96.390, 900.0, 30.0000
58.946931518, 96.390, 778.0, 27.8927
58.973192084, 96.390, 852.0, 29.1890
58.999452649, 96.390, 890.0, 29.8329
59.025713214, 96.390, 866.0, 29.4279
59.051973780, 96.390, 854.0, 29.2233
59.078234345, 96.390, 861.0, 29.3428
59.104494911, 96.390, 858.0, 29.2916
59.130755476, 96.390, 855.0, 29.2404
59.157016041, 96.390, 863.0, 29.3769
59.183276607, 96.390, 859.0, 29.3087
59.209537172, 96.390, 874.0, 29.5635
59.235797737, 96.390, 874.0, 29.5635
59.262058303, 96.390, 870.0, 29.4958
59.288318868, 96.390, 874.0, 29.5635
59.314579433, 96.390, 871.0, 29.5127
59.340839999, 96.390, 896.0, 29.9333
59.367100564, 96.390, 874.0, 29.5635
59.393361129, 96.390, 838.0, 28.9482
59.419621695, 96.390, 912.0, 30.1993
59.445882260, 96.390, 868.0, 29.4618
59.472142826, 96.390, 870.0, 29.4958
59.498403391, 96.390, 886.0, 29.7658
59.524663956, 96.390, 949.0, 30.8058
59.550924522, 96.390, 881.0, 29.6816
59.577185087, 96.390, 911.0, 30.1828
59.603445652, 96.390, 856.0, 29.2575
59.629706218, 96.390, 908.0, 30.1330
59.655966783, 96.390, 858.0, 29.2916
59.682227348, 96.390, 934.0, 30.5614
59.708487914, 96.390, 917.0, 30.2820
59.734748479, 96.390, 880.0, 29.6648
59.761009044, 96.390, 893.0, 29.8831
59.787269610, 96.390, 918.0, 30.2985
59.813530175, 96.390, 883.0, 29.7153
59.839790740, 96.390, 904.0, 30.0666
59.866051306, 96.390, 889.0, 29.8161
59.892311871, 96.390, 933.0, 30.5450
59.918572437, 96.390, 898.0, 29.9666
59.944833002, 96.390, 858.0, 29.2916
59.971093567, 96.390, 982.0, 31.3369
59.997354133, 96.390, 912.0, 30.1993
60.023614698, 96.390, 929.0, 30.4795
60.049875263, 96.390, 950.0, 30.8221
60.076135829, 96.390, 947.0, 30.7734
60.102396394, 96.390, 956.0, 30.9192
60.128656959, 96.390, 954.0, 30.8869
60.154917525, 96.390, 918.0, 30.2985
60.181178090, 96.390, 916.0, 30.2655
60.207438655, 96.390, 955.0, 30.9031
60.233699221, 96.390, 952.0, 30.8545
60.259959786, 96.390, 903.0, 30.0500
60.286220352, 96.390, 972.0, 31.1769
60.312480917, 96.390, 941.0, 30.6757
60.338741482, 96.390, 971.0, 31.1609
60.365002048, 96.390, 912.0, 30.1993
60.391262613, 96.390, 987.0, 31.4166
60.417523178, 96.390, 993.0, 31.5119
60.443783744, 96.390, 970.0, 31.1448
60.470044309, 96.390, 1062.0, 32.5883
60.496304874, 96.390, 1002.0, 31.6544
60.522565440, 96.390, 1020.0, 31.9374
60.548826005, 96.390, 1045.0, 32.3265
60.575086570, 96.390, 1031.0, 32.1092
60.601347136, 96.390, 1009.0, 31.7648
60.627607701, 96.390, 1035.0, 32.1714
60.653868266, 96.390, 1019.0, 31.9218
60.680128832, 96.390, 982.0, 31.3369
60.706389397, 96.390, 1080.0, 32.8634
60.732649963, 96.390, 1126.0, 33.5559
60.758910528, 96.390, 1123.0, 33.5112
60.785171093, 96.390, 1128.0, 33.5857
60.811431659, 96.390, 1105.0, 33.2415
60.837692224, 96.390, 1065.0, 32.6343
60.863952789, 96.390, 1093.0, 33.0606
60.890213355, 96.390, 1149.0, 33.8969
60.916473920, 96.390, 1112.0, 33.3467
60.942734485, 96.390, 1165.0, 34.1321
60.968995051, 96.390, 1120.0, 33.4664
60.995255616, 96.390, 1093.0, 33.0606
61.021516181, 96.390, 1159.0, 34.0441
61.047776747, 96.390, 1177.0, 34.3074
61.074037312, 96.390, 1195.0, 34.5688
61.100297878, 96.390, 1196.0, 34.5832
61.126558443, 96.390, 1184.0, 34.4093
61.152819008, 96.390, 1197.0, 34.5977
61.179079574, 96.390, 1189.0, 34.4819
61.205340139, 96.390, 1156.0, 34.0000
61.231600704, 96.390, 1158.0, 34.0294
61.257861270, 96.390, 1251.0, 35.3695
61.284121835, 96.390, 1134.0, 33.6749
61.310382400, 96.390, 1162.0, 34.0881
61.336642966, 96.390, 1133.0, 33.6601
61.362903531, 96.390, 1083.0, 32.9090
61.389164096, 96.390, 1108.0, 33.2866
61.415424662, 96.390, 1208.0, 34.7563
61.441685227, 96.390, 1169.0, 34.1906
61.467945792, 96.390, 1115.0, 33.3916
61.494206358, 96.390, 1212.0, 34.8138
61.520466923, 96.390, 1099.0, 33.1512
61.546727489, 96.390, 1183.0, 34.3948
61.572988054, 96.390, 1160.0, 34.0588
61.599248619, 96.390, 1148.0, 33.8821
61.625509185, 96.390, 1175.0, 34.2783
61.651769750, 96.390, 1166.0, 34.1467
61.678030315, 96.390, 1166.0, 34.1467
61.704290881, 96.390, 1174.0, 34.2637
61.730551446, 96.390, 1101.0, 33.1813
61.756812011, 96.390, 1105.0, 33.2415
61.783072577, 96.390, 1089.0, 33.0000
61.809333142, 96.390, 1124.0, 33.5261
61.835593707, 96.390, 1068.0, 32.6803
61.861854273, 96.390, 1112.0, 33.3467
61.888114838, 96.390, 1070.0, 32.7109
61.914375404, 96.390, 1054.0, 32.4654
61.940635969, 96.390, 1088.0, 32.9848
61.966896534, 96.390, 1067.0, 32.6650
61.993157100, 96.390, 1030.0, 32.0936
62.019417665, 96.390, 1036.0, 32.1870
62.045678230, 96.390, 1073.0, 32.7567
62.071938796, 96.390, 1073.0, 32.7567
62.098199361, 96.390, 1036.0, 32.1870
62.124459926, 96.390, 1076.0, 32.8024
62.150720492, 96.390, 1044.0, 32.3110
62.176981057, 96.390, 1047.0, 32.3574
62.203241622, 96.390, 985.0, 31.3847
62.229502188, 96.390, 1017.0, 31.8904
62.255762753, 96.390, 968.0, 31.1127
62.282023318, 96.390, 997.0, 31.5753
62.308283884, 96.390, 1029.0, 32.0780
62.334544449, 96.390, 1056.0, 32.4962
62.360805015, 96.390, 986.0, 31.4006
62.387065580, 96.390, 962.0, 31.0161
62.413326145, 96.390, 941.0, 30.6757
62.439586711, 96.390, 927.0, 30.4467
62.465847276, 96.390, 974.0, 31.2090
62.492107841, 96.390, 957.0, 30.9354
62.518368407, 96.390, 972.0, 31.1769
62.544628972, 96.390, 971.0, 31.1609
62.570889537, 96.390, 991.0, 31.4802
62.597150103, 96.390, 964.0, 31.0483
62.623410668, 96.390, 925.0, 30.4138
62.649671233, 96.390, 959.0, 30.9677
62.675931799, 96.390, 1021.0, 31.9531
62.702192364, 96.390, 963.0, 31.0322
62.728452930, 96.390, 942.0, 30.6920
62.754713495, 96.390, 962.0, 31.0161
62.780974060, 96.390, 947.0, 30.7734
62.807234626, 96.390, 904.0, 30.0666
62.833495191, 96.390, 1002.0, 31.6544
62.859755756, 96.390, 989.0, 31.4484
62.886016322, 96.390, 940.0, 30.6594
62.912276887, 96.390, 977.0, 31.2570
62.938537452, 96.390, 929.0, 30.4795
62.964798018, 96.390, 928.0, 30.4631
62.991058583, 96.390, 919.0, 30.3150
63.017319148, 96.390, 886.0, 29.7658
63.043579714, 96.390, 866.0, 29.4279
63.069840279, 96.390, 972.0, 31.1769
63.096100844, 96.390, 934.0, 30.5614
63.122361410, 96.390, 860.0, 29.3258
63.148621975, 96.390, 943.0, 30.7083
63.174882541, 96.390, 863.0, 29.3769
63.201143106, 96.390, 889.0, 29.8161
63.227403671, 96.390, 908.0, 30.1330
63.253664237, 96.390, 905.0, 30.0832
63.279924802, 96.390, 893.0, 29.8831
63.306185367, 96.390, 913.0, 30.2159
63.332445933, 96.390, 885.0, 29.7489
63.358706498, 96.390, 923.0, 30.3809
63.384967063, 96.390, 897.0, 29.9500
63.411227629, 96.390, 889.0, 29.8161
63.437488194, 96.390, 877.0, 29.6142
63.463748759, 96.390, 897.0, 29.9500
63.490009325, 96.390, 879.0, 29.6479
63.516269890, 96.390, 901.0, 30.0167
63.542530455, 96.390, 905.0, 30.0832
63.568791021, 96.390, 853.0, 29.2062
63.595051586, 96.390, 914.0, 30.2324
63.621312152, 96.390, 879.0, 29.6479
63.647572717, 96.390, 860.0, 29.3258
63.673833282, 96.390, 871.0, 29.5127
63.700093848, 96.390, 885.0, 29.7489
63.726354413, 96.390, 885.0, 29.7489
63.752614978, 96.390, 824.0, 28.7054
63.778875544, 96.390, 864.0, 29.3939
63.805136109, 96.390, 839.0, 28.9655
63.831396674, 96.390, 889.0, 29.8161
63.857657240, 96.390, 887.0, 29.7825
63.883917805, 96.390, 856.0, 29.2575
63.910178370, 96.390, 859.0, 29.3087
63.936438936, 96.390, 823.0, 28.6880
63.962699501, 96.390, 912.0, 30.1993
63.988960067, 96.390, 843.0, 29.0345
64.015220632, 96.390, 862.0, 29.3598
64.041481197, 96.390, 814.0, 28.5307
64.067741763, 96.390, 801.0, 28.3019
64.094002328, 96.390, 886.0, 29.7658
64.120262893, 96.390, 858.0, 29.2916
64.146523459, 96.390, 845.0, 29.0689
64.172784024, 96.390, 809.0, 28.4429
64.199044589, 96.390, 880.0, 29.6648
64.225305155, 96.390, 806.0, 28.3901
64.251565720, 96.390, 902.0, 30.0333
64.277826285, 96.390, 849.0, 29.1376
64.304086851, 96.390, 829.0, 28.7924
64.330347416, 96.390, 853.0, 29.2062
64.356607981, 96.390, 850.0, 29.1548
64.382868547, 96.390, 846.0, 29.0861
64.409129112, 96.390, 869.0, 29.4788
64.435389678, 96.390, 854.0, 29.2233
64.461650243, 96.390, 859.0, 29.3087
64.487910808, 96.390, 840.0, 28.9828
64.514171374, 96.390, 795.0, 28.1957
64.540431939, 96.390, 816.0, 28.5657
64.566692504, 96.390, 875.0, 29.5804
64.592953070, 96.390, 822.0, 28.6705
64.619213635, 96.390, 819.0, 28.6182
64.645474200, 96.390, 828.0, 28.7750
64.671734766, 96.390, 823.0, 28.6880
64.697995331, 96.390, 904.0, 30.0666
64.724255896, 96.390, 865.0, 29.4109
64.750516462, 96.390, 819.0, 28.6182
64.776777027, 96.390, 786.0, 28.0357
64.803037593, 96.390, 851.0, 29.1719
64.829298158, 96.390, 789.0, 28.0891
64.855558723, 96.390, 847.0, 29.1033
64.881819289, 96.390, 842.0, 29.0172
64.908079854, 96.390, 804.0, 28.3549
64.934340419, 96.390, 777.0, 27.8747
64.960600985, 96.390, 789.0, 28.0891
64.986861550, 96.390, 851.0, 29.1719
