[Measurement conditions]
Sample identification,XRD_SiAxial12Jan22_Act01Mar22_B1_0385M_NaOH_LS0142_1
Comment - 1,"Configuration=Stage for Flat Samples/Holders, Owner=User-1, Creation date=7/1/2020 9:53:24 AM"
Comment - 2,"Goniometer=Theta/Theta; Minimum step size 2Theta:0.0001; Minimum step size Omega:0.0001"
Comment - 3,"Sample stage=Stage for flat samples/holders"
Comment - 4,"Diffractometer system=EMPYREAN"
Comment - 5,"Measurement program=C:\Users\ibo5034\OneDrive - The Pennsylvania State University\NEUP - Reed, Titus's files\XRD\Cement\Zerobackground scan.xrdmp, Identifier={98A3B11C-88F9-4AA6-982C-73314A311EF5}"
Anode material,Cu
K-Alpha1 wavelength,1.5405980
K-Alpha2 wavelength,1.5444260
Ratio K-Alpha2/K-Alpha1,0.500
Divergence slit,Fixed,0.25
Monochromator used,NO
Generator voltage, 45
Tube current, 40
File date and time,04/Mar/2022 12:37
Unit cell,
h k l, 0 0 0
Scan axis,Gonio
Scan range,4.994599997,64.999991833
Scan step size,0.0262606
No. of points, 2285
Scan type,CONTINUOUS
Time per step,96.390
[Scan points]
Angle, TimePerStep, Intensity, ESD
5.007730280, 96.390, 5266.0, 72.5672
5.033990845, 96.390, 5190.0, 72.0417
5.060251411, 96.390, 5085.0, 71.3092
5.086511976, 96.390, 5083.0, 71.2952
5.112772541, 96.390, 4938.0, 70.2709
5.139033107, 96.390, 4885.0, 69.8928
5.165293672, 96.390, 4874.0, 69.8140
5.191554237, 96.390, 4950.0, 70.3562
5.217814803, 96.390, 5048.0, 71.0493
5.244075368, 96.390, 4848.0, 69.6276
5.270335934, 96.390, 4814.0, 69.3830
5.296596499, 96.390, 4758.0, 68.9783
5.322857064, 96.390, 4787.0, 69.1881
5.349117630, 96.390, 4788.0, 69.1954
5.375378195, 96.390, 4583.0, 67.6979
5.401638760, 96.390, 4678.0, 68.3959
5.427899326, 96.390, 4633.0, 68.0661
5.454159891, 96.390, 4697.0, 68.5347
5.480420456, 96.390, 4689.0, 68.4763
5.506681022, 96.390, 4678.0, 68.3959
5.532941587, 96.390, 4686.0, 68.4544
5.559202152, 96.390, 4598.0, 67.8086
5.585462718, 96.390, 4510.0, 67.1565
5.611723283, 96.390, 4437.0, 66.6108
5.637983849, 96.390, 4592.0, 67.7643
5.664244414, 96.390, 4607.0, 67.8749
5.690504979, 96.390, 4540.0, 67.3795
5.716765545, 96.390, 4529.0, 67.2978
5.743026110, 96.390, 4503.0, 67.1044
5.769286675, 96.390, 4507.0, 67.1342
5.795547241, 96.390, 4531.0, 67.3127
5.821807806, 96.390, 4600.0, 67.8233
5.848068371, 96.390, 4418.0, 66.4680
5.874328937, 96.390, 4385.0, 66.2193
5.900589502, 96.390, 4470.0, 66.8581
5.926850067, 96.390, 4433.0, 66.5808
5.953110633, 96.390, 4450.0, 66.7083
5.979371198, 96.390, 4363.0, 66.0530
6.005631763, 96.390, 4324.0, 65.7571
6.031892329, 96.390, 4377.0, 66.1589
6.058152894, 96.390, 4326.0, 65.7723
6.084413460, 96.390, 4363.0, 66.0530
6.110674025, 96.390, 4290.0, 65.4981
6.136934590, 96.390, 4385.0, 66.2193
6.163195156, 96.390, 4373.0, 66.1287
6.189455721, 96.390, 4274.0, 65.3758
6.215716286, 96.390, 4318.0, 65.7115
6.241976852, 96.390, 4295.0, 65.5362
6.268237417, 96.390, 4258.0, 65.2534
6.294497982, 96.390, 4283.0, 65.4446
6.320758548, 96.390, 4204.0, 64.8383
6.347019113, 96.390, 4246.0, 65.1613
6.373279678, 96.390, 4250.0, 65.1920
6.399540244, 96.390, 4330.0, 65.8027
6.425800809, 96.390, 4235.0, 65.0769
6.452061375, 96.390, 4339.0, 65.8711
6.478321940, 96.390, 4151.0, 64.4283
6.504582505, 96.390, 4237.0, 65.0922
6.530843071, 96.390, 4243.0, 65.1383
6.557103636, 96.390, 4164.0, 64.5291
6.583364201, 96.390, 4150.0, 64.4205
6.609624767, 96.390, 4149.0, 64.4127
6.635885332, 96.390, 4094.0, 63.9844
6.662145897, 96.390, 4308.0, 65.6354
6.688406463, 96.390, 4184.0, 64.6838
6.714667028, 96.390, 4105.0, 64.0703
6.740927593, 96.390, 4101.0, 64.0391
6.767188159, 96.390, 4196.0, 64.7765
6.793448724, 96.390, 4185.0, 64.6916
6.819709289, 96.390, 4089.0, 63.9453
6.845969855, 96.390, 4091.0, 63.9609
6.872230420, 96.390, 4135.0, 64.3040
6.898490986, 96.390, 4162.0, 64.5136
6.924751551, 96.390, 4126.0, 64.2339
6.951012116, 96.390, 4071.0, 63.8044
6.977272682, 96.390, 4117.0, 64.1639
7.003533247, 96.390, 4070.0, 63.7966
7.029793812, 96.390, 4000.0, 63.2456
7.056054378, 96.390, 4011.0, 63.3325
7.082314943, 96.390, 4158.0, 64.4826
7.108575508, 96.390, 4158.0, 64.4826
7.134836074, 96.390, 3928.0, 62.6738
7.161096639, 96.390, 4234.0, 65.0692
7.187357204, 96.390, 3940.0, 62.7694
7.213617770, 96.390, 3960.0, 62.9285
7.239878335, 96.390, 4084.0, 63.9062
7.266138900, 96.390, 4080.0, 63.8749
7.292399466, 96.390, 3964.0, 62.9603
7.318660031, 96.390, 3970.0, 63.0079
7.344920597, 96.390, 4021.0, 63.4114
7.371181162, 96.390, 4062.0, 63.7338
7.397441727, 96.390, 3989.0, 63.1585
7.423702293, 96.390, 4054.0, 63.6710
7.449962858, 96.390, 3924.0, 62.6418
7.476223423, 96.390, 4068.0, 63.7809
7.502483989, 96.390, 3958.0, 62.9126
7.528744554, 96.390, 3895.0, 62.4099
7.555005119, 96.390, 3852.0, 62.0645
7.581265685, 96.390, 3975.0, 63.0476
7.607526250, 96.390, 4150.0, 64.4205
7.633786815, 96.390, 4023.0, 63.4271
7.660047381, 96.390, 3965.0, 62.9682
7.686307946, 96.390, 3942.0, 62.7853
7.712568512, 96.390, 4055.0, 63.6789
7.738829077, 96.390, 3945.0, 62.8092
7.765089642, 96.390, 3901.0, 62.4580
7.791350208, 96.390, 3866.0, 62.1772
7.817610773, 96.390, 3969.0, 63.0000
7.843871338, 96.390, 3969.0, 63.0000
7.870131904, 96.390, 3790.0, 61.5630
7.896392469, 96.390, 3755.0, 61.2781
7.922653034, 96.390, 3930.0, 62.6897
7.948913600, 96.390, 3825.0, 61.8466
7.975174165, 96.390, 3894.0, 62.4019
8.001434730, 96.390, 3804.0, 61.6766
8.027695296, 96.390, 3767.0, 61.3759
8.053955861, 96.390, 3918.0, 62.5939
8.080216426, 96.390, 3799.0, 61.6360
8.106476992, 96.390, 3840.0, 61.9677
8.132737557, 96.390, 3798.0, 61.6279
8.158998123, 96.390, 3808.0, 61.7090
8.185258688, 96.390, 3712.0, 60.9262
8.211519253, 96.390, 3873.0, 62.2334
8.237779819, 96.390, 3897.0, 62.4260
8.264040384, 96.390, 3821.0, 61.8142
8.290300949, 96.390, 3912.0, 62.5460
8.316561515, 96.390, 3827.0, 61.8628
8.342822080, 96.390, 3708.0, 60.8933
8.369082645, 96.390, 3856.0, 62.0967
8.395343211, 96.390, 3941.0, 62.7774
8.421603776, 96.390, 3909.0, 62.5220
8.447864341, 96.390, 3873.0, 62.2334
8.474124907, 96.390, 3726.0, 61.0410
8.500385472, 96.390, 3856.0, 62.0967
8.526646038, 96.390, 3763.0, 61.3433
8.552906603, 96.390, 3839.0, 61.9597
8.579167168, 96.390, 3860.0, 62.1289
8.605427734, 96.390, 3689.0, 60.7371
8.631688299, 96.390, 3815.0, 61.7657
8.657948864, 96.390, 3829.0, 61.8789
8.684209430, 96.390, 3751.0, 61.2454
8.710469995, 96.390, 3781.0, 61.4898
8.736730560, 96.390, 3703.0, 60.8523
8.762991126, 96.390, 3722.0, 61.0082
8.789251691, 96.390, 3723.0, 61.0164
8.815512256, 96.390, 3652.0, 60.4318
8.841772822, 96.390, 3803.0, 61.6685
8.868033387, 96.390, 3650.0, 60.4152
8.894293952, 96.390, 3712.0, 60.9262
8.920554518, 96.390, 3798.0, 61.6279
8.946815083, 96.390, 3626.0, 60.2163
8.973075649, 96.390, 3640.0, 60.3324
8.999336214, 96.390, 3805.0, 61.6847
9.025596779, 96.390, 3696.0, 60.7947
9.051857345, 96.390, 3700.0, 60.8276
9.078117910, 96.390, 3717.0, 60.9672
9.104378475, 96.390, 3695.0, 60.7865
9.130639041, 96.390, 3635.0, 60.2910
9.156899606, 96.390, 3699.0, 60.8194
9.183160171, 96.390, 3600.0, 60.0000
9.209420737, 96.390, 3617.0, 60.1415
9.235681302, 96.390, 3725.0, 61.0328
9.261941867, 96.390, 3795.0, 61.6036
9.288202433, 96.390, 3653.0, 60.4401
9.314462998, 96.390, 3483.0, 59.0169
9.340723564, 96.390, 3472.0, 58.9237
9.366984129, 96.390, 3519.0, 59.3212
9.393244694, 96.390, 3597.0, 59.9750
9.419505260, 96.390, 3609.0, 60.0750
9.445765825, 96.390, 3545.0, 59.5399
9.472026390, 96.390, 3560.0, 59.6657
9.498286956, 96.390, 3527.0, 59.3886
9.524547521, 96.390, 3574.0, 59.7829
9.550808086, 96.390, 3577.0, 59.8080
9.577068652, 96.390, 3544.0, 59.5315
9.603329217, 96.390, 3549.0, 59.5735
9.629589782, 96.390, 3542.0, 59.5147
9.655850348, 96.390, 3515.0, 59.2874
9.682110913, 96.390, 3625.0, 60.2080
9.708371478, 96.390, 3532.0, 59.4306
9.734632044, 96.390, 3569.0, 59.7411
9.760892609, 96.390, 3625.0, 60.2080
9.787153175, 96.390, 3425.0, 58.5235
9.813413740, 96.390, 3384.0, 58.1722
9.839674305, 96.390, 3459.0, 58.8133
9.865934871, 96.390, 3389.0, 58.2151
9.892195436, 96.390, 3474.0, 58.9406
9.918456001, 96.390, 3520.0, 59.3296
9.944716567, 96.390, 3379.0, 58.1292
9.970977132, 96.390, 3461.0, 58.8303
9.997237697, 96.390, 3489.0, 59.0678
10.023498263, 96.390, 3386.0, 58.1893
10.049758828, 96.390, 3425.0, 58.5235
10.076019393, 96.390, 3410.0, 58.3952
10.102279959, 96.390, 3296.0, 57.4108
10.128540524, 96.390, 3362.0, 57.9828
10.154801090, 96.390, 3352.0, 57.8965
10.181061655, 96.390, 3422.0, 58.4979
10.207322220, 96.390, 3425.0, 58.5235
10.233582786, 96.390, 3433.0, 58.5918
10.259843351, 96.390, 3295.0, 57.4021
10.286103916, 96.390, 3363.0, 57.9914
10.312364482, 96.390, 3477.0, 58.9661
10.338625047, 96.390, 3353.0, 57.9051
10.364885612, 96.390, 3378.0, 58.1206
10.391146178, 96.390, 3243.0, 56.9473
10.417406743, 96.390, 3230.0, 56.8331
10.443667308, 96.390, 3343.0, 57.8187
10.469927874, 96.390, 3242.0, 56.9386
10.496188439, 96.390, 3213.0, 56.6833
10.522449004, 96.390, 3305.0, 57.4891
10.548709570, 96.390, 3263.0, 57.1227
10.574970135, 96.390, 3318.0, 57.6021
10.601230701, 96.390, 3287.0, 57.3324
10.627491266, 96.390, 3223.0, 56.7715
10.653751831, 96.390, 3272.0, 57.2014
10.680012397, 96.390, 3183.0, 56.4181
10.706272962, 96.390, 3090.0, 55.5878
10.732533527, 96.390, 3242.0, 56.9386
10.758794093, 96.390, 3317.0, 57.5934
10.785054658, 96.390, 3243.0, 56.9473
10.811315223, 96.390, 3147.0, 56.0981
10.837575789, 96.390, 3159.0, 56.2050
10.863836354, 96.390, 3252.0, 57.0263
10.890096919, 96.390, 3299.0, 57.4369
10.916357485, 96.390, 3271.0, 57.1927
10.942618050, 96.390, 3232.0, 56.8507
10.968878616, 96.390, 3224.0, 56.7803
10.995139181, 96.390, 3197.0, 56.5420
11.021399746, 96.390, 3168.0, 56.2850
11.047660312, 96.390, 3214.0, 56.6922
11.073920877, 96.390, 3091.0, 55.5968
11.100181442, 96.390, 3067.0, 55.3805
11.126442008, 96.390, 3155.0, 56.1694
11.152702573, 96.390, 3090.0, 55.5878
11.178963138, 96.390, 2994.0, 54.7175
11.205223704, 96.390, 3178.0, 56.3738
11.231484269, 96.390, 3069.0, 55.3986
11.257744834, 96.390, 3180.0, 56.3915
11.284005400, 96.390, 3084.0, 55.5338
11.310265965, 96.390, 3141.0, 56.0446
11.336526530, 96.390, 3131.0, 55.9553
11.362787096, 96.390, 3039.0, 55.1271
11.389047661, 96.390, 3106.0, 55.7315
11.415308227, 96.390, 3051.0, 55.2359
11.441568792, 96.390, 3111.0, 55.7763
11.467829357, 96.390, 3109.0, 55.7584
11.494089923, 96.390, 3005.0, 54.8179
11.520350488, 96.390, 3002.0, 54.7905
11.546611053, 96.390, 3049.0, 55.2178
11.572871619, 96.390, 3015.0, 54.9090
11.599132184, 96.390, 3092.0, 55.6058
11.625392749, 96.390, 3088.0, 55.5698
11.651653315, 96.390, 2921.0, 54.0463
11.677913880, 96.390, 2984.0, 54.6260
11.704174445, 96.390, 2883.0, 53.6936
11.730435011, 96.390, 2926.0, 54.0925
11.756695576, 96.390, 2923.0, 54.0648
11.782956141, 96.390, 2951.0, 54.3231
11.809216707, 96.390, 2980.0, 54.5894
11.835477272, 96.390, 3034.0, 55.0818
11.861737838, 96.390, 2959.0, 54.3967
11.887998403, 96.390, 2936.0, 54.1849
11.914258968, 96.390, 2912.0, 53.9630
11.940519534, 96.390, 2992.0, 54.6992
11.966780099, 96.390, 2870.0, 53.5724
11.993040664, 96.390, 2788.0, 52.8015
12.019301230, 96.390, 2900.0, 53.8516
12.045561795, 96.390, 2837.0, 53.2635
12.071822360, 96.390, 2808.0, 52.9906
12.098082926, 96.390, 2801.0, 52.9245
12.124343491, 96.390, 2918.0, 54.0185
12.150604056, 96.390, 2995.0, 54.7266
12.176864622, 96.390, 2884.0, 53.7029
12.203125187, 96.390, 2820.0, 53.1037
12.229385753, 96.390, 2757.0, 52.5071
12.255646318, 96.390, 2800.0, 52.9150
12.281906883, 96.390, 2785.0, 52.7731
12.308167449, 96.390, 2815.0, 53.0566
12.334428014, 96.390, 2915.0, 53.9907
12.360688579, 96.390, 2777.0, 52.6972
12.386949145, 96.390, 2774.0, 52.6688
12.413209710, 96.390, 2862.0, 53.4977
12.439470275, 96.390, 2808.0, 52.9906
12.465730841, 96.390, 2824.0, 53.1413
12.491991406, 96.390, 2743.0, 52.3737
12.518251971, 96.390, 2867.0, 53.5444
12.544512537, 96.390, 2834.0, 53.2353
12.570773102, 96.390, 2704.0, 52.0000
12.597033667, 96.390, 2776.0, 52.6878
12.623294233, 96.390, 2762.0, 52.5547
12.649554798, 96.390, 2710.0, 52.0577
12.675815364, 96.390, 2762.0, 52.5547
12.702075929, 96.390, 2683.0, 51.7977
12.728336494, 96.390, 2746.0, 52.4023
12.754597060, 96.390, 2737.0, 52.3163
12.780857625, 96.390, 2872.0, 53.5910
12.807118190, 96.390, 2711.0, 52.0673
12.833378756, 96.390, 2708.0, 52.0384
12.859639321, 96.390, 2745.0, 52.3927
12.885899886, 96.390, 2750.0, 52.4404
12.912160452, 96.390, 2755.0, 52.4881
12.938421017, 96.390, 2792.0, 52.8394
12.964681582, 96.390, 2676.0, 51.7301
12.990942148, 96.390, 2672.0, 51.6914
13.017202713, 96.390, 2771.0, 52.6403
13.043463279, 96.390, 2689.0, 51.8556
13.069723844, 96.390, 2720.0, 52.1536
13.095984409, 96.390, 2674.0, 51.7107
13.122244975, 96.390, 2626.0, 51.2445
13.148505540, 96.390, 2623.0, 51.2152
13.174766105, 96.390, 2693.0, 51.8941
13.201026671, 96.390, 2632.0, 51.3030
13.227287236, 96.390, 2678.0, 51.7494
13.253547801, 96.390, 2645.0, 51.4296
13.279808367, 96.390, 2583.0, 50.8232
13.306068932, 96.390, 2608.0, 51.0686
13.332329497, 96.390, 2539.0, 50.3885
13.358590063, 96.390, 2611.0, 51.0979
13.384850628, 96.390, 2671.0, 51.6817
13.411111193, 96.390, 2604.0, 51.0294
13.437371759, 96.390, 2623.0, 51.2152
13.463632324, 96.390, 2654.0, 51.5170
13.489892890, 96.390, 2574.0, 50.7346
13.516153455, 96.390, 2550.0, 50.4975
13.542414020, 96.390, 2663.0, 51.6043
13.568674586, 96.390, 2645.0, 51.4296
13.594935151, 96.390, 2595.0, 50.9411
13.621195716, 96.390, 2595.0, 50.9411
13.647456282, 96.390, 2560.0, 50.5964
13.673716847, 96.390, 2500.0, 50.0000
13.699977412, 96.390, 2540.0, 50.3984
13.726237978, 96.390, 2582.0, 50.8134
13.752498543, 96.390, 2581.0, 50.8035
13.778759108, 96.390, 2498.0, 49.9800
13.805019674, 96.390, 2426.0, 49.2544
13.831280239, 96.390, 2629.0, 51.2738
13.857540805, 96.390, 2530.0, 50.2991
13.883801370, 96.390, 2491.0, 49.9099
13.910061935, 96.390, 2500.0, 50.0000
13.936322501, 96.390, 2564.0, 50.6360
13.962583066, 96.390, 2548.0, 50.4777
13.988843631, 96.390, 2401.0, 49.0000
14.015104197, 96.390, 2509.0, 50.0899
14.041364762, 96.390, 2602.0, 51.0098
14.067625327, 96.390, 2504.0, 50.0400
14.093885893, 96.390, 2466.0, 49.6588
14.120146458, 96.390, 2489.0, 49.8899
14.146407023, 96.390, 2625.0, 51.2348
14.172667589, 96.390, 2560.0, 50.5964
14.198928154, 96.390, 2510.0, 50.0999
14.225188719, 96.390, 2578.0, 50.7740
14.251449285, 96.390, 2556.0, 50.5569
14.277709850, 96.390, 2463.0, 49.6286
14.303970416, 96.390, 2573.0, 50.7247
14.330230981, 96.390, 2457.0, 49.5681
14.356491546, 96.390, 2404.0, 49.0306
14.382752112, 96.390, 2537.0, 50.3686
14.409012677, 96.390, 2570.0, 50.6952
14.435273242, 96.390, 2421.0, 49.2037
14.461533808, 96.390, 2616.0, 51.1468
14.487794373, 96.390, 2487.0, 49.8698
14.514054938, 96.390, 2526.0, 50.2593
14.540315504, 96.390, 2545.0, 50.4480
14.566576069, 96.390, 2397.0, 48.9592
14.592836634, 96.390, 2508.0, 50.0799
14.619097200, 96.390, 2500.0, 50.0000
14.645357765, 96.390, 2389.0, 48.8774
14.671618331, 96.390, 2487.0, 49.8698
14.697878896, 96.390, 2606.0, 51.0490
14.724139461, 96.390, 2552.0, 50.5173
14.750400027, 96.390, 2513.0, 50.1298
14.776660592, 96.390, 2431.0, 49.3052
14.802921157, 96.390, 2476.0, 49.7594
14.829181723, 96.390, 2491.0, 49.9099
14.855442288, 96.390, 2314.0, 48.1041
14.881702853, 96.390, 2477.0, 49.7695
14.907963419, 96.390, 2362.0, 48.6004
14.934223984, 96.390, 2485.0, 49.8498
14.960484549, 96.390, 2461.0, 49.6085
14.986745115, 96.390, 2426.0, 49.2544
15.013005680, 96.390, 2392.0, 48.9081
15.039266245, 96.390, 2427.0, 49.2646
15.065526811, 96.390, 2528.0, 50.2792
15.091787376, 96.390, 2382.0, 48.8057
15.118047942, 96.390, 2455.0, 49.5480
15.144308507, 96.390, 2467.0, 49.6689
15.170569072, 96.390, 2390.0, 48.8876
15.196829638, 96.390, 2405.0, 49.0408
15.223090203, 96.390, 2433.0, 49.3254
15.249350768, 96.390, 2439.0, 49.3862
15.275611334, 96.390, 2384.0, 48.8262
15.301871899, 96.390, 2498.0, 49.9800
15.328132464, 96.390, 2381.0, 48.7955
15.354393030, 96.390, 2439.0, 49.3862
15.380653595, 96.390, 2473.0, 49.7293
15.406914160, 96.390, 2390.0, 48.8876
15.433174726, 96.390, 2442.0, 49.4166
15.459435291, 96.390, 2510.0, 50.0999
15.485695857, 96.390, 2387.0, 48.8569
15.511956422, 96.390, 2464.0, 49.6387
15.538216987, 96.390, 2396.0, 48.9490
15.564477553, 96.390, 2415.0, 49.1426
15.590738118, 96.390, 2544.0, 50.4381
15.616998683, 96.390, 2459.0, 49.5883
15.643259249, 96.390, 2409.0, 49.0816
15.669519814, 96.390, 2437.0, 49.3660
15.695780379, 96.390, 2408.0, 49.0714
15.722040945, 96.390, 2468.0, 49.6790
15.748301510, 96.390, 2512.0, 50.1199
15.774562075, 96.390, 2476.0, 49.7594
15.800822641, 96.390, 2374.0, 48.7237
15.827083206, 96.390, 2447.0, 49.4672
15.853343771, 96.390, 2437.0, 49.3660
15.879604337, 96.390, 2373.0, 48.7134
15.905864902, 96.390, 2506.0, 50.0600
15.932125468, 96.390, 2485.0, 49.8498
15.958386033, 96.390, 2440.0, 49.3964
15.984646598, 96.390, 2401.0, 49.0000
16.010907164, 96.390, 2450.0, 49.4975
16.037167729, 96.390, 2449.0, 49.4874
16.063428294, 96.390, 2429.0, 49.2849
16.089688860, 96.390, 2491.0, 49.9099
16.115949425, 96.390, 2424.0, 49.2341
16.142209990, 96.390, 2381.0, 48.7955
16.168470556, 96.390, 2388.0, 48.8672
16.194731121, 96.390, 2388.0, 48.8672
16.220991686, 96.390, 2421.0, 49.2037
16.247252252, 96.390, 2496.0, 49.9600
16.273512817, 96.390, 2420.0, 49.1935
16.299773382, 96.390, 2435.0, 49.3457
16.326033948, 96.390, 2532.0, 50.3190
16.352294513, 96.390, 2460.0, 49.5984
16.378555079, 96.390, 2537.0, 50.3686
16.404815644, 96.390, 2478.0, 49.7795
16.431076209, 96.390, 2480.0, 49.7996
16.457336775, 96.390, 2480.0, 49.7996
16.483597340, 96.390, 2480.0, 49.7996
16.509857905, 96.390, 2400.0, 48.9898
16.536118471, 96.390, 2562.0, 50.6162
16.562379036, 96.390, 2433.0, 49.3254
16.588639601, 96.390, 2437.0, 49.3660
16.614900167, 96.390, 2467.0, 49.6689
16.641160732, 96.390, 2565.0, 50.6458
16.667421297, 96.390, 2508.0, 50.0799
16.693681863, 96.390, 2430.0, 49.2950
16.719942428, 96.390, 2525.0, 50.2494
16.746202994, 96.390, 2559.0, 50.5866
16.772463559, 96.390, 2540.0, 50.3984
16.798724124, 96.390, 2490.0, 49.8999
16.824984690, 96.390, 2440.0, 49.3964
16.851245255, 96.390, 2506.0, 50.0600
16.877505820, 96.390, 2426.0, 49.2544
16.903766386, 96.390, 2563.0, 50.6261
16.930026951, 96.390, 2435.0, 49.3457
16.956287516, 96.390, 2414.0, 49.1325
16.982548082, 96.390, 2634.0, 51.3225
17.008808647, 96.390, 2503.0, 50.0300
17.035069212, 96.390, 2578.0, 50.7740
17.061329778, 96.390, 2510.0, 50.0999
17.087590343, 96.390, 2488.0, 49.8799
17.113850908, 96.390, 2584.0, 50.8331
17.140111474, 96.390, 2566.0, 50.6557
17.166372039, 96.390, 2523.0, 50.2295
17.192632605, 96.390, 2404.0, 49.0306
17.218893170, 96.390, 2588.0, 50.8724
17.245153735, 96.390, 2484.0, 49.8397
17.271414301, 96.390, 2613.0, 51.1175
17.297674866, 96.390, 2520.0, 50.1996
17.323935431, 96.390, 2569.0, 50.6853
17.350195997, 96.390, 2569.0, 50.6853
17.376456562, 96.390, 2637.0, 51.3517
17.402717127, 96.390, 2471.0, 49.7092
17.428977693, 96.390, 2563.0, 50.6261
17.455238258, 96.390, 2549.0, 50.4876
17.481498823, 96.390, 2477.0, 49.7695
17.507759389, 96.390, 2560.0, 50.5964
17.534019954, 96.390, 2533.0, 50.3289
17.560280520, 96.390, 2547.0, 50.4678
17.586541085, 96.390, 2543.0, 50.4282
17.612801650, 96.390, 2647.0, 51.4490
17.639062216, 96.390, 2645.0, 51.4296
17.665322781, 96.390, 2628.0, 51.2640
17.691583346, 96.390, 2626.0, 51.2445
17.717843912, 96.390, 2630.0, 51.2835
17.744104477, 96.390, 2634.0, 51.3225
17.770365042, 96.390, 2624.0, 51.2250
17.796625608, 96.390, 2646.0, 51.4393
17.822886173, 96.390, 2625.0, 51.2348
17.849146738, 96.390, 2569.0, 50.6853
17.875407304, 96.390, 2604.0, 51.0294
17.901667869, 96.390, 2733.0, 52.2781
17.927928434, 96.390, 2643.0, 51.4101
17.954189000, 96.390, 2594.0, 50.9313
17.980449565, 96.390, 2571.0, 50.7050
18.006710131, 96.390, 2693.0, 51.8941
18.032970696, 96.390, 2754.0, 52.4786
18.059231261, 96.390, 2673.0, 51.7011
18.085491827, 96.390, 2799.0, 52.9056
18.111752392, 96.390, 2710.0, 52.0577
18.138012957, 96.390, 2697.0, 51.9326
18.164273523, 96.390, 2604.0, 51.0294
18.190534088, 96.390, 2723.0, 52.1824
18.216794653, 96.390, 2805.0, 52.9623
18.243055219, 96.390, 2706.0, 52.0192
18.269315784, 96.390, 2689.0, 51.8556
18.295576349, 96.390, 2637.0, 51.3517
18.321836915, 96.390, 2707.0, 52.0288
18.348097480, 96.390, 2761.0, 52.5452
18.374358046, 96.390, 2777.0, 52.6972
18.400618611, 96.390, 2739.0, 52.3355
18.426879176, 96.390, 2690.0, 51.8652
18.453139742, 96.390, 2817.0, 53.0754
18.479400307, 96.390, 2752.0, 52.4595
18.505660872, 96.390, 2875.0, 53.6190
18.531921438, 96.390, 2808.0, 52.9906
18.558182003, 96.390, 2760.0, 52.5357
18.584442568, 96.390, 2747.0, 52.4118
18.610703134, 96.390, 2741.0, 52.3546
18.636963699, 96.390, 2705.0, 52.0096
18.663224264, 96.390, 2918.0, 54.0185
18.689484830, 96.390, 2892.0, 53.7773
18.715745395, 96.390, 2762.0, 52.5547
18.742005960, 96.390, 2817.0, 53.0754
18.768266526, 96.390, 2886.0, 53.7215
18.794527091, 96.390, 2915.0, 53.9907
18.820787657, 96.390, 2789.0, 52.8110
18.847048222, 96.390, 2920.0, 54.0370
18.873308787, 96.390, 2830.0, 53.1977
18.899569353, 96.390, 2826.0, 53.1601
18.925829918, 96.390, 2826.0, 53.1601
18.952090483, 96.390, 2873.0, 53.6004
18.978351049, 96.390, 2905.0, 53.8981
19.004611614, 96.390, 2878.0, 53.6470
19.030872179, 96.390, 2852.0, 53.4041
19.057132745, 96.390, 2824.0, 53.1413
19.083393310, 96.390, 2881.0, 53.6749
19.109653875, 96.390, 2866.0, 53.5350
19.135914441, 96.390, 2935.0, 54.1756
19.162175006, 96.390, 2855.0, 53.4322
19.188435572, 96.390, 2899.0, 53.8424
19.214696137, 96.390, 2971.0, 54.5069
19.240956702, 96.390, 2789.0, 52.8110
19.267217268, 96.390, 2972.0, 54.5161
19.293477833, 96.390, 2872.0, 53.5910
19.319738398, 96.390, 2898.0, 53.8331
19.345998964, 96.390, 2911.0, 53.9537
19.372259529, 96.390, 2977.0, 54.5619
19.398520094, 96.390, 3050.0, 55.2268
19.424780660, 96.390, 3023.0, 54.9818
19.451041225, 96.390, 3053.0, 55.2540
19.477301790, 96.390, 3081.0, 55.5068
19.503562356, 96.390, 2904.0, 53.8888
19.529822921, 96.390, 3062.0, 55.3353
19.556083486, 96.390, 2999.0, 54.7631
19.582344052, 96.390, 2969.0, 54.4885
19.608604617, 96.390, 3017.0, 54.9272
19.634865183, 96.390, 2978.0, 54.5711
19.661125748, 96.390, 3017.0, 54.9272
19.687386313, 96.390, 3053.0, 55.2540
19.713646879, 96.390, 3036.0, 55.0999
19.739907444, 96.390, 3070.0, 55.4076
19.766168009, 96.390, 3041.0, 55.1453
19.792428575, 96.390, 3127.0, 55.9196
19.818689140, 96.390, 3086.0, 55.5518
19.844949705, 96.390, 3095.0, 55.6327
19.871210271, 96.390, 3061.0, 55.3263
19.897470836, 96.390, 3138.0, 56.0179
19.923731401, 96.390, 3186.0, 56.4447
19.949991967, 96.390, 3076.0, 55.4617
19.976252532, 96.390, 3177.0, 56.3649
20.002513097, 96.390, 3191.0, 56.4889
20.028773663, 96.390, 3142.0, 56.0535
20.055034228, 96.390, 3073.0, 55.4346
20.081294794, 96.390, 3163.0, 56.2406
20.107555359, 96.390, 3107.0, 55.7405
20.133815924, 96.390, 3144.0, 56.0714
20.160076490, 96.390, 3095.0, 55.6327
20.186337055, 96.390, 3219.0, 56.7362
20.212597620, 96.390, 3194.0, 56.5155
20.238858186, 96.390, 3251.0, 57.0175
20.265118751, 96.390, 3212.0, 56.6745
20.291379316, 96.390, 3141.0, 56.0446
20.317639882, 96.390, 3194.0, 56.5155
20.343900447, 96.390, 3256.0, 57.0614
20.370161012, 96.390, 3207.0, 56.6304
20.396421578, 96.390, 3213.0, 56.6833
20.422682143, 96.390, 3182.0, 56.4092
20.448942709, 96.390, 3246.0, 56.9737
20.475203274, 96.390, 3242.0, 56.9386
20.501463839, 96.390, 3280.0, 57.2713
20.527724405, 96.390, 3260.0, 57.0964
20.553984970, 96.390, 3113.0, 55.7943
20.580245535, 96.390, 3223.0, 56.7715
20.606506101, 96.390, 3327.0, 57.6802
20.632766666, 96.390, 3288.0, 57.3411
20.659027231, 96.390, 3292.0, 57.3760
20.685287797, 96.390, 3322.0, 57.6368
20.711548362, 96.390, 3250.0, 57.0088
20.737808927, 96.390, 3354.0, 57.9137
20.764069493, 96.390, 3314.0, 57.5674
20.790330058, 96.390, 3259.0, 57.0877
20.816590623, 96.390, 3413.0, 58.4209
20.842851189, 96.390, 3292.0, 57.3760
20.869111754, 96.390, 3229.0, 56.8243
20.895372320, 96.390, 3291.0, 57.3672
20.921632885, 96.390, 3392.0, 58.2409
20.947893450, 96.390, 3230.0, 56.8331
20.974154016, 96.390, 3268.0, 57.1664
21.000414581, 96.390, 3326.0, 57.6715
21.026675146, 96.390, 3148.0, 56.1070
21.052935712, 96.390, 3280.0, 57.2713
21.079196277, 96.390, 3280.0, 57.2713
21.105456842, 96.390, 3209.0, 56.6480
21.131717408, 96.390, 3218.0, 56.7274
21.157977973, 96.390, 3338.0, 57.7754
21.184238538, 96.390, 3343.0, 57.8187
21.210499104, 96.390, 3239.0, 56.9122
21.236759669, 96.390, 3361.0, 57.9741
21.263020235, 96.390, 3356.0, 57.9310
21.289280800, 96.390, 3340.0, 57.7927
21.315541365, 96.390, 3313.0, 57.5587
21.341801931, 96.390, 3352.0, 57.8965
21.368062496, 96.390, 3379.0, 58.1292
21.394323061, 96.390, 3304.0, 57.4804
21.420583627, 96.390, 3417.0, 58.4551
21.446844192, 96.390, 3268.0, 57.1664
21.473104757, 96.390, 3490.0, 59.0762
21.499365323, 96.390, 3387.0, 58.1979
21.525625888, 96.390, 3321.0, 57.6281
21.551886453, 96.390, 3375.0, 58.0948
21.578147019, 96.390, 3320.0, 57.6194
21.604407584, 96.390, 3262.0, 57.1139
21.630668149, 96.390, 3337.0, 57.7668
21.656928715, 96.390, 3325.0, 57.6628
21.683189280, 96.390, 3452.0, 58.7537
21.709449846, 96.390, 3357.0, 57.9396
21.735710411, 96.390, 3298.0, 57.4282
21.761970976, 96.390, 3376.0, 58.1034
21.788231542, 96.390, 3392.0, 58.2409
21.814492107, 96.390, 3367.0, 58.0259
21.840752672, 96.390, 3332.0, 57.7235
21.867013238, 96.390, 3330.0, 57.7062
21.893273803, 96.390, 3382.0, 58.1550
21.919534368, 96.390, 3478.0, 58.9746
21.945794934, 96.390, 3373.0, 58.0775
21.972055499, 96.390, 3316.0, 57.5847
21.998316064, 96.390, 3268.0, 57.1664
22.024576630, 96.390, 3471.0, 58.9152
22.050837195, 96.390, 3425.0, 58.5235
22.077097761, 96.390, 3353.0, 57.9051
22.103358326, 96.390, 3368.0, 58.0345
22.129618891, 96.390, 3411.0, 58.4038
22.155879457, 96.390, 3216.0, 56.7098
22.182140022, 96.390, 3327.0, 57.6802
22.208400587, 96.390, 3428.0, 58.5491
22.234661153, 96.390, 3287.0, 57.3324
22.260921718, 96.390, 3359.0, 57.9569
22.287182283, 96.390, 3302.0, 57.4630
22.313442849, 96.390, 3345.0, 57.8360
22.339703414, 96.390, 3308.0, 57.5152
22.365963979, 96.390, 3400.0, 58.3095
22.392224545, 96.390, 3414.0, 58.4294
22.418485110, 96.390, 3417.0, 58.4551
22.444745675, 96.390, 3317.0, 57.5934
22.471006241, 96.390, 3274.0, 57.2189
22.497266806, 96.390, 3284.0, 57.3062
22.523527372, 96.390, 3301.0, 57.4543
22.549787937, 96.390, 3434.0, 58.6003
22.576048502, 96.390, 3371.0, 58.0603
22.602309068, 96.390, 3228.0, 56.8155
22.628569633, 96.390, 3378.0, 58.1206
22.654830198, 96.390, 3410.0, 58.3952
22.681090764, 96.390, 3296.0, 57.4108
22.707351329, 96.390, 3266.0, 57.1489
22.733611894, 96.390, 3264.0, 57.1314
22.759872460, 96.390, 3153.0, 56.1516
22.786133025, 96.390, 3220.0, 56.7450
22.812393590, 96.390, 3306.0, 57.4978
22.838654156, 96.390, 3271.0, 57.1927
22.864914721, 96.390, 3265.0, 57.1402
22.891175287, 96.390, 3361.0, 57.9741
22.917435852, 96.390, 3382.0, 58.1550
22.943696417, 96.390, 3237.0, 56.8946
22.969956983, 96.390, 3305.0, 57.4891
22.996217548, 96.390, 3207.0, 56.6304
23.022478113, 96.390, 3372.0, 58.0689
23.048738679, 96.390, 3229.0, 56.8243
23.074999244, 96.390, 3288.0, 57.3411
23.101259809, 96.390, 3236.0, 56.8859
23.127520375, 96.390, 3300.0, 57.4456
23.153780940, 96.390, 3298.0, 57.4282
23.180041505, 96.390, 3052.0, 55.2449
23.206302071, 96.390, 3143.0, 56.0625
23.232562636, 96.390, 3206.0, 56.6216
23.258823201, 96.390, 3272.0, 57.2014
23.285083767, 96.390, 3195.0, 56.5243
23.311344332, 96.390, 3254.0, 57.0438
23.337604898, 96.390, 3198.0, 56.5509
23.363865463, 96.390, 3322.0, 57.6368
23.390126028, 96.390, 3183.0, 56.4181
23.416386594, 96.390, 3212.0, 56.6745
23.442647159, 96.390, 3229.0, 56.8243
23.468907724, 96.390, 3141.0, 56.0446
23.495168290, 96.390, 3101.0, 55.6866
23.521428855, 96.390, 3142.0, 56.0535
23.547689420, 96.390, 3190.0, 56.4801
23.573949986, 96.390, 3106.0, 55.7315
23.600210551, 96.390, 3155.0, 56.1694
23.626471116, 96.390, 3212.0, 56.6745
23.652731682, 96.390, 3254.0, 57.0438
23.678992247, 96.390, 3186.0, 56.4447
23.705252813, 96.390, 3139.0, 56.0268
23.731513378, 96.390, 3110.0, 55.7674
23.757773943, 96.390, 3102.0, 55.6956
23.784034509, 96.390, 3200.0, 56.5685
23.810295074, 96.390, 3092.0, 55.6058
23.836555639, 96.390, 3087.0, 55.5608
23.862816205, 96.390, 3094.0, 55.6237
23.889076770, 96.390, 3056.0, 55.2811
23.915337335, 96.390, 3144.0, 56.0714
23.941597901, 96.390, 3068.0, 55.3895
23.967858466, 96.390, 3071.0, 55.4166
23.994119031, 96.390, 3045.0, 55.1815
24.020379597, 96.390, 3141.0, 56.0446
24.046640162, 96.390, 3084.0, 55.5338
24.072900727, 96.390, 3123.0, 55.8838
24.099161293, 96.390, 2916.0, 54.0000
24.125421858, 96.390, 2935.0, 54.1756
24.151682424, 96.390, 2981.0, 54.5985
24.177942989, 96.390, 2914.0, 53.9815
24.204203554, 96.390, 2924.0, 54.0740
24.230464120, 96.390, 2909.0, 53.9351
24.256724685, 96.390, 3021.0, 54.9636
24.282985250, 96.390, 2957.0, 54.3783
24.309245816, 96.390, 2989.0, 54.6717
24.335506381, 96.390, 2979.0, 54.5802
24.361766946, 96.390, 2913.0, 53.9722
24.388027512, 96.390, 2998.0, 54.7540
24.414288077, 96.390, 2891.0, 53.7680
24.440548642, 96.390, 3010.0, 54.8635
24.466809208, 96.390, 2912.0, 53.9630
24.493069773, 96.390, 2966.0, 54.4610
24.519330338, 96.390, 2934.0, 54.1664
24.545590904, 96.390, 2931.0, 54.1387
24.571851469, 96.390, 2882.0, 53.6843
24.598112035, 96.390, 2859.0, 53.4696
24.624372600, 96.390, 2881.0, 53.6749
24.650633165, 96.390, 2934.0, 54.1664
24.676893731, 96.390, 2897.0, 53.8238
24.703154296, 96.390, 2928.0, 54.1110
24.729414861, 96.390, 2859.0, 53.4696
24.755675427, 96.390, 2777.0, 52.6972
24.781935992, 96.390, 2810.0, 53.0094
24.808196557, 96.390, 2724.0, 52.1920
24.834457123, 96.390, 2819.0, 53.0943
24.860717688, 96.390, 2850.0, 53.3854
24.886978253, 96.390, 2864.0, 53.5164
24.913238819, 96.390, 2822.0, 53.1225
24.939499384, 96.390, 2719.0, 52.1440
24.965759950, 96.390, 2731.0, 52.2590
24.992020515, 96.390, 2763.0, 52.5642
25.018281080, 96.390, 2731.0, 52.2590
25.044541646, 96.390, 2705.0, 52.0096
25.070802211, 96.390, 2847.0, 53.3573
25.097062776, 96.390, 2764.0, 52.5738
25.123323342, 96.390, 2719.0, 52.1440
25.149583907, 96.390, 2705.0, 52.0096
25.175844472, 96.390, 2793.0, 52.8488
25.202105038, 96.390, 2753.0, 52.4690
25.228365603, 96.390, 2682.0, 51.7880
25.254626168, 96.390, 2692.0, 51.8845
25.280886734, 96.390, 2666.0, 51.6333
25.307147299, 96.390, 2691.0, 51.8748
25.333407864, 96.390, 2627.0, 51.2543
25.359668430, 96.390, 2708.0, 52.0384
25.385928995, 96.390, 2661.0, 51.5849
25.412189561, 96.390, 2623.0, 51.2152
25.438450126, 96.390, 2659.0, 51.5655
25.464710691, 96.390, 2735.0, 52.2972
25.490971257, 96.390, 2670.0, 51.6720
25.517231822, 96.390, 2624.0, 51.2250
25.543492387, 96.390, 2613.0, 51.1175
25.569752953, 96.390, 2629.0, 51.2738
25.596013518, 96.390, 2697.0, 51.9326
25.622274083, 96.390, 2689.0, 51.8556
25.648534649, 96.390, 2642.0, 51.4004
25.674795214, 96.390, 2671.0, 51.6817
25.701055779, 96.390, 2645.0, 51.4296
25.727316345, 96.390, 2572.0, 50.7149
25.753576910, 96.390, 2517.0, 50.1697
25.779837476, 96.390, 2597.0, 50.9608
25.806098041, 96.390, 2604.0, 51.0294
25.832358606, 96.390, 2562.0, 50.6162
25.858619172, 96.390, 2454.0, 49.5379
25.884879737, 96.390, 2570.0, 50.6952
25.911140302, 96.390, 2539.0, 50.3885
25.937400868, 96.390, 2446.0, 49.4571
25.963661433, 96.390, 2509.0, 50.0899
25.989921998, 96.390, 2411.0, 49.1019
26.016182564, 96.390, 2507.0, 50.0700
26.042443129, 96.390, 2552.0, 50.5173
26.068703694, 96.390, 2556.0, 50.5569
26.094964260, 96.390, 2425.0, 49.2443
26.121224825, 96.390, 2424.0, 49.2341
26.147485390, 96.390, 2456.0, 49.5580
26.173745956, 96.390, 2530.0, 50.2991
26.200006521, 96.390, 2448.0, 49.4773
26.226267087, 96.390, 2439.0, 49.3862
26.252527652, 96.390, 2443.0, 49.4267
26.278788217, 96.390, 2543.0, 50.4282
26.305048783, 96.390, 2382.0, 48.8057
26.331309348, 96.390, 2507.0, 50.0700
26.357569913, 96.390, 2505.0, 50.0500
26.383830479, 96.390, 2440.0, 49.3964
26.410091044, 96.390, 2522.0, 50.2195
26.436351609, 96.390, 2490.0, 49.8999
26.462612175, 96.390, 2415.0, 49.1426
26.488872740, 96.390, 2467.0, 49.6689
26.515133305, 96.390, 2456.0, 49.5580
26.541393871, 96.390, 2525.0, 50.2494
26.567654436, 96.390, 2397.0, 48.9592
26.593915002, 96.390, 2414.0, 49.1325
26.620175567, 96.390, 2463.0, 49.6286
26.646436132, 96.390, 2346.0, 48.4355
26.672696698, 96.390, 2397.0, 48.9592
26.698957263, 96.390, 2399.0, 48.9796
26.725217828, 96.390, 2444.0, 49.4368
26.751478394, 96.390, 2370.0, 48.6826
26.777738959, 96.390, 2395.0, 48.9387
26.803999524, 96.390, 2464.0, 49.6387
26.830260090, 96.390, 2409.0, 49.0816
26.856520655, 96.390, 2416.0, 49.1528
26.882781220, 96.390, 2538.0, 50.3786
26.909041786, 96.390, 2400.0, 48.9898
26.935302351, 96.390, 2323.0, 48.1975
26.961562916, 96.390, 2346.0, 48.4355
26.987823482, 96.390, 2234.0, 47.2652
27.014084047, 96.390, 2340.0, 48.3735
27.040344613, 96.390, 2319.0, 48.1560
27.066605178, 96.390, 2309.0, 48.0521
27.092865743, 96.390, 2313.0, 48.0937
27.119126309, 96.390, 2338.0, 48.3529
27.145386874, 96.390, 2279.0, 47.7389
27.171647439, 96.390, 2332.0, 48.2908
27.197908005, 96.390, 2399.0, 48.9796
27.224168570, 96.390, 2355.0, 48.5283
27.250429135, 96.390, 2243.0, 47.3603
27.276689701, 96.390, 2328.0, 48.2494
27.302950266, 96.390, 2405.0, 49.0408
27.329210831, 96.390, 2398.0, 48.9694
27.355471397, 96.390, 2254.0, 47.4763
27.381731962, 96.390, 2290.0, 47.8539
27.407992528, 96.390, 2324.0, 48.2079
27.434253093, 96.390, 2306.0, 48.0208
27.460513658, 96.390, 2305.0, 48.0104
27.486774224, 96.390, 2347.0, 48.4458
27.513034789, 96.390, 2383.0, 48.8160
27.539295354, 96.390, 2318.0, 48.1456
27.565555920, 96.390, 2273.0, 47.6760
27.591816485, 96.390, 2330.0, 48.2701
27.618077050, 96.390, 2333.0, 48.3011
27.644337616, 96.390, 2269.0, 47.6340
27.670598181, 96.390, 2241.0, 47.3392
27.696858746, 96.390, 2193.0, 46.8295
27.723119312, 96.390, 2299.0, 47.9479
27.749379877, 96.390, 2260.0, 47.5395
27.775640442, 96.390, 2255.0, 47.4868
27.801901008, 96.390, 2263.0, 47.5710
27.828161573, 96.390, 2275.0, 47.6970
27.854422139, 96.390, 2287.0, 47.8226
27.880682704, 96.390, 2206.0, 46.9681
27.906943269, 96.390, 2143.0, 46.2925
27.933203835, 96.390, 2273.0, 47.6760
27.959464400, 96.390, 2303.0, 47.9896
27.985724965, 96.390, 2303.0, 47.9896
28.011985531, 96.390, 2264.0, 47.5815
28.038246096, 96.390, 2232.0, 47.2440
28.064506661, 96.390, 2175.0, 46.6369
28.090767227, 96.390, 2205.0, 46.9574
28.117027792, 96.390, 2208.0, 46.9894
28.143288357, 96.390, 2291.0, 47.8644
28.169548923, 96.390, 2214.0, 47.0532
28.195809488, 96.390, 2200.0, 46.9042
28.222070054, 96.390, 2291.0, 47.8644
28.248330619, 96.390, 2222.0, 47.1381
28.274591184, 96.390, 2244.0, 47.3709
28.300851750, 96.390, 2234.0, 47.2652
28.327112315, 96.390, 2198.0, 46.8828
28.353372880, 96.390, 2253.0, 47.4658
28.379633446, 96.390, 2291.0, 47.8644
28.405894011, 96.390, 2169.0, 46.5725
28.432154576, 96.390, 2278.0, 47.7284
28.458415142, 96.390, 2107.0, 45.9021
28.484675707, 96.390, 2253.0, 47.4658
28.510936272, 96.390, 2222.0, 47.1381
28.537196838, 96.390, 2164.0, 46.5188
28.563457403, 96.390, 2199.0, 46.8935
28.589717968, 96.390, 2254.0, 47.4763
28.615978534, 96.390, 2257.0, 47.5079
28.642239099, 96.390, 2191.0, 46.8081
28.668499665, 96.390, 2075.0, 45.5522
28.694760230, 96.390, 2135.0, 46.2061
28.721020795, 96.390, 2230.0, 47.2229
28.747281361, 96.390, 2219.0, 47.1063
28.773541926, 96.390, 2259.0, 47.5289
28.799802491, 96.390, 2238.0, 47.3075
28.826063057, 96.390, 2073.0, 45.5302
28.852323622, 96.390, 2234.0, 47.2652
28.878584187, 96.390, 2236.0, 47.2864
28.904844753, 96.390, 2186.0, 46.7547
28.931105318, 96.390, 2166.0, 46.5403
28.957365883, 96.390, 2125.0, 46.0977
28.983626449, 96.390, 2158.0, 46.4543
29.009887014, 96.390, 2127.0, 46.1194
29.036147579, 96.390, 2180.0, 46.6905
29.062408145, 96.390, 2140.0, 46.2601
29.088668710, 96.390, 2144.0, 46.3033
29.114929276, 96.390, 2223.0, 47.1487
29.141189841, 96.390, 2197.0, 46.8722
29.167450406, 96.390, 2091.0, 45.7275
29.193710972, 96.390, 2147.0, 46.3357
29.219971537, 96.390, 2222.0, 47.1381
29.246232102, 96.390, 2154.0, 46.4112
29.272492668, 96.390, 2151.0, 46.3789
29.298753233, 96.390, 2073.0, 45.5302
29.325013798, 96.390, 2165.0, 46.5296
29.351274364, 96.390, 2228.0, 47.2017
29.377534929, 96.390, 2165.0, 46.5296
29.403795494, 96.390, 2095.0, 45.7712
29.430056060, 96.390, 2206.0, 46.9681
29.456316625, 96.390, 2198.0, 46.8828
29.482577191, 96.390, 2080.0, 45.6070
29.508837756, 96.390, 2113.0, 45.9674
29.535098321, 96.390, 2135.0, 46.2061
29.561358887, 96.390, 2120.0, 46.0435
29.587619452, 96.390, 2098.0, 45.8039
29.613880017, 96.390, 2118.0, 46.0217
29.640140583, 96.390, 2164.0, 46.5188
29.666401148, 96.390, 2176.0, 46.6476
29.692661713, 96.390, 2220.0, 47.1169
29.718922279, 96.390, 2140.0, 46.2601
29.745182844, 96.390, 2217.0, 47.0850
29.771443409, 96.390, 2078.0, 45.5851
29.797703975, 96.390, 2186.0, 46.7547
29.823964540, 96.390, 2139.0, 46.2493
29.850225105, 96.390, 2169.0, 46.5725
29.876485671, 96.390, 2128.0, 46.1303
29.902746236, 96.390, 2033.0, 45.0888
29.929006802, 96.390, 2186.0, 46.7547
29.955267367, 96.390, 2151.0, 46.3789
29.981527932, 96.390, 2075.0, 45.5522
30.007788498, 96.390, 2108.0, 45.9130
30.034049063, 96.390, 2100.0, 45.8258
30.060309628, 96.390, 2104.0, 45.8694
30.086570194, 96.390, 2065.0, 45.4423
30.112830759, 96.390, 2194.0, 46.8402
30.139091324, 96.390, 2125.0, 46.0977
30.165351890, 96.390, 2071.0, 45.5082
30.191612455, 96.390, 2103.0, 45.8585
30.217873020, 96.390, 2132.0, 46.1736
30.244133586, 96.390, 2125.0, 46.0977
30.270394151, 96.390, 2075.0, 45.5522
30.296654717, 96.390, 2142.0, 46.2817
30.322915282, 96.390, 2122.0, 46.0652
30.349175847, 96.390, 2158.0, 46.4543
30.375436413, 96.390, 2113.0, 45.9674
30.401696978, 96.390, 2151.0, 46.3789
30.427957543, 96.390, 2134.0, 46.1952
30.454218109, 96.390, 2171.0, 46.5940
30.480478674, 96.390, 2121.0, 46.0543
30.506739239, 96.390, 2108.0, 45.9130
30.532999805, 96.390, 2098.0, 45.8039
30.559260370, 96.390, 2112.0, 45.9565
30.585520935, 96.390, 2167.0, 46.5510
30.611781501, 96.390, 2115.0, 45.9891
30.638042066, 96.390, 2120.0, 46.0435
30.664302631, 96.390, 2115.0, 45.9891
30.690563197, 96.390, 2065.0, 45.4423
30.716823762, 96.390, 2113.0, 45.9674
30.743084328, 96.390, 2090.0, 45.7165
30.769344893, 96.390, 2039.0, 45.1553
30.795605458, 96.390, 2076.0, 45.5631
30.821866024, 96.390, 2090.0, 45.7165
30.848126589, 96.390, 2082.0, 45.6289
30.874387154, 96.390, 2077.0, 45.5741
30.900647720, 96.390, 2130.0, 46.1519
30.926908285, 96.390, 2085.0, 45.6618
30.953168850, 96.390, 2077.0, 45.5741
30.979429416, 96.390, 2170.0, 46.5833
31.005689981, 96.390, 2037.0, 45.1331
31.031950546, 96.390, 2032.0, 45.0777
31.058211112, 96.390, 2077.0, 45.5741
31.084471677, 96.390, 2081.0, 45.6180
31.110732243, 96.390, 2062.0, 45.4093
31.136992808, 96.390, 2085.0, 45.6618
31.163253373, 96.390, 2035.0, 45.1110
31.189513939, 96.390, 2020.0, 44.9444
31.215774504, 96.390, 2024.0, 44.9889
31.242035069, 96.390, 2066.0, 45.4533
31.268295635, 96.390, 2094.0, 45.7602
31.294556200, 96.390, 2079.0, 45.5961
31.320816765, 96.390, 2018.0, 44.9222
31.347077331, 96.390, 2126.0, 46.1086
31.373337896, 96.390, 2055.0, 45.3321
31.399598461, 96.390, 2032.0, 45.0777
31.425859027, 96.390, 2068.0, 45.4753
31.452119592, 96.390, 1954.0, 44.2041
31.478380157, 96.390, 1997.0, 44.6878
31.504640723, 96.390, 1975.0, 44.4410
31.530901288, 96.390, 2087.0, 45.6837
31.557161854, 96.390, 2074.0, 45.5412
31.583422419, 96.390, 1980.0, 44.4972
31.609682984, 96.390, 2032.0, 45.0777
31.635943550, 96.390, 2173.0, 46.6154
31.662204115, 96.390, 1999.0, 44.7102
31.688464680, 96.390, 1985.0, 44.5533
31.714725246, 96.390, 2112.0, 45.9565
31.740985811, 96.390, 2038.0, 45.1442
31.767246376, 96.390, 1926.0, 43.8862
31.793506942, 96.390, 1964.0, 44.3170
31.819767507, 96.390, 2030.0, 45.0555
31.846028072, 96.390, 2036.0, 45.1221
31.872288638, 96.390, 2077.0, 45.5741
31.898549203, 96.390, 2105.0, 45.8803
31.924809769, 96.390, 2002.0, 44.7437
31.951070334, 96.390, 2057.0, 45.3542
31.977330899, 96.390, 1950.0, 44.1588
32.003591465, 96.390, 1988.0, 44.5870
32.029852030, 96.390, 1930.0, 43.9318
32.056112595, 96.390, 2034.0, 45.0999
32.082373161, 96.390, 1876.0, 43.3128
32.108633726, 96.390, 1959.0, 44.2606
32.134894291, 96.390, 1926.0, 43.8862
32.161154857, 96.390, 1870.0, 43.2435
32.187415422, 96.390, 1991.0, 44.6206
32.213675987, 96.390, 2052.0, 45.2990
32.239936553, 96.390, 1954.0, 44.2041
32.266197118, 96.390, 1953.0, 44.1928
32.292457683, 96.390, 1920.0, 43.8178
32.318718249, 96.390, 1989.0, 44.5982
32.344978814, 96.390, 2054.0, 45.3211
32.371239380, 96.390, 2018.0, 44.9222
32.397499945, 96.390, 1994.0, 44.6542
32.423760510, 96.390, 2003.0, 44.7549
32.450021076, 96.390, 2013.0, 44.8665
32.476281641, 96.390, 1959.0, 44.2606
32.502542206, 96.390, 2003.0, 44.7549
32.528802772, 96.390, 1949.0, 44.1475
32.555063337, 96.390, 1870.0, 43.2435
32.581323902, 96.390, 1974.0, 44.4297
32.607584468, 96.390, 1961.0, 44.2832
32.633845033, 96.390, 1970.0, 44.3847
32.660105598, 96.390, 1907.0, 43.6692
32.686366164, 96.390, 1870.0, 43.2435
32.712626729, 96.390, 1873.0, 43.2782
32.738887295, 96.390, 2037.0, 45.1331
32.765147860, 96.390, 2018.0, 44.9222
32.791408425, 96.390, 1893.0, 43.5086
32.817668991, 96.390, 2061.0, 45.3982
32.843929556, 96.390, 2049.0, 45.2659
32.870190121, 96.390, 1921.0, 43.8292
32.896450687, 96.390, 1887.0, 43.4396
32.922711252, 96.390, 1923.0, 43.8520
32.948971817, 96.390, 1943.0, 44.0795
32.975232383, 96.390, 1871.0, 43.2551
33.001492948, 96.390, 1884.0, 43.4051
33.027753513, 96.390, 1894.0, 43.5201
33.054014079, 96.390, 1928.0, 43.9090
33.080274644, 96.390, 1976.0, 44.4522
33.106535209, 96.390, 1926.0, 43.8862
33.132795775, 96.390, 1892.0, 43.4971
33.159056340, 96.390, 1881.0, 43.3705
33.185316906, 96.390, 1963.0, 44.3058
33.211577471, 96.390, 1933.0, 43.9659
33.237838036, 96.390, 1895.0, 43.5316
33.264098602, 96.390, 1880.0, 43.3590
33.290359167, 96.390, 1918.0, 43.7950
33.316619732, 96.390, 1873.0, 43.2782
33.342880298, 96.390, 1987.0, 44.5758
33.369140863, 96.390, 1969.0, 44.3734
33.395401428, 96.390, 2025.0, 45.0000
33.421661994, 96.390, 1922.0, 43.8406
33.447922559, 96.390, 1921.0, 43.8292
33.474183124, 96.390, 1941.0, 44.0568
33.500443690, 96.390, 1917.0, 43.7836
33.526704255, 96.390, 1956.0, 44.2267
33.552964820, 96.390, 1920.0, 43.8178
33.579225386, 96.390, 1908.0, 43.6807
33.605485951, 96.390, 1911.0, 43.7150
33.631746517, 96.390, 1922.0, 43.8406
33.658007082, 96.390, 2020.0, 44.9444
33.684267647, 96.390, 1948.0, 44.1362
33.710528213, 96.390, 1957.0, 44.2380
33.736788778, 96.390, 1955.0, 44.2154
33.763049343, 96.390, 1980.0, 44.4972
33.789309909, 96.390, 2099.0, 45.8148
33.815570474, 96.390, 2014.0, 44.8776
33.841831039, 96.390, 1949.0, 44.1475
33.868091605, 96.390, 1967.0, 44.3509
33.894352170, 96.390, 1998.0, 44.6990
33.920612735, 96.390, 1937.0, 44.0114
33.946873301, 96.390, 1920.0, 43.8178
33.973133866, 96.390, 1939.0, 44.0341
33.999394432, 96.390, 1988.0, 44.5870
34.025654997, 96.390, 1986.0, 44.5646
34.051915562, 96.390, 2107.0, 45.9021
34.078176128, 96.390, 1939.0, 44.0341
34.104436693, 96.390, 2019.0, 44.9333
34.130697258, 96.390, 1940.0, 44.0454
34.156957824, 96.390, 2041.0, 45.1774
34.183218389, 96.390, 2000.0, 44.7214
34.209478954, 96.390, 2028.0, 45.0333
34.235739520, 96.390, 2051.0, 45.2880
34.262000085, 96.390, 2077.0, 45.5741
34.288260650, 96.390, 2016.0, 44.8999
34.314521216, 96.390, 2053.0, 45.3100
34.340781781, 96.390, 2101.0, 45.8367
34.367042346, 96.390, 2095.0, 45.7712
34.393302912, 96.390, 2085.0, 45.6618
34.419563477, 96.390, 2128.0, 46.1303
34.445824043, 96.390, 2074.0, 45.5412
34.472084608, 96.390, 2096.0, 45.7821
34.498345173, 96.390, 2034.0, 45.0999
34.524605739, 96.390, 2033.0, 45.0888
34.550866304, 96.390, 2131.0, 46.1628
34.577126869, 96.390, 2162.0, 46.4973
34.603387435, 96.390, 2119.0, 46.0326
34.629648000, 96.390, 2059.0, 45.3762
34.655908565, 96.390, 1996.0, 44.6766
34.682169131, 96.390, 2079.0, 45.5961
34.708429696, 96.390, 2124.0, 46.0869
34.734690261, 96.390, 2107.0, 45.9021
34.760950827, 96.390, 2092.0, 45.7384
34.787211392, 96.390, 2098.0, 45.8039
34.813471958, 96.390, 2095.0, 45.7712
34.839732523, 96.390, 2042.0, 45.1885
34.865993088, 96.390, 2149.0, 46.3573
34.892253654, 96.390, 2159.0, 46.4650
34.918514219, 96.390, 2082.0, 45.6289
34.944774784, 96.390, 2074.0, 45.5412
34.971035350, 96.390, 2121.0, 46.0543
34.997295915, 96.390, 2026.0, 45.0111
35.023556480, 96.390, 2083.0, 45.6399
35.049817046, 96.390, 2064.0, 45.4313
35.076077611, 96.390, 2020.0, 44.9444
35.102338176, 96.390, 1960.0, 44.2719
35.128598742, 96.390, 2047.0, 45.2438
35.154859307, 96.390, 2062.0, 45.4093
35.181119872, 96.390, 2039.0, 45.1553
35.207380438, 96.390, 2112.0, 45.9565
35.233641003, 96.390, 2112.0, 45.9565
35.259901569, 96.390, 2043.0, 45.1996
35.286162134, 96.390, 2123.0, 46.0760
35.312422699, 96.390, 2120.0, 46.0435
35.338683265, 96.390, 2136.0, 46.2169
35.364943830, 96.390, 2105.0, 45.8803
35.391204395, 96.390, 2088.0, 45.6946
35.417464961, 96.390, 2038.0, 45.1442
35.443725526, 96.390, 2038.0, 45.1442
35.469986091, 96.390, 2103.0, 45.8585
35.496246657, 96.390, 2032.0, 45.0777
35.522507222, 96.390, 2083.0, 45.6399
35.548767787, 96.390, 2058.0, 45.3652
35.575028353, 96.390, 2009.0, 44.8219
35.601288918, 96.390, 2083.0, 45.6399
35.627549484, 96.390, 1969.0, 44.3734
35.653810049, 96.390, 1993.0, 44.6430
35.680070614, 96.390, 1944.0, 44.0908
35.706331180, 96.390, 2032.0, 45.0777
35.732591745, 96.390, 2055.0, 45.3321
35.758852310, 96.390, 1992.0, 44.6318
35.785112876, 96.390, 1996.0, 44.6766
35.811373441, 96.390, 2024.0, 44.9889
35.837634006, 96.390, 1995.0, 44.6654
35.863894572, 96.390, 2017.0, 44.9110
35.890155137, 96.390, 2027.0, 45.0222
35.916415702, 96.390, 2045.0, 45.2217
35.942676268, 96.390, 1982.0, 44.5197
35.968936833, 96.390, 2009.0, 44.8219
35.995197398, 96.390, 2055.0, 45.3321
36.021457964, 96.390, 1927.0, 43.8976
36.047718529, 96.390, 1971.0, 44.3959
36.073979095, 96.390, 1960.0, 44.2719
36.100239660, 96.390, 1960.0, 44.2719
36.126500225, 96.390, 1891.0, 43.4856
36.152760791, 96.390, 2001.0, 44.7325
36.179021356, 96.390, 1945.0, 44.1022
36.205281921, 96.390, 1886.0, 43.4281
36.231542487, 96.390, 1874.0, 43.2897
36.257803052, 96.390, 1881.0, 43.3705
36.284063617, 96.390, 1891.0, 43.4856
36.310324183, 96.390, 2024.0, 44.9889
36.336584748, 96.390, 1897.0, 43.5546
36.362845313, 96.390, 1919.0, 43.8064
36.389105879, 96.390, 1901.0, 43.6005
36.415366444, 96.390, 1865.0, 43.1856
36.441627010, 96.390, 1914.0, 43.7493
36.467887575, 96.390, 1860.0, 43.1277
36.494148140, 96.390, 1855.0, 43.0697
36.520408706, 96.390, 1922.0, 43.8406
36.546669271, 96.390, 1843.0, 42.9302
36.572929836, 96.390, 1844.0, 42.9418
36.599190402, 96.390, 1820.0, 42.6615
36.625450967, 96.390, 1941.0, 44.0568
36.651711532, 96.390, 1883.0, 43.3935
36.677972098, 96.390, 1893.0, 43.5086
36.704232663, 96.390, 1767.0, 42.0357
36.730493228, 96.390, 1773.0, 42.1070
36.756753794, 96.390, 1824.0, 42.7083
36.783014359, 96.390, 1829.0, 42.7668
36.809274924, 96.390, 1841.0, 42.9069
36.835535490, 96.390, 1766.0, 42.0238
36.861796055, 96.390, 1830.0, 42.7785
36.888056621, 96.390, 1834.0, 42.8252
36.914317186, 96.390, 1748.0, 41.8091
36.940577751, 96.390, 1850.0, 43.0116
36.966838317, 96.390, 1758.0, 41.9285
36.993098882, 96.390, 1794.0, 42.3556
37.019359447, 96.390, 1747.0, 41.7971
37.045620013, 96.390, 1793.0, 42.3438
37.071880578, 96.390, 1831.0, 42.7902
37.098141143, 96.390, 1708.0, 41.3280
37.124401709, 96.390, 1783.0, 42.2256
37.150662274, 96.390, 1838.0, 42.8719
37.176922839, 96.390, 1773.0, 42.1070
37.203183405, 96.390, 1732.0, 41.6173
37.229443970, 96.390, 1733.0, 41.6293
37.255704535, 96.390, 1765.0, 42.0119
37.281965101, 96.390, 1758.0, 41.9285
37.308225666, 96.390, 1802.0, 42.4500
37.334486232, 96.390, 1732.0, 41.6173
37.360746797, 96.390, 1764.0, 42.0000
37.387007362, 96.390, 1717.0, 41.4367
37.413267928, 96.390, 1730.0, 41.5933
37.439528493, 96.390, 1696.0, 41.1825
37.465789058, 96.390, 1678.0, 40.9634
37.492049624, 96.390, 1722.0, 41.4970
37.518310189, 96.390, 1701.0, 41.2432
37.544570754, 96.390, 1760.0, 41.9524
37.570831320, 96.390, 1711.0, 41.3642
37.597091885, 96.390, 1661.0, 40.7554
37.623352450, 96.390, 1675.0, 40.9268
37.649613016, 96.390, 1716.0, 41.4246
37.675873581, 96.390, 1648.0, 40.5956
37.702134147, 96.390, 1607.0, 40.0874
37.728394712, 96.390, 1653.0, 40.6571
37.754655277, 96.390, 1697.0, 41.1947
37.780915843, 96.390, 1718.0, 41.4488
37.807176408, 96.390, 1689.0, 41.0974
37.833436973, 96.390, 1704.0, 41.2795
37.859697539, 96.390, 1668.0, 40.8412
37.885958104, 96.390, 1623.0, 40.2865
37.912218669, 96.390, 1687.0, 41.0731
37.938479235, 96.390, 1720.0, 41.4729
37.964739800, 96.390, 1631.0, 40.3856
37.991000365, 96.390, 1595.0, 39.9375
38.017260931, 96.390, 1698.0, 41.2068
38.043521496, 96.390, 1627.0, 40.3361
38.069782061, 96.390, 1641.0, 40.5093
38.096042627, 96.390, 1613.0, 40.1622
38.122303192, 96.390, 1567.0, 39.5854
38.148563758, 96.390, 1669.0, 40.8534
38.174824323, 96.390, 1654.0, 40.6694
38.201084888, 96.390, 1575.0, 39.6863
38.227345454, 96.390, 1655.0, 40.6817
38.253606019, 96.390, 1634.0, 40.4228
38.279866584, 96.390, 1621.0, 40.2616
38.306127150, 96.390, 1568.0, 39.5980
38.332387715, 96.390, 1641.0, 40.5093
38.358648280, 96.390, 1567.0, 39.5854
38.384908846, 96.390, 1558.0, 39.4715
38.411169411, 96.390, 1547.0, 39.3319
38.437429976, 96.390, 1651.0, 40.6325
38.463690542, 96.390, 1560.0, 39.4968
38.489951107, 96.390, 1613.0, 40.1622
38.516211673, 96.390, 1570.0, 39.6232
38.542472238, 96.390, 1541.0, 39.2556
38.568732803, 96.390, 1593.0, 39.9124
38.594993369, 96.390, 1609.0, 40.1123
38.621253934, 96.390, 1524.0, 39.0384
38.647514499, 96.390, 1518.0, 38.9615
38.673775065, 96.390, 1531.0, 39.1280
38.700035630, 96.390, 1499.0, 38.7169
38.726296195, 96.390, 1585.0, 39.8121
38.752556761, 96.390, 1541.0, 39.2556
38.778817326, 96.390, 1640.0, 40.4969
38.805077891, 96.390, 1570.0, 39.6232
38.831338457, 96.390, 1501.0, 38.7427
38.857599022, 96.390, 1573.0, 39.6611
38.883859587, 96.390, 1460.0, 38.2099
38.910120153, 96.390, 1647.0, 40.5832
38.936380718, 96.390, 1480.0, 38.4708
38.962641284, 96.390, 1608.0, 40.0999
38.988901849, 96.390, 1525.0, 39.0512
39.015162414, 96.390, 1511.0, 38.8716
39.041422980, 96.390, 1487.0, 38.5616
39.067683545, 96.390, 1455.0, 38.1445
39.093944110, 96.390, 1469.0, 38.3275
39.120204676, 96.390, 1422.0, 37.7094
39.146465241, 96.390, 1494.0, 38.6523
39.172725806, 96.390, 1521.0, 39.0000
39.198986372, 96.390, 1400.0, 37.4166
39.225246937, 96.390, 1512.0, 38.8844
39.251507502, 96.390, 1491.0, 38.6135
39.277768068, 96.390, 1474.0, 38.3927
39.304028633, 96.390, 1520.0, 38.9872
39.330289199, 96.390, 1527.0, 39.0768
39.356549764, 96.390, 1514.0, 38.9102
39.382810329, 96.390, 1406.0, 37.4967
39.409070895, 96.390, 1482.0, 38.4968
39.435331460, 96.390, 1516.0, 38.9358
39.461592025, 96.390, 1435.0, 37.8814
39.487852591, 96.390, 1514.0, 38.9102
39.514113156, 96.390, 1429.0, 37.8021
39.540373721, 96.390, 1402.0, 37.4433
39.566634287, 96.390, 1403.0, 37.4566
39.592894852, 96.390, 1481.0, 38.4838
39.619155417, 96.390, 1414.0, 37.6032
39.645415983, 96.390, 1466.0, 38.2884
39.671676548, 96.390, 1367.0, 36.9730
39.697937113, 96.390, 1415.0, 37.6165
39.724197679, 96.390, 1443.0, 37.9868
39.750458244, 96.390, 1401.0, 37.4299
39.776718810, 96.390, 1446.0, 38.0263
39.802979375, 96.390, 1389.0, 37.2693
39.829239940, 96.390, 1422.0, 37.7094
39.855500506, 96.390, 1442.0, 37.9737
39.881761071, 96.390, 1440.0, 37.9473
39.908021636, 96.390, 1431.0, 37.8286
39.934282202, 96.390, 1398.0, 37.3898
39.960542767, 96.390, 1408.0, 37.5233
39.986803332, 96.390, 1405.0, 37.4833
40.013063898, 96.390, 1353.0, 36.7831
40.039324463, 96.390, 1427.0, 37.7757
40.065585028, 96.390, 1388.0, 37.2559
40.091845594, 96.390, 1325.0, 36.4005
40.118106159, 96.390, 1434.0, 37.8682
40.144366725, 96.390, 1535.0, 39.1791
40.170627290, 96.390, 1423.0, 37.7227
40.196887855, 96.390, 1399.0, 37.4032
40.223148421, 96.390, 1385.0, 37.2156
40.249408986, 96.390, 1360.0, 36.8782
40.275669551, 96.390, 1378.0, 37.1214
40.301930117, 96.390, 1422.0, 37.7094
40.328190682, 96.390, 1352.0, 36.7696
40.354451247, 96.390, 1315.0, 36.2629
40.380711813, 96.390, 1368.0, 36.9865
40.406972378, 96.390, 1340.0, 36.6060
40.433232943, 96.390, 1352.0, 36.7696
40.459493509, 96.390, 1368.0, 36.9865
40.485754074, 96.390, 1392.0, 37.3095
40.512014639, 96.390, 1349.0, 36.7287
40.538275205, 96.390, 1369.0, 37.0000
40.564535770, 96.390, 1344.0, 36.6606
40.590796336, 96.390, 1382.0, 37.1753
40.617056901, 96.390, 1370.0, 37.0135
40.643317466, 96.390, 1312.0, 36.2215
40.669578032, 96.390, 1387.0, 37.2424
40.695838597, 96.390, 1341.0, 36.6197
40.722099162, 96.390, 1450.0, 38.0789
40.748359728, 96.390, 1329.0, 36.4555
40.774620293, 96.390, 1401.0, 37.4299
40.800880858, 96.390, 1314.0, 36.2491
40.827141424, 96.390, 1381.0, 37.1618
40.853401989, 96.390, 1373.0, 37.0540
40.879662554, 96.390, 1321.0, 36.3456
40.905923120, 96.390, 1315.0, 36.2629
40.932183685, 96.390, 1337.0, 36.5650
40.958444251, 96.390, 1307.0, 36.1525
40.984704816, 96.390, 1351.0, 36.7560
41.010965381, 96.390, 1300.0, 36.0555
41.037225947, 96.390, 1305.0, 36.1248
41.063486512, 96.390, 1339.0, 36.5923
41.089747077, 96.390, 1347.0, 36.7015
41.116007643, 96.390, 1356.0, 36.8239
41.142268208, 96.390, 1294.0, 35.9722
41.168528773, 96.390, 1362.0, 36.9053
41.194789339, 96.390, 1413.0, 37.5899
41.221049904, 96.390, 1325.0, 36.4005
41.247310469, 96.390, 1312.0, 36.2215
41.273571035, 96.390, 1326.0, 36.4143
41.299831600, 96.390, 1292.0, 35.9444
41.326092165, 96.390, 1316.0, 36.2767
41.352352731, 96.390, 1331.0, 36.4829
41.378613296, 96.390, 1284.0, 35.8329
41.404873862, 96.390, 1340.0, 36.6060
41.431134427, 96.390, 1268.0, 35.6090
41.457394992, 96.390, 1291.0, 35.9305
41.483655558, 96.390, 1357.0, 36.8375
41.509916123, 96.390, 1294.0, 35.9722
41.536176688, 96.390, 1315.0, 36.2629
41.562437254, 96.390, 1277.0, 35.7351
41.588697819, 96.390, 1317.0, 36.2905
41.614958384, 96.390, 1335.0, 36.5377
41.641218950, 96.390, 1325.0, 36.4005
41.667479515, 96.390, 1240.0, 35.2136
41.693740080, 96.390, 1319.0, 36.3180
41.720000646, 96.390, 1306.0, 36.1386
41.746261211, 96.390, 1340.0, 36.6060
41.772521776, 96.390, 1261.0, 35.5106
41.798782342, 96.390, 1294.0, 35.9722
41.825042907, 96.390, 1276.0, 35.7211
41.851303473, 96.390, 1325.0, 36.4005
41.877564038, 96.390, 1311.0, 36.2077
41.903824603, 96.390, 1276.0, 35.7211
41.930085169, 96.390, 1348.0, 36.7151
41.956345734, 96.390, 1339.0, 36.5923
41.982606299, 96.390, 1329.0, 36.4555
42.008866865, 96.390, 1323.0, 36.3731
42.035127430, 96.390, 1348.0, 36.7151
42.061387995, 96.390, 1317.0, 36.2905
42.087648561, 96.390, 1290.0, 35.9166
42.113909126, 96.390, 1303.0, 36.0971
42.140169691, 96.390, 1329.0, 36.4555
42.166430257, 96.390, 1308.0, 36.1663
42.192690822, 96.390, 1245.0, 35.2846
42.218951388, 96.390, 1316.0, 36.2767
42.245211953, 96.390, 1309.0, 36.1801
42.271472518, 96.390, 1256.0, 35.4401
42.297733084, 96.390, 1330.0, 36.4692
42.323993649, 96.390, 1349.0, 36.7287
42.350254214, 96.390, 1298.0, 36.0278
42.376514780, 96.390, 1242.0, 35.2420
42.402775345, 96.390, 1221.0, 34.9428
42.429035910, 96.390, 1319.0, 36.3180
42.455296476, 96.390, 1352.0, 36.7696
42.481557041, 96.390, 1255.0, 35.4260
42.507817606, 96.390, 1280.0, 35.7771
42.534078172, 96.390, 1256.0, 35.4401
42.560338737, 96.390, 1285.0, 35.8469
42.586599302, 96.390, 1341.0, 36.6197
42.612859868, 96.390, 1309.0, 36.1801
42.639120433, 96.390, 1247.0, 35.3129
42.665380999, 96.390, 1327.0, 36.4280
42.691641564, 96.390, 1284.0, 35.8329
42.717902129, 96.390, 1292.0, 35.9444
42.744162695, 96.390, 1327.0, 36.4280
42.770423260, 96.390, 1277.0, 35.7351
42.796683825, 96.390, 1348.0, 36.7151
42.822944391, 96.390, 1276.0, 35.7211
42.849204956, 96.390, 1206.0, 34.7275
42.875465521, 96.390, 1336.0, 36.5513
42.901726087, 96.390, 1320.0, 36.3318
42.927986652, 96.390, 1274.0, 35.6931
42.954247217, 96.390, 1299.0, 36.0416
42.980507783, 96.390, 1295.0, 35.9861
43.006768348, 96.390, 1234.0, 35.1283
43.033028914, 96.390, 1222.0, 34.9571
43.059289479, 96.390, 1271.0, 35.6511
43.085550044, 96.390, 1293.0, 35.9583
43.111810610, 96.390, 1293.0, 35.9583
43.138071175, 96.390, 1275.0, 35.7071
43.164331740, 96.390, 1222.0, 34.9571
43.190592306, 96.390, 1259.0, 35.4824
43.216852871, 96.390, 1239.0, 35.1994
43.243113436, 96.390, 1260.0, 35.4965
43.269374002, 96.390, 1253.0, 35.3977
43.295634567, 96.390, 1252.0, 35.3836
43.321895132, 96.390, 1302.0, 36.0832
43.348155698, 96.390, 1250.0, 35.3553
43.374416263, 96.390, 1269.0, 35.6230
43.400676828, 96.390, 1268.0, 35.6090
43.426937394, 96.390, 1338.0, 36.5787
43.453197959, 96.390, 1216.0, 34.8712
43.479458525, 96.390, 1273.0, 35.6791
43.505719090, 96.390, 1273.0, 35.6791
43.531979655, 96.390, 1311.0, 36.2077
43.558240221, 96.390, 1283.0, 35.8190
43.584500786, 96.390, 1239.0, 35.1994
43.610761351, 96.390, 1245.0, 35.2846
43.637021917, 96.390, 1271.0, 35.6511
43.663282482, 96.390, 1284.0, 35.8329
43.689543047, 96.390, 1306.0, 36.1386
43.715803613, 96.390, 1266.0, 35.5809
43.742064178, 96.390, 1322.0, 36.3593
43.768324743, 96.390, 1240.0, 35.2136
43.794585309, 96.390, 1290.0, 35.9166
43.820845874, 96.390, 1317.0, 36.2905
43.847106440, 96.390, 1235.0, 35.1426
43.873367005, 96.390, 1289.0, 35.9026
43.899627570, 96.390, 1283.0, 35.8190
43.925888136, 96.390, 1303.0, 36.0971
43.952148701, 96.390, 1319.0, 36.3180
43.978409266, 96.390, 1369.0, 37.0000
44.004669832, 96.390, 1318.0, 36.3043
44.030930397, 96.390, 1299.0, 36.0416
44.057190962, 96.390, 1290.0, 35.9166
44.083451528, 96.390, 1298.0, 36.0278
44.109712093, 96.390, 1359.0, 36.8646
44.135972658, 96.390, 1361.0, 36.8917
44.162233224, 96.390, 1278.0, 35.7491
44.188493789, 96.390, 1279.0, 35.7631
44.214754354, 96.390, 1335.0, 36.5377
44.241014920, 96.390, 1339.0, 36.5923
44.267275485, 96.390, 1288.0, 35.8887
44.293536051, 96.390, 1299.0, 36.0416
44.319796616, 96.390, 1271.0, 35.6511
44.346057181, 96.390, 1311.0, 36.2077
44.372317747, 96.390, 1280.0, 35.7771
44.398578312, 96.390, 1279.0, 35.7631
44.424838877, 96.390, 1340.0, 36.6060
44.451099443, 96.390, 1211.0, 34.7994
44.477360008, 96.390, 1219.0, 34.9142
44.503620573, 96.390, 1276.0, 35.7211
44.529881139, 96.390, 1334.0, 36.5240
44.556141704, 96.390, 1287.0, 35.8748
44.582402269, 96.390, 1319.0, 36.3180
44.608662835, 96.390, 1381.0, 37.1618
44.634923400, 96.390, 1308.0, 36.1663
44.661183966, 96.390, 1297.0, 36.0139
44.687444531, 96.390, 1289.0, 35.9026
44.713705096, 96.390, 1317.0, 36.2905
44.739965662, 96.390, 1330.0, 36.4692
44.766226227, 96.390, 1296.0, 36.0000
44.792486792, 96.390, 1339.0, 36.5923
44.818747358, 96.390, 1299.0, 36.0416
44.845007923, 96.390, 1288.0, 35.8887
44.871268488, 96.390, 1299.0, 36.0416
44.897529054, 96.390, 1207.0, 34.7419
44.923789619, 96.390, 1243.0, 35.2562
44.950050184, 96.390, 1277.0, 35.7351
44.976310750, 96.390, 1296.0, 36.0000
45.002571315, 96.390, 1295.0, 35.9861
45.028831880, 96.390, 1293.0, 35.9583
45.055092446, 96.390, 1275.0, 35.7071
45.081353011, 96.390, 1289.0, 35.9026
45.107613577, 96.390, 1367.0, 36.9730
45.133874142, 96.390, 1330.0, 36.4692
45.160134707, 96.390, 1305.0, 36.1248
45.186395273, 96.390, 1306.0, 36.1386
45.212655838, 96.390, 1257.0, 35.4542
45.238916403, 96.390, 1313.0, 36.2353
45.265176969, 96.390, 1230.0, 35.0714
45.291437534, 96.390, 1322.0, 36.3593
45.317698099, 96.390, 1280.0, 35.7771
45.343958665, 96.390, 1256.0, 35.4401
45.370219230, 96.390, 1243.0, 35.2562
45.396479795, 96.390, 1261.0, 35.5106
45.422740361, 96.390, 1290.0, 35.9166
45.449000926, 96.390, 1305.0, 36.1248
45.475261492, 96.390, 1316.0, 36.2767
45.501522057, 96.390, 1263.0, 35.5387
45.527782622, 96.390, 1226.0, 35.0143
45.554043188, 96.390, 1238.0, 35.1852
45.580303753, 96.390, 1289.0, 35.9026
45.606564318, 96.390, 1275.0, 35.7071
45.632824884, 96.390, 1274.0, 35.6931
45.659085449, 96.390, 1293.0, 35.9583
45.685346014, 96.390, 1290.0, 35.9166
45.711606580, 96.390, 1304.0, 36.1109
45.737867145, 96.390, 1291.0, 35.9305
45.764127710, 96.390, 1215.0, 34.8569
45.790388276, 96.390, 1247.0, 35.3129
45.816648841, 96.390, 1307.0, 36.1525
45.842909406, 96.390, 1228.0, 35.0428
45.869169972, 96.390, 1287.0, 35.8748
45.895430537, 96.390, 1215.0, 34.8569
45.921691103, 96.390, 1244.0, 35.2704
45.947951668, 96.390, 1283.0, 35.8190
45.974212233, 96.390, 1323.0, 36.3731
46.000472799, 96.390, 1268.0, 35.6090
46.026733364, 96.390, 1255.0, 35.4260
46.052993929, 96.390, 1269.0, 35.6230
46.079254495, 96.390, 1270.0, 35.6371
46.105515060, 96.390, 1320.0, 36.3318
46.131775625, 96.390, 1229.0, 35.0571
46.158036191, 96.390, 1305.0, 36.1248
46.184296756, 96.390, 1326.0, 36.4143
46.210557321, 96.390, 1283.0, 35.8190
46.236817887, 96.390, 1225.0, 35.0000
46.263078452, 96.390, 1257.0, 35.4542
46.289339017, 96.390, 1239.0, 35.1994
46.315599583, 96.390, 1253.0, 35.3977
46.341860148, 96.390, 1271.0, 35.6511
46.368120714, 96.390, 1226.0, 35.0143
46.394381279, 96.390, 1295.0, 35.9861
46.420641844, 96.390, 1265.0, 35.5668
46.446902410, 96.390, 1250.0, 35.3553
46.473162975, 96.390, 1258.0, 35.4683
46.499423540, 96.390, 1303.0, 36.0971
46.525684106, 96.390, 1249.0, 35.3412
46.551944671, 96.390, 1333.0, 36.5103
46.578205236, 96.390, 1352.0, 36.7696
46.604465802, 96.390, 1227.0, 35.0286
46.630726367, 96.390, 1298.0, 36.0278
46.656986932, 96.390, 1245.0, 35.2846
46.683247498, 96.390, 1258.0, 35.4683
46.709508063, 96.390, 1268.0, 35.6090
46.735768629, 96.390, 1226.0, 35.0143
46.762029194, 96.390, 1259.0, 35.4824
46.788289759, 96.390, 1288.0, 35.8887
46.814550325, 96.390, 1313.0, 36.2353
46.840810890, 96.390, 1145.0, 33.8378
46.867071455, 96.390, 1273.0, 35.6791
46.893332021, 96.390, 1271.0, 35.6511
46.919592586, 96.390, 1265.0, 35.5668
46.945853151, 96.390, 1229.0, 35.0571
46.972113717, 96.390, 1308.0, 36.1663
46.998374282, 96.390, 1233.0, 35.1141
47.024634847, 96.390, 1210.0, 34.7851
47.050895413, 96.390, 1241.0, 35.2278
47.077155978, 96.390, 1162.0, 34.0881
47.103416543, 96.390, 1187.0, 34.4529
47.129677109, 96.390, 1271.0, 35.6511
47.155937674, 96.390, 1280.0, 35.7771
47.182198240, 96.390, 1235.0, 35.1426
47.208458805, 96.390, 1254.0, 35.4119
47.234719370, 96.390, 1256.0, 35.4401
47.260979936, 96.390, 1216.0, 34.8712
47.287240501, 96.390, 1208.0, 34.7563
47.313501066, 96.390, 1181.0, 34.3657
47.339761632, 96.390, 1232.0, 35.0999
47.366022197, 96.390, 1206.0, 34.7275
47.392282762, 96.390, 1201.0, 34.6554
47.418543328, 96.390, 1220.0, 34.9285
47.444803893, 96.390, 1233.0, 35.1141
47.471064458, 96.390, 1163.0, 34.1028
47.497325024, 96.390, 1140.0, 33.7639
47.523585589, 96.390, 1239.0, 35.1994
47.549846155, 96.390, 1196.0, 34.5832
47.576106720, 96.390, 1152.0, 33.9411
47.602367285, 96.390, 1138.0, 33.7343
47.628627851, 96.390, 1234.0, 35.1283
47.654888416, 96.390, 1237.0, 35.1710
47.681148981, 96.390, 1184.0, 34.4093
47.707409547, 96.390, 1169.0, 34.1906
47.733670112, 96.390, 1211.0, 34.7994
47.759930677, 96.390, 1227.0, 35.0286
47.786191243, 96.390, 1220.0, 34.9285
47.812451808, 96.390, 1288.0, 35.8887
47.838712373, 96.390, 1148.0, 33.8821
47.864972939, 96.390, 1204.0, 34.6987
47.891233504, 96.390, 1178.0, 34.3220
47.917494069, 96.390, 1286.0, 35.8608
47.943754635, 96.390, 1210.0, 34.7851
47.970015200, 96.390, 1169.0, 34.1906
47.996275766, 96.390, 1195.0, 34.5688
48.022536331, 96.390, 1191.0, 34.5109
48.048796896, 96.390, 1208.0, 34.7563
48.075057462, 96.390, 1132.0, 33.6452
48.101318027, 96.390, 1151.0, 33.9264
48.127578592, 96.390, 1247.0, 35.3129
48.153839158, 96.390, 1184.0, 34.4093
48.180099723, 96.390, 1156.0, 34.0000
48.206360288, 96.390, 1144.0, 33.8231
48.232620854, 96.390, 1216.0, 34.8712
48.258881419, 96.390, 1152.0, 33.9411
48.285141984, 96.390, 1146.0, 33.8526
48.311402550, 96.390, 1081.0, 32.8786
48.337663115, 96.390, 1140.0, 33.7639
48.363923681, 96.390, 1149.0, 33.8969
48.390184246, 96.390, 1202.0, 34.6699
48.416444811, 96.390, 1135.0, 33.6898
48.442705377, 96.390, 1218.0, 34.8999
48.468965942, 96.390, 1153.0, 33.9559
48.495226507, 96.390, 1214.0, 34.8425
48.521487073, 96.390, 1194.0, 34.5543
48.547747638, 96.390, 1148.0, 33.8821
48.574008203, 96.390, 1157.0, 34.0147
48.600268769, 96.390, 1146.0, 33.8526
48.626529334, 96.390, 1154.0, 33.9706
48.652789899, 96.390, 1103.0, 33.2114
48.679050465, 96.390, 1119.0, 33.4515
48.705311030, 96.390, 1193.0, 34.5398
48.731571595, 96.390, 1123.0, 33.5112
48.757832161, 96.390, 1120.0, 33.4664
48.784092726, 96.390, 1150.0, 33.9116
48.810353292, 96.390, 1198.0, 34.6121
48.836613857, 96.390, 1153.0, 33.9559
48.862874422, 96.390, 1156.0, 34.0000
48.889134988, 96.390, 1143.0, 33.8083
48.915395553, 96.390, 1176.0, 34.2929
48.941656118, 96.390, 1153.0, 33.9559
48.967916684, 96.390, 1057.0, 32.5115
48.994177249, 96.390, 1185.0, 34.4238
49.020437814, 96.390, 1176.0, 34.2929
49.046698380, 96.390, 1108.0, 33.2866
49.072958945, 96.390, 1130.0, 33.6155
49.099219510, 96.390, 1115.0, 33.3916
49.125480076, 96.390, 1124.0, 33.5261
49.151740641, 96.390, 1176.0, 34.2929
49.178001207, 96.390, 1116.0, 33.4066
49.204261772, 96.390, 1085.0, 32.9393
49.230522337, 96.390, 1141.0, 33.7787
49.256782903, 96.390, 1147.0, 33.8674
49.283043468, 96.390, 1167.0, 34.1614
49.309304033, 96.390, 1174.0, 34.2637
49.335564599, 96.390, 1127.0, 33.5708
49.361825164, 96.390, 1100.0, 33.1662
49.388085729, 96.390, 1176.0, 34.2929
49.414346295, 96.390, 1140.0, 33.7639
49.440606860, 96.390, 1110.0, 33.3167
49.466867425, 96.390, 1168.0, 34.1760
49.493127991, 96.390, 1180.0, 34.3511
49.519388556, 96.390, 1138.0, 33.7343
49.545649121, 96.390, 1045.0, 32.3265
49.571909687, 96.390, 1136.0, 33.7046
49.598170252, 96.390, 1108.0, 33.2866
49.624430818, 96.390, 1088.0, 32.9848
49.650691383, 96.390, 1132.0, 33.6452
49.676951948, 96.390, 1047.0, 32.3574
49.703212514, 96.390, 1086.0, 32.9545
49.729473079, 96.390, 1090.0, 33.0151
49.755733644, 96.390, 1118.0, 33.4365
49.781994210, 96.390, 1119.0, 33.4515
49.808254775, 96.390, 1094.0, 33.0757
49.834515340, 96.390, 1064.0, 32.6190
49.860775906, 96.390, 1034.0, 32.1559
49.887036471, 96.390, 1088.0, 32.9848
49.913297036, 96.390, 1100.0, 33.1662
49.939557602, 96.390, 1154.0, 33.9706
49.965818167, 96.390, 1080.0, 32.8634
49.992078732, 96.390, 1094.0, 33.0757
50.018339298, 96.390, 1100.0, 33.1662
50.044599863, 96.390, 1041.0, 32.2645
50.070860429, 96.390, 1093.0, 33.0606
50.097120994, 96.390, 1141.0, 33.7787
50.123381559, 96.390, 1052.0, 32.4345
50.149642125, 96.390, 1107.0, 33.2716
50.175902690, 96.390, 1065.0, 32.6343
50.202163255, 96.390, 1090.0, 33.0151
50.228423821, 96.390, 1082.0, 32.8938
50.254684386, 96.390, 1150.0, 33.9116
50.280944951, 96.390, 1095.0, 33.0908
50.307205517, 96.390, 1067.0, 32.6650
50.333466082, 96.390, 1099.0, 33.1512
50.359726647, 96.390, 1065.0, 32.6343
50.385987213, 96.390, 1130.0, 33.6155
50.412247778, 96.390, 1079.0, 32.8481
50.438508344, 96.390, 1089.0, 33.0000
50.464768909, 96.390, 1092.0, 33.0454
50.491029474, 96.390, 1089.0, 33.0000
50.517290040, 96.390, 1013.0, 31.8277
50.543550605, 96.390, 1046.0, 32.3419
50.569811170, 96.390, 1020.0, 31.9374
50.596071736, 96.390, 1094.0, 33.0757
50.622332301, 96.390, 1015.0, 31.8591
50.648592866, 96.390, 1025.0, 32.0156
50.674853432, 96.390, 1070.0, 32.7109
50.701113997, 96.390, 1063.0, 32.6037
50.727374562, 96.390, 1051.0, 32.4191
50.753635128, 96.390, 1020.0, 31.9374
50.779895693, 96.390, 1007.0, 31.7333
50.806156258, 96.390, 1082.0, 32.8938
50.832416824, 96.390, 1022.0, 31.9687
50.858677389, 96.390, 1054.0, 32.4654
50.884937955, 96.390, 999.0, 31.6070
50.911198520, 96.390, 1102.0, 33.1964
50.937459085, 96.390, 1046.0, 32.3419
50.963719651, 96.390, 1043.0, 32.2955
50.989980216, 96.390, 1007.0, 31.7333
51.016240781, 96.390, 1040.0, 32.2490
51.042501347, 96.390, 1113.0, 33.3617
51.068761912, 96.390, 1042.0, 32.2800
51.095022477, 96.390, 1063.0, 32.6037
51.121283043, 96.390, 1043.0, 32.2955
51.147543608, 96.390, 987.0, 31.4166
51.173804173, 96.390, 1043.0, 32.2955
51.200064739, 96.390, 1021.0, 31.9531
51.226325304, 96.390, 1032.0, 32.1248
51.252585870, 96.390, 1051.0, 32.4191
51.278846435, 96.390, 974.0, 31.2090
51.305107000, 96.390, 1034.0, 32.1559
51.331367566, 96.390, 989.0, 31.4484
51.357628131, 96.390, 1019.0, 31.9218
51.383888696, 96.390, 1030.0, 32.0936
51.410149262, 96.390, 1041.0, 32.2645
51.436409827, 96.390, 982.0, 31.3369
51.462670392, 96.390, 1004.0, 31.6860
51.488930958, 96.390, 1073.0, 32.7567
51.515191523, 96.390, 976.0, 31.2410
51.541452088, 96.390, 1021.0, 31.9531
51.567712654, 96.390, 989.0, 31.4484
51.593973219, 96.390, 1040.0, 32.2490
51.620233784, 96.390, 971.0, 31.1609
51.646494350, 96.390, 1036.0, 32.1870
51.672754915, 96.390, 1043.0, 32.2955
51.699015481, 96.390, 1032.0, 32.1248
51.725276046, 96.390, 1026.0, 32.0312
51.751536611, 96.390, 1043.0, 32.2955
51.777797177, 96.390, 990.0, 31.4643
51.804057742, 96.390, 1070.0, 32.7109
51.830318307, 96.390, 974.0, 31.2090
51.856578873, 96.390, 983.0, 31.3528
51.882839438, 96.390, 1066.0, 32.6497
51.909100003, 96.390, 970.0, 31.1448
51.935360569, 96.390, 984.0, 31.3688
51.961621134, 96.390, 995.0, 31.5436
51.987881699, 96.390, 992.0, 31.4960
52.014142265, 96.390, 993.0, 31.5119
52.040402830, 96.390, 977.0, 31.2570
52.066663396, 96.390, 995.0, 31.5436
52.092923961, 96.390, 986.0, 31.4006
52.119184526, 96.390, 986.0, 31.4006
52.145445092, 96.390, 975.0, 31.2250
52.171705657, 96.390, 988.0, 31.4325
52.197966222, 96.390, 1030.0, 32.0936
52.224226788, 96.390, 1032.0, 32.1248
52.250487353, 96.390, 985.0, 31.3847
52.276747918, 96.390, 1040.0, 32.2490
52.303008484, 96.390, 1009.0, 31.7648
52.329269049, 96.390, 1093.0, 33.0606
52.355529614, 96.390, 973.0, 31.1929
52.381790180, 96.390, 1028.0, 32.0624
52.408050745, 96.390, 1008.0, 31.7490
52.434311310, 96.390, 969.0, 31.1288
52.460571876, 96.390, 997.0, 31.5753
52.486832441, 96.390, 1015.0, 31.8591
52.513093007, 96.390, 953.0, 30.8707
52.539353572, 96.390, 951.0, 30.8383
52.565614137, 96.390, 1022.0, 31.9687
52.591874703, 96.390, 1047.0, 32.3574
52.618135268, 96.390, 969.0, 31.1288
52.644395833, 96.390, 995.0, 31.5436
52.670656399, 96.390, 1047.0, 32.3574
52.696916964, 96.390, 1008.0, 31.7490
52.723177529, 96.390, 980.0, 31.3050
52.749438095, 96.390, 978.0, 31.2730
52.775698660, 96.390, 979.0, 31.2890
52.801959225, 96.390, 1010.0, 31.7805
52.828219791, 96.390, 941.0, 30.6757
52.854480356, 96.390, 1019.0, 31.9218
52.880740922, 96.390, 963.0, 31.0322
52.907001487, 96.390, 953.0, 30.8707
52.933262052, 96.390, 1020.0, 31.9374
52.959522618, 96.390, 978.0, 31.2730
52.985783183, 96.390, 1015.0, 31.8591
53.012043748, 96.390, 1008.0, 31.7490
53.038304314, 96.390, 958.0, 30.9516
53.064564879, 96.390, 961.0, 31.0000
53.090825444, 96.390, 975.0, 31.2250
53.117086010, 96.390, 1014.0, 31.8434
53.143346575, 96.390, 1014.0, 31.8434
53.169607140, 96.390, 922.0, 30.3645
53.195867706, 96.390, 1011.0, 31.7962
53.222128271, 96.390, 955.0, 30.9031
53.248388836, 96.390, 926.0, 30.4302
53.274649402, 96.390, 978.0, 31.2730
53.300909967, 96.390, 968.0, 31.1127
53.327170533, 96.390, 943.0, 30.7083
53.353431098, 96.390, 1004.0, 31.6860
53.379691663, 96.390, 959.0, 30.9677
53.405952229, 96.390, 998.0, 31.5911
53.432212794, 96.390, 878.0, 29.6311
53.458473359, 96.390, 938.0, 30.6268
53.484733925, 96.390, 963.0, 31.0322
53.510994490, 96.390, 1044.0, 32.3110
53.537255055, 96.390, 935.0, 30.5778
53.563515621, 96.390, 918.0, 30.2985
53.589776186, 96.390, 914.0, 30.2324
53.616036751, 96.390, 961.0, 31.0000
53.642297317, 96.390, 946.0, 30.7571
53.668557882, 96.390, 980.0, 31.3050
53.694818448, 96.390, 940.0, 30.6594
53.721079013, 96.390, 989.0, 31.4484
53.747339578, 96.390, 951.0, 30.8383
53.773600144, 96.390, 972.0, 31.1769
53.799860709, 96.390, 962.0, 31.0161
53.826121274, 96.390, 908.0, 30.1330
53.852381840, 96.390, 997.0, 31.5753
53.878642405, 96.390, 937.0, 30.6105
53.904902970, 96.390, 965.0, 31.0644
53.931163536, 96.390, 899.0, 29.9833
53.957424101, 96.390, 1002.0, 31.6544
53.983684666, 96.390, 980.0, 31.3050
54.009945232, 96.390, 1064.0, 32.6190
54.036205797, 96.390, 964.0, 31.0483
54.062466362, 96.390, 915.0, 30.2490
54.088726928, 96.390, 981.0, 31.3209
54.114987493, 96.390, 953.0, 30.8707
54.141248059, 96.390, 955.0, 30.9031
54.167508624, 96.390, 939.0, 30.6431
54.193769189, 96.390, 934.0, 30.5614
54.220029755, 96.390, 936.0, 30.5941
54.246290320, 96.390, 998.0, 31.5911
54.272550885, 96.390, 958.0, 30.9516
54.298811451, 96.390, 912.0, 30.1993
54.325072016, 96.390, 957.0, 30.9354
54.351332581, 96.390, 901.0, 30.0167
54.377593147, 96.390, 970.0, 31.1448
54.403853712, 96.390, 939.0, 30.6431
54.430114277, 96.390, 913.0, 30.2159
54.456374843, 96.390, 951.0, 30.8383
54.482635408, 96.390, 957.0, 30.9354
54.508895973, 96.390, 943.0, 30.7083
54.535156539, 96.390, 938.0, 30.6268
54.561417104, 96.390, 914.0, 30.2324
54.587677670, 96.390, 927.0, 30.4467
54.613938235, 96.390, 947.0, 30.7734
54.640198800, 96.390, 884.0, 29.7321
54.666459366, 96.390, 877.0, 29.6142
54.692719931, 96.390, 954.0, 30.8869
54.718980496, 96.390, 925.0, 30.4138
54.745241062, 96.390, 902.0, 30.0333
54.771501627, 96.390, 913.0, 30.2159
54.797762192, 96.390, 959.0, 30.9677
54.824022758, 96.390, 903.0, 30.0500
54.850283323, 96.390, 955.0, 30.9031
54.876543888, 96.390, 886.0, 29.7658
54.902804454, 96.390, 982.0, 31.3369
54.929065019, 96.390, 908.0, 30.1330
54.955325585, 96.390, 1026.0, 32.0312
54.981586150, 96.390, 953.0, 30.8707
55.007846715, 96.390, 914.0, 30.2324
55.034107281, 96.390, 907.0, 30.1164
55.060367846, 96.390, 939.0, 30.6431
55.086628411, 96.390, 934.0, 30.5614
55.112888977, 96.390, 939.0, 30.6431
55.139149542, 96.390, 967.0, 31.0966
55.165410107, 96.390, 988.0, 31.4325
55.191670673, 96.390, 943.0, 30.7083
55.217931238, 96.390, 961.0, 31.0000
55.244191803, 96.390, 937.0, 30.6105
55.270452369, 96.390, 977.0, 31.2570
55.296712934, 96.390, 942.0, 30.6920
55.322973499, 96.390, 907.0, 30.1164
55.349234065, 96.390, 839.0, 28.9655
55.375494630, 96.390, 929.0, 30.4795
55.401755196, 96.390, 896.0, 29.9333
55.428015761, 96.390, 886.0, 29.7658
55.454276326, 96.390, 936.0, 30.5941
55.480536892, 96.390, 935.0, 30.5778
55.506797457, 96.390, 906.0, 30.0998
55.533058022, 96.390, 883.0, 29.7153
55.559318588, 96.390, 955.0, 30.9031
55.585579153, 96.390, 944.0, 30.7246
55.611839718, 96.390, 881.0, 29.6816
55.638100284, 96.390, 984.0, 31.3688
55.664360849, 96.390, 943.0, 30.7083
55.690621414, 96.390, 932.0, 30.5287
55.716881980, 96.390, 936.0, 30.5941
55.743142545, 96.390, 916.0, 30.2655
55.769403111, 96.390, 923.0, 30.3809
55.795663676, 96.390, 949.0, 30.8058
55.821924241, 96.390, 921.0, 30.3480
55.848184807, 96.390, 968.0, 31.1127
55.874445372, 96.390, 849.0, 29.1376
55.900705937, 96.390, 946.0, 30.7571
55.926966503, 96.390, 907.0, 30.1164
55.953227068, 96.390, 916.0, 30.2655
55.979487633, 96.390, 989.0, 31.4484
56.005748199, 96.390, 954.0, 30.8869
56.032008764, 96.390, 894.0, 29.8998
56.058269329, 96.390, 918.0, 30.2985
56.084529895, 96.390, 831.0, 28.8271
56.110790460, 96.390, 894.0, 29.8998
56.137051025, 96.390, 858.0, 29.2916
56.163311591, 96.390, 953.0, 30.8707
56.189572156, 96.390, 926.0, 30.4302
56.215832722, 96.390, 912.0, 30.1993
56.242093287, 96.390, 869.0, 29.4788
56.268353852, 96.390, 886.0, 29.7658
56.294614418, 96.390, 875.0, 29.5804
56.320874983, 96.390, 856.0, 29.2575
56.347135548, 96.390, 939.0, 30.6431
56.373396114, 96.390, 901.0, 30.0167
56.399656679, 96.390, 917.0, 30.2820
56.425917244, 96.390, 933.0, 30.5450
56.452177810, 96.390, 872.0, 29.5296
56.478438375, 96.390, 896.0, 29.9333
56.504698940, 96.390, 888.0, 29.7993
56.530959506, 96.390, 900.0, 30.0000
56.557220071, 96.390, 908.0, 30.1330
56.583480637, 96.390, 933.0, 30.5450
56.609741202, 96.390, 910.0, 30.1662
56.636001767, 96.390, 938.0, 30.6268
56.662262333, 96.390, 861.0, 29.3428
56.688522898, 96.390, 867.0, 29.4449
56.714783463, 96.390, 838.0, 28.9482
56.741044029, 96.390, 882.0, 29.6985
56.767304594, 96.390, 880.0, 29.6648
56.793565159, 96.390, 930.0, 30.4959
56.819825725, 96.390, 839.0, 28.9655
56.846086290, 96.390, 965.0, 31.0644
56.872346855, 96.390, 880.0, 29.6648
56.898607421, 96.390, 916.0, 30.2655
56.924867986, 96.390, 928.0, 30.4631
56.951128551, 96.390, 867.0, 29.4449
56.977389117, 96.390, 869.0, 29.4788
57.003649682, 96.390, 882.0, 29.6985
57.029910248, 96.390, 930.0, 30.4959
57.056170813, 96.390, 897.0, 29.9500
57.082431378, 96.390, 856.0, 29.2575
57.108691944, 96.390, 889.0, 29.8161
57.134952509, 96.390, 911.0, 30.1828
57.161213074, 96.390, 906.0, 30.0998
57.187473640, 96.390, 898.0, 29.9666
57.213734205, 96.390, 910.0, 30.1662
57.239994770, 96.390, 915.0, 30.2490
57.266255336, 96.390, 949.0, 30.8058
57.292515901, 96.390, 892.0, 29.8664
57.318776466, 96.390, 894.0, 29.8998
57.345037032, 96.390, 872.0, 29.5296
57.371297597, 96.390, 891.0, 29.8496
57.397558163, 96.390, 919.0, 30.3150
57.423818728, 96.390, 877.0, 29.6142
57.450079293, 96.390, 880.0, 29.6648
57.476339859, 96.390, 888.0, 29.7993
57.502600424, 96.390, 958.0, 30.9516
57.528860989, 96.390, 913.0, 30.2159
57.555121555, 96.390, 898.0, 29.9666
57.581382120, 96.390, 882.0, 29.6985
57.607642685, 96.390, 883.0, 29.7153
57.633903251, 96.390, 890.0, 29.8329
57.660163816, 96.390, 915.0, 30.2490
57.686424381, 96.390, 817.0, 28.5832
57.712684947, 96.390, 963.0, 31.0322
57.738945512, 96.390, 883.0, 29.7153
57.765206077, 96.390, 939.0, 30.6431
57.791466643, 96.390, 915.0, 30.2490
57.817727208, 96.390, 870.0, 29.4958
57.843987774, 96.390, 897.0, 29.9500
57.870248339, 96.390, 884.0, 29.7321
57.896508904, 96.390, 896.0, 29.9333
57.922769470, 96.390, 900.0, 30.0000
57.949030035, 96.390, 901.0, 30.0167
57.975290600, 96.390, 895.0, 29.9166
58.001551166, 96.390, 866.0, 29.4279
58.027811731, 96.390, 894.0, 29.8998
58.054072296, 96.390, 904.0, 30.0666
58.080332862, 96.390, 949.0, 30.8058
58.106593427, 96.390, 900.0, 30.0000
58.132853992, 96.390, 862.0, 29.3598
58.159114558, 96.390, 818.0, 28.6007
58.185375123, 96.390, 888.0, 29.7993
58.211635689, 96.390, 934.0, 30.5614
58.237896254, 96.390, 906.0, 30.0998
58.264156819, 96.390, 877.0, 29.6142
58.290417385, 96.390, 859.0, 29.3087
58.316677950, 96.390, 918.0, 30.2985
58.342938515, 96.390, 909.0, 30.1496
58.369199081, 96.390, 869.0, 29.4788
58.395459646, 96.390, 835.0, 28.8964
58.421720211, 96.390, 887.0, 29.7825
58.447980777, 96.390, 879.0, 29.6479
58.474241342, 96.390, 912.0, 30.1993
58.500501907, 96.390, 821.0, 28.6531
58.526762473, 96.390, 859.0, 29.3087
58.553023038, 96.390, 908.0, 30.1330
58.579283603, 96.390, 828.0, 28.7750
58.605544169, 96.390, 885.0, 29.7489
58.631804734, 96.390, 863.0, 29.3769
58.658065300, 96.390, 951.0, 30.8383
58.684325865, 96.390, 858.0, 29.2916
58.710586430, 96.390, 898.0, 29.9666
58.736846996, 96.390, 884.0, 29.7321
58.763107561, 96.390, 815.0, 28.5482
58.789368126, 96.390, 873.0, 29.5466
58.815628692, 96.390, 901.0, 30.0167
58.841889257, 96.390, 913.0, 30.2159
58.868149822, 96.390, 940.0, 30.6594
58.894410388, 96.390, 912.0, 30.1993
58.920670953, 96.390, 889.0, 29.8161
58.946931518, 96.390, 958.0, 30.9516
58.973192084, 96.390, 876.0, 29.5973
58.999452649, 96.390, 977.0, 31.2570
59.025713214, 96.390, 919.0, 30.3150
59.051973780, 96.390, 910.0, 30.1662
59.078234345, 96.390, 938.0, 30.6268
59.104494911, 96.390, 944.0, 30.7246
59.130755476, 96.390, 966.0, 31.0805
59.157016041, 96.390, 879.0, 29.6479
59.183276607, 96.390, 886.0, 29.7658
59.209537172, 96.390, 887.0, 29.7825
59.235797737, 96.390, 884.0, 29.7321
59.262058303, 96.390, 889.0, 29.8161
59.288318868, 96.390, 912.0, 30.1993
59.314579433, 96.390, 894.0, 29.8998
59.340839999, 96.390, 926.0, 30.4302
59.367100564, 96.390, 911.0, 30.1828
59.393361129, 96.390, 920.0, 30.3315
59.419621695, 96.390, 925.0, 30.4138
59.445882260, 96.390, 962.0, 31.0161
59.472142826, 96.390, 878.0, 29.6311
59.498403391, 96.390, 891.0, 29.8496
59.524663956, 96.390, 887.0, 29.7825
59.550924522, 96.390, 924.0, 30.3974
59.577185087, 96.390, 973.0, 31.1929
59.603445652, 96.390, 926.0, 30.4302
59.629706218, 96.390, 950.0, 30.8221
59.655966783, 96.390, 952.0, 30.8545
59.682227348, 96.390, 937.0, 30.6105
59.708487914, 96.390, 1020.0, 31.9374
59.734748479, 96.390, 882.0, 29.6985
59.761009044, 96.390, 971.0, 31.1609
59.787269610, 96.390, 958.0, 30.9516
59.813530175, 96.390, 918.0, 30.2985
59.839790740, 96.390, 923.0, 30.3809
59.866051306, 96.390, 946.0, 30.7571
59.892311871, 96.390, 917.0, 30.2820
59.918572437, 96.390, 930.0, 30.4959
59.944833002, 96.390, 966.0, 31.0805
59.971093567, 96.390, 912.0, 30.1993
59.997354133, 96.390, 980.0, 31.3050
60.023614698, 96.390, 949.0, 30.8058
60.049875263, 96.390, 948.0, 30.7896
60.076135829, 96.390, 909.0, 30.1496
60.102396394, 96.390, 979.0, 31.2890
60.128656959, 96.390, 979.0, 31.2890
60.154917525, 96.390, 925.0, 30.4138
60.181178090, 96.390, 1027.0, 32.0468
60.207438655, 96.390, 970.0, 31.1448
60.233699221, 96.390, 975.0, 31.2250
60.259959786, 96.390, 955.0, 30.9031
60.286220352, 96.390, 1047.0, 32.3574
60.312480917, 96.390, 1058.0, 32.5269
60.338741482, 96.390, 1051.0, 32.4191
60.365002048, 96.390, 1037.0, 32.2025
60.391262613, 96.390, 1043.0, 32.2955
60.417523178, 96.390, 1019.0, 31.9218
60.443783744, 96.390, 990.0, 31.4643
60.470044309, 96.390, 1045.0, 32.3265
60.496304874, 96.390, 1047.0, 32.3574
60.522565440, 96.390, 1058.0, 32.5269
60.548826005, 96.390, 1086.0, 32.9545
60.575086570, 96.390, 1049.0, 32.3883
60.601347136, 96.390, 1060.0, 32.5576
60.627607701, 96.390, 1075.0, 32.7872
60.653868266, 96.390, 1076.0, 32.8024
60.680128832, 96.390, 1120.0, 33.4664
60.706389397, 96.390, 1093.0, 33.0606
60.732649963, 96.390, 1140.0, 33.7639
60.758910528, 96.390, 1124.0, 33.5261
60.785171093, 96.390, 1150.0, 33.9116
60.811431659, 96.390, 1089.0, 33.0000
60.837692224, 96.390, 1120.0, 33.4664
60.863952789, 96.390, 1128.0, 33.5857
60.890213355, 96.390, 1160.0, 34.0588
60.916473920, 96.390, 1146.0, 33.8526
60.942734485, 96.390, 1107.0, 33.2716
60.968995051, 96.390, 1188.0, 34.4674
60.995255616, 96.390, 1185.0, 34.4238
61.021516181, 96.390, 1179.0, 34.3366
61.047776747, 96.390, 1147.0, 33.8674
61.074037312, 96.390, 1135.0, 33.6898
61.100297878, 96.390, 1168.0, 34.1760
61.126558443, 96.390, 1136.0, 33.7046
61.152819008, 96.390, 1199.0, 34.6266
61.179079574, 96.390, 1164.0, 34.1174
61.205340139, 96.390, 1181.0, 34.3657
61.231600704, 96.390, 1244.0, 35.2704
61.257861270, 96.390, 1175.0, 34.2783
61.284121835, 96.390, 1123.0, 33.5112
61.310382400, 96.390, 1183.0, 34.3948
61.336642966, 96.390, 1170.0, 34.2053
61.362903531, 96.390, 1190.0, 34.4964
61.389164096, 96.390, 1176.0, 34.2929
61.415424662, 96.390, 1191.0, 34.5109
61.441685227, 96.390, 1218.0, 34.8999
61.467945792, 96.390, 1242.0, 35.2420
61.494206358, 96.390, 1208.0, 34.7563
61.520466923, 96.390, 1136.0, 33.7046
61.546727489, 96.390, 1131.0, 33.6303
61.572988054, 96.390, 1122.0, 33.4963
61.599248619, 96.390, 1143.0, 33.8083
61.625509185, 96.390, 1157.0, 34.0147
61.651769750, 96.390, 1183.0, 34.3948
61.678030315, 96.390, 1154.0, 33.9706
61.704290881, 96.390, 1146.0, 33.8526
61.730551446, 96.390, 1110.0, 33.3167
61.756812011, 96.390, 1166.0, 34.1467
61.783072577, 96.390, 1152.0, 33.9411
61.809333142, 96.390, 1193.0, 34.5398
61.835593707, 96.390, 1078.0, 32.8329
61.861854273, 96.390, 1176.0, 34.2929
61.888114838, 96.390, 1138.0, 33.7343
61.914375404, 96.390, 1171.0, 34.2199
61.940635969, 96.390, 1127.0, 33.5708
61.966896534, 96.390, 1145.0, 33.8378
61.993157100, 96.390, 1151.0, 33.9264
62.019417665, 96.390, 1159.0, 34.0441
62.045678230, 96.390, 1146.0, 33.8526
62.071938796, 96.390, 1097.0, 33.1210
62.098199361, 96.390, 1115.0, 33.3916
62.124459926, 96.390, 1179.0, 34.3366
62.150720492, 96.390, 1114.0, 33.3766
62.176981057, 96.390, 1055.0, 32.4808
62.203241622, 96.390, 1121.0, 33.4813
62.229502188, 96.390, 1133.0, 33.6601
62.255762753, 96.390, 1091.0, 33.0303
62.282023318, 96.390, 1098.0, 33.1361
62.308283884, 96.390, 1114.0, 33.3766
62.334544449, 96.390, 1034.0, 32.1559
62.360805015, 96.390, 1069.0, 32.6956
62.387065580, 96.390, 1067.0, 32.6650
62.413326145, 96.390, 1121.0, 33.4813
62.439586711, 96.390, 1133.0, 33.6601
62.465847276, 96.390, 1069.0, 32.6956
62.492107841, 96.390, 1078.0, 32.8329
62.518368407, 96.390, 1048.0, 32.3728
62.544628972, 96.390, 1034.0, 32.1559
62.570889537, 96.390, 1033.0, 32.1403
62.597150103, 96.390, 1075.0, 32.7872
62.623410668, 96.390, 1042.0, 32.2800
62.649671233, 96.390, 1012.0, 31.8119
62.675931799, 96.390, 1069.0, 32.6956
62.702192364, 96.390, 1000.0, 31.6228
62.728452930, 96.390, 1015.0, 31.8591
62.754713495, 96.390, 1050.0, 32.4037
62.780974060, 96.390, 1031.0, 32.1092
62.807234626, 96.390, 1037.0, 32.2025
62.833495191, 96.390, 1005.0, 31.7017
62.859755756, 96.390, 938.0, 30.6268
62.886016322, 96.390, 1016.0, 31.8748
62.912276887, 96.390, 949.0, 30.8058
62.938537452, 96.390, 1018.0, 31.9061
62.964798018, 96.390, 998.0, 31.5911
62.991058583, 96.390, 1041.0, 32.2645
63.017319148, 96.390, 975.0, 31.2250
63.043579714, 96.390, 974.0, 31.2090
63.069840279, 96.390, 971.0, 31.1609
63.096100844, 96.390, 953.0, 30.8707
63.122361410, 96.390, 952.0, 30.8545
63.148621975, 96.390, 901.0, 30.0167
63.174882541, 96.390, 961.0, 31.0000
63.201143106, 96.390, 1020.0, 31.9374
63.227403671, 96.390, 903.0, 30.0500
63.253664237, 96.390, 957.0, 30.9354
63.279924802, 96.390, 956.0, 30.9192
63.306185367, 96.390, 934.0, 30.5614
63.332445933, 96.390, 1019.0, 31.9218
63.358706498, 96.390, 934.0, 30.5614
63.384967063, 96.390, 976.0, 31.2410
63.411227629, 96.390, 933.0, 30.5450
63.437488194, 96.390, 970.0, 31.1448
63.463748759, 96.390, 864.0, 29.3939
63.490009325, 96.390, 975.0, 31.2250
63.516269890, 96.390, 963.0, 31.0322
63.542530455, 96.390, 891.0, 29.8496
63.568791021, 96.390, 910.0, 30.1662
63.595051586, 96.390, 907.0, 30.1164
63.621312152, 96.390, 865.0, 29.4109
63.647572717, 96.390, 937.0, 30.6105
63.673833282, 96.390, 975.0, 31.2250
63.700093848, 96.390, 893.0, 29.8831
63.726354413, 96.390, 915.0, 30.2490
63.752614978, 96.390, 877.0, 29.6142
63.778875544, 96.390, 848.0, 29.1204
63.805136109, 96.390, 937.0, 30.6105
63.831396674, 96.390, 948.0, 30.7896
63.857657240, 96.390, 969.0, 31.1288
63.883917805, 96.390, 873.0, 29.5466
63.910178370, 96.390, 854.0, 29.2233
63.936438936, 96.390, 922.0, 30.3645
63.962699501, 96.390, 864.0, 29.3939
63.988960067, 96.390, 907.0, 30.1164
64.015220632, 96.390, 884.0, 29.7321
64.041481197, 96.390, 877.0, 29.6142
64.067741763, 96.390, 893.0, 29.8831
64.094002328, 96.390, 826.0, 28.7402
64.120262893, 96.390, 837.0, 28.9310
64.146523459, 96.390, 884.0, 29.7321
64.172784024, 96.390, 863.0, 29.3769
64.199044589, 96.390, 885.0, 29.7489
64.225305155, 96.390, 888.0, 29.7993
64.251565720, 96.390, 857.0, 29.2746
64.277826285, 96.390, 879.0, 29.6479
64.304086851, 96.390, 824.0, 28.7054
64.330347416, 96.390, 840.0, 28.9828
64.356607981, 96.390, 837.0, 28.9310
64.382868547, 96.390, 866.0, 29.4279
64.409129112, 96.390, 864.0, 29.3939
64.435389678, 96.390, 860.0, 29.3258
64.461650243, 96.390, 872.0, 29.5296
64.487910808, 96.390, 798.0, 28.2489
64.514171374, 96.390, 836.0, 28.9137
64.540431939, 96.390, 855.0, 29.2404
64.566692504, 96.390, 815.0, 28.5482
64.592953070, 96.390, 891.0, 29.8496
64.619213635, 96.390, 886.0, 29.7658
64.645474200, 96.390, 910.0, 30.1662
64.671734766, 96.390, 808.0, 28.4253
64.697995331, 96.390, 798.0, 28.2489
64.724255896, 96.390, 837.0, 28.9310
64.750516462, 96.390, 867.0, 29.4449
64.776777027, 96.390, 832.0, 28.8444
64.803037593, 96.390, 923.0, 30.3809
64.829298158, 96.390, 838.0, 28.9482
64.855558723, 96.390, 850.0, 29.1548
64.881819289, 96.390, 793.0, 28.1603
64.908079854, 96.390, 822.0, 28.6705
64.934340419, 96.390, 799.0, 28.2666
64.960600985, 96.390, 859.0, 29.3087
64.986861550, 96.390, 810.0, 28.4605
