[Measurement conditions]
Sample identification,XRD_AlAxial27Jan22_Act21Feb22_B4_0617M_NaOH_LS0094_1
Comment - 1,"Configuration=Stage for Flat Samples/Holders, Owner=User-1, Creation date=7/1/2020 9:53:24 AM"
Comment - 2,"Goniometer=Theta/Theta; Minimum step size 2Theta:0.0001; Minimum step size Omega:0.0001"
Comment - 3,"Sample stage=Stage for flat samples/holders"
Comment - 4,"Diffractometer system=EMPYREAN"
Comment - 5,"Measurement program=C:\Users\ibo5034\OneDrive - The Pennsylvania State University\NEUP - Reed, Titus's files\XRD\Cement\Zerobackground scan.xrdmp, Identifier={98A3B11C-88F9-4AA6-982C-73314A311EF5}"
Anode material,Cu
K-Alpha1 wavelength,1.5405980
K-Alpha2 wavelength,1.5444260
Ratio K-Alpha2/K-Alpha1,0.500
Divergence slit,Fixed,0.25
Monochromator used,NO
Generator voltage, 45
Tube current, 40
File date and time,24/Feb/2022 12:48
Unit cell,
h k l, 0 0 0
Scan axis,Gonio
Scan range,4.994599997,64.999991833
Scan step size,0.0262606
No. of points, 2285
Scan type,CONTINUOUS
Time per step,96.390
[Scan points]
Angle, TimePerStep, Intensity, ESD
5.007730280, 96.390, 4782.0, 69.1520
5.033990845, 96.390, 4903.0, 70.0214
5.060251411, 96.390, 4792.0, 69.2243
5.086511976, 96.390, 4720.0, 68.7023
5.112772541, 96.390, 4720.0, 68.7023
5.139033107, 96.390, 4817.0, 69.4046
5.165293672, 96.390, 4778.0, 69.1231
5.191554237, 96.390, 4686.0, 68.4544
5.217814803, 96.390, 4754.0, 68.9493
5.244075368, 96.390, 4732.0, 68.7895
5.270335934, 96.390, 4675.0, 68.3740
5.296596499, 96.390, 4698.0, 68.5420
5.322857064, 96.390, 4636.0, 68.0882
5.349117630, 96.390, 4630.0, 68.0441
5.375378195, 96.390, 4602.0, 67.8380
5.401638760, 96.390, 4687.0, 68.4617
5.427899326, 96.390, 4609.0, 67.8896
5.454159891, 96.390, 4519.0, 67.2235
5.480420456, 96.390, 4450.0, 66.7083
5.506681022, 96.390, 4444.0, 66.6633
5.532941587, 96.390, 4579.0, 67.6683
5.559202152, 96.390, 4583.0, 67.6979
5.585462718, 96.390, 4523.0, 67.2533
5.611723283, 96.390, 4513.0, 67.1789
5.637983849, 96.390, 4470.0, 66.8581
5.664244414, 96.390, 4556.0, 67.4981
5.690504979, 96.390, 4526.0, 67.2756
5.716765545, 96.390, 4240.0, 65.1153
5.743026110, 96.390, 4510.0, 67.1565
5.769286675, 96.390, 4344.0, 65.9090
5.795547241, 96.390, 4345.0, 65.9166
5.821807806, 96.390, 4498.0, 67.0671
5.848068371, 96.390, 4495.0, 67.0448
5.874328937, 96.390, 4435.0, 66.5958
5.900589502, 96.390, 4328.0, 65.7875
5.926850067, 96.390, 4327.0, 65.7799
5.953110633, 96.390, 4399.0, 66.3250
5.979371198, 96.390, 4512.0, 67.1714
6.005631763, 96.390, 4368.0, 66.0908
6.031892329, 96.390, 4397.0, 66.3099
6.058152894, 96.390, 4371.0, 66.1135
6.084413460, 96.390, 4374.0, 66.1362
6.110674025, 96.390, 4208.0, 64.8691
6.136934590, 96.390, 4333.0, 65.8255
6.163195156, 96.390, 4358.0, 66.0151
6.189455721, 96.390, 4281.0, 65.4294
6.215716286, 96.390, 4222.0, 64.9769
6.241976852, 96.390, 4360.0, 66.0303
6.268237417, 96.390, 4300.0, 65.5744
6.294497982, 96.390, 4284.0, 65.4523
6.320758548, 96.390, 4324.0, 65.7571
6.347019113, 96.390, 4323.0, 65.7495
6.373279678, 96.390, 4331.0, 65.8103
6.399540244, 96.390, 4306.0, 65.6201
6.425800809, 96.390, 4314.0, 65.6810
6.452061375, 96.390, 4309.0, 65.6430
6.478321940, 96.390, 4295.0, 65.5362
6.504582505, 96.390, 4214.0, 64.9153
6.530843071, 96.390, 4230.0, 65.0385
6.557103636, 96.390, 4290.0, 65.4981
6.583364201, 96.390, 4242.0, 65.1306
6.609624767, 96.390, 4111.0, 64.1171
6.635885332, 96.390, 4174.0, 64.6065
6.662145897, 96.390, 4189.0, 64.7225
6.688406463, 96.390, 4251.0, 65.1997
6.714667028, 96.390, 4238.0, 65.0999
6.740927593, 96.390, 4123.0, 64.2106
6.767188159, 96.390, 4176.0, 64.6220
6.793448724, 96.390, 4215.0, 64.9230
6.819709289, 96.390, 4067.0, 63.7730
6.845969855, 96.390, 4139.0, 64.3351
6.872230420, 96.390, 4105.0, 64.0703
6.898490986, 96.390, 4110.0, 64.1093
6.924751551, 96.390, 4034.0, 63.5138
6.951012116, 96.390, 4169.0, 64.5678
6.977272682, 96.390, 4180.0, 64.6529
7.003533247, 96.390, 4176.0, 64.6220
7.029793812, 96.390, 4118.0, 64.1716
7.056054378, 96.390, 4013.0, 63.3482
7.082314943, 96.390, 4064.0, 63.7495
7.108575508, 96.390, 4103.0, 64.0547
7.134836074, 96.390, 3942.0, 62.7853
7.161096639, 96.390, 4143.0, 64.3661
7.187357204, 96.390, 4078.0, 63.8592
7.213617770, 96.390, 4053.0, 63.6632
7.239878335, 96.390, 4132.0, 64.2806
7.266138900, 96.390, 4093.0, 63.9766
7.292399466, 96.390, 3944.0, 62.8013
7.318660031, 96.390, 3938.0, 62.7535
7.344920597, 96.390, 3972.0, 63.0238
7.371181162, 96.390, 4090.0, 63.9531
7.397441727, 96.390, 4008.0, 63.3088
7.423702293, 96.390, 3989.0, 63.1585
7.449962858, 96.390, 3889.0, 62.3618
7.476223423, 96.390, 4059.0, 63.7103
7.502483989, 96.390, 4055.0, 63.6789
7.528744554, 96.390, 3892.0, 62.3859
7.555005119, 96.390, 3991.0, 63.1744
7.581265685, 96.390, 3891.0, 62.3779
7.607526250, 96.390, 3878.0, 62.2736
7.633786815, 96.390, 3863.0, 62.1530
7.660047381, 96.390, 3891.0, 62.3779
7.686307946, 96.390, 3922.0, 62.6259
7.712568512, 96.390, 4017.0, 63.3798
7.738829077, 96.390, 4014.0, 63.3561
7.765089642, 96.390, 3867.0, 62.1852
7.791350208, 96.390, 3924.0, 62.6418
7.817610773, 96.390, 3850.0, 62.0484
7.843871338, 96.390, 3886.0, 62.3378
7.870131904, 96.390, 3845.0, 62.0081
7.896392469, 96.390, 3896.0, 62.4179
7.922653034, 96.390, 3945.0, 62.8092
7.948913600, 96.390, 3837.0, 61.9435
7.975174165, 96.390, 3893.0, 62.3939
8.001434730, 96.390, 3828.0, 61.8708
8.027695296, 96.390, 3833.0, 61.9112
8.053955861, 96.390, 3812.0, 61.7414
8.080216426, 96.390, 3849.0, 62.0403
8.106476992, 96.390, 3896.0, 62.4179
8.132737557, 96.390, 3770.0, 61.4003
8.158998123, 96.390, 3857.0, 62.1048
8.185258688, 96.390, 3849.0, 62.0403
8.211519253, 96.390, 3881.0, 62.2977
8.237779819, 96.390, 3889.0, 62.3618
8.264040384, 96.390, 3853.0, 62.0725
8.290300949, 96.390, 3806.0, 61.6928
8.316561515, 96.390, 3823.0, 61.8304
8.342822080, 96.390, 3859.0, 62.1208
8.369082645, 96.390, 3754.0, 61.2699
8.395343211, 96.390, 3773.0, 61.4248
8.421603776, 96.390, 3736.0, 61.1228
8.447864341, 96.390, 3770.0, 61.4003
8.474124907, 96.390, 3665.0, 60.5392
8.500385472, 96.390, 3697.0, 60.8030
8.526646038, 96.390, 3689.0, 60.7371
8.552906603, 96.390, 3712.0, 60.9262
8.579167168, 96.390, 3780.0, 61.4817
8.605427734, 96.390, 3793.0, 61.5873
8.631688299, 96.390, 3729.0, 61.0655
8.657948864, 96.390, 3637.0, 60.3075
8.684209430, 96.390, 3673.0, 60.6053
8.710469995, 96.390, 3715.0, 60.9508
8.736730560, 96.390, 3671.0, 60.5888
8.762991126, 96.390, 3578.0, 59.8164
8.789251691, 96.390, 3646.0, 60.3821
8.815512256, 96.390, 3704.0, 60.8605
8.841772822, 96.390, 3633.0, 60.2744
8.868033387, 96.390, 3678.0, 60.6465
8.894293952, 96.390, 3579.0, 59.8247
8.920554518, 96.390, 3680.0, 60.6630
8.946815083, 96.390, 3682.0, 60.6795
8.973075649, 96.390, 3677.0, 60.6383
8.999336214, 96.390, 3677.0, 60.6383
9.025596779, 96.390, 3518.0, 59.3127
9.051857345, 96.390, 3621.0, 60.1747
9.078117910, 96.390, 3765.0, 61.3596
9.104378475, 96.390, 3631.0, 60.2578
9.130639041, 96.390, 3700.0, 60.8276
9.156899606, 96.390, 3556.0, 59.6322
9.183160171, 96.390, 3516.0, 59.2959
9.209420737, 96.390, 3578.0, 59.8164
9.235681302, 96.390, 3655.0, 60.4566
9.261941867, 96.390, 3534.0, 59.4475
9.288202433, 96.390, 3600.0, 60.0000
9.314462998, 96.390, 3520.0, 59.3296
9.340723564, 96.390, 3600.0, 60.0000
9.366984129, 96.390, 3565.0, 59.7076
9.393244694, 96.390, 3572.0, 59.7662
9.419505260, 96.390, 3542.0, 59.5147
9.445765825, 96.390, 3529.0, 59.4054
9.472026390, 96.390, 3431.0, 58.5747
9.498286956, 96.390, 3629.0, 60.2412
9.524547521, 96.390, 3434.0, 58.6003
9.550808086, 96.390, 3499.0, 59.1523
9.577068652, 96.390, 3451.0, 58.7452
9.603329217, 96.390, 3345.0, 57.8360
9.629589782, 96.390, 3518.0, 59.3127
9.655850348, 96.390, 3466.0, 58.8727
9.682110913, 96.390, 3344.0, 57.8273
9.708371478, 96.390, 3485.0, 59.0339
9.734632044, 96.390, 3451.0, 58.7452
9.760892609, 96.390, 3429.0, 58.5577
9.787153175, 96.390, 3431.0, 58.5747
9.813413740, 96.390, 3437.0, 58.6259
9.839674305, 96.390, 3463.0, 58.8473
9.865934871, 96.390, 3412.0, 58.4123
9.892195436, 96.390, 3420.0, 58.4808
9.918456001, 96.390, 3496.0, 59.1270
9.944716567, 96.390, 3405.0, 58.3524
9.970977132, 96.390, 3385.0, 58.1808
9.997237697, 96.390, 3344.0, 57.8273
10.023498263, 96.390, 3380.0, 58.1378
10.049758828, 96.390, 3438.0, 58.6345
10.076019393, 96.390, 3325.0, 57.6628
10.102279959, 96.390, 3324.0, 57.6541
10.128540524, 96.390, 3376.0, 58.1034
10.154801090, 96.390, 3385.0, 58.1808
10.181061655, 96.390, 3391.0, 58.2323
10.207322220, 96.390, 3396.0, 58.2752
10.233582786, 96.390, 3339.0, 57.7841
10.259843351, 96.390, 3425.0, 58.5235
10.286103916, 96.390, 3263.0, 57.1227
10.312364482, 96.390, 3354.0, 57.9137
10.338625047, 96.390, 3375.0, 58.0948
10.364885612, 96.390, 3470.0, 58.9067
10.391146178, 96.390, 3357.0, 57.9396
10.417406743, 96.390, 3363.0, 57.9914
10.443667308, 96.390, 3456.0, 58.7878
10.469927874, 96.390, 3681.0, 60.6712
10.496188439, 96.390, 3738.0, 61.1392
10.522449004, 96.390, 3451.0, 58.7452
10.548709570, 96.390, 3426.0, 58.5320
10.574970135, 96.390, 3305.0, 57.4891
10.601230701, 96.390, 3310.0, 57.5326
10.627491266, 96.390, 3285.0, 57.3149
10.653751831, 96.390, 3254.0, 57.0438
10.680012397, 96.390, 3304.0, 57.4804
10.706272962, 96.390, 3304.0, 57.4804
10.732533527, 96.390, 3247.0, 56.9825
10.758794093, 96.390, 3125.0, 55.9017
10.785054658, 96.390, 3208.0, 56.6392
10.811315223, 96.390, 3277.0, 57.2451
10.837575789, 96.390, 3176.0, 56.3560
10.863836354, 96.390, 3101.0, 55.6866
10.890096919, 96.390, 3216.0, 56.7098
10.916357485, 96.390, 3260.0, 57.0964
10.942618050, 96.390, 3220.0, 56.7450
10.968878616, 96.390, 3171.0, 56.3116
10.995139181, 96.390, 3258.0, 57.0789
11.021399746, 96.390, 3330.0, 57.7062
11.047660312, 96.390, 3206.0, 56.6216
11.073920877, 96.390, 3248.0, 56.9912
11.100181442, 96.390, 3322.0, 57.6368
11.126442008, 96.390, 3197.0, 56.5420
11.152702573, 96.390, 3230.0, 56.8331
11.178963138, 96.390, 3209.0, 56.6480
11.205223704, 96.390, 3084.0, 55.5338
11.231484269, 96.390, 3103.0, 55.7046
11.257744834, 96.390, 3189.0, 56.4712
11.284005400, 96.390, 3198.0, 56.5509
11.310265965, 96.390, 3136.0, 56.0000
11.336526530, 96.390, 3037.0, 55.1090
11.362787096, 96.390, 3031.0, 55.0545
11.389047661, 96.390, 3074.0, 55.4437
11.415308227, 96.390, 3141.0, 56.0446
11.441568792, 96.390, 3046.0, 55.1906
11.467829357, 96.390, 3068.0, 55.3895
11.494089923, 96.390, 3040.0, 55.1362
11.520350488, 96.390, 3052.0, 55.2449
11.546611053, 96.390, 3132.0, 55.9643
11.572871619, 96.390, 3081.0, 55.5068
11.599132184, 96.390, 3056.0, 55.2811
11.625392749, 96.390, 2930.0, 54.1295
11.651653315, 96.390, 2940.0, 54.2218
11.677913880, 96.390, 2986.0, 54.6443
11.704174445, 96.390, 3165.0, 56.2583
11.730435011, 96.390, 2948.0, 54.2955
11.756695576, 96.390, 3095.0, 55.6327
11.782956141, 96.390, 3149.0, 56.1160
11.809216707, 96.390, 3050.0, 55.2268
11.835477272, 96.390, 2996.0, 54.7357
11.861737838, 96.390, 2925.0, 54.0833
11.887998403, 96.390, 3081.0, 55.5068
11.914258968, 96.390, 2900.0, 53.8516
11.940519534, 96.390, 3005.0, 54.8179
11.966780099, 96.390, 2983.0, 54.6168
11.993040664, 96.390, 3014.0, 54.8999
12.019301230, 96.390, 2986.0, 54.6443
12.045561795, 96.390, 2976.0, 54.5527
12.071822360, 96.390, 3022.0, 54.9727
12.098082926, 96.390, 2917.0, 54.0093
12.124343491, 96.390, 2937.0, 54.1941
12.150604056, 96.390, 2920.0, 54.0370
12.176864622, 96.390, 2915.0, 53.9907
12.203125187, 96.390, 3036.0, 55.0999
12.229385753, 96.390, 3045.0, 55.1815
12.255646318, 96.390, 2860.0, 53.4790
12.281906883, 96.390, 2944.0, 54.2586
12.308167449, 96.390, 2929.0, 54.1202
12.334428014, 96.390, 2878.0, 53.6470
12.360688579, 96.390, 2983.0, 54.6168
12.386949145, 96.390, 2808.0, 52.9906
12.413209710, 96.390, 2883.0, 53.6936
12.439470275, 96.390, 2905.0, 53.8981
12.465730841, 96.390, 2861.0, 53.4883
12.491991406, 96.390, 2869.0, 53.5630
12.518251971, 96.390, 2804.0, 52.9528
12.544512537, 96.390, 2785.0, 52.7731
12.570773102, 96.390, 2743.0, 52.3737
12.597033667, 96.390, 2917.0, 54.0093
12.623294233, 96.390, 2862.0, 53.4977
12.649554798, 96.390, 2823.0, 53.1319
12.675815364, 96.390, 2827.0, 53.1695
12.702075929, 96.390, 2824.0, 53.1413
12.728336494, 96.390, 2823.0, 53.1319
12.754597060, 96.390, 2796.0, 52.8772
12.780857625, 96.390, 2735.0, 52.2972
12.807118190, 96.390, 2817.0, 53.0754
12.833378756, 96.390, 2699.0, 51.9519
12.859639321, 96.390, 2782.0, 52.7447
12.885899886, 96.390, 2798.0, 52.8961
12.912160452, 96.390, 2809.0, 53.0000
12.938421017, 96.390, 2803.0, 52.9434
12.964681582, 96.390, 2745.0, 52.3927
12.990942148, 96.390, 2748.0, 52.4214
13.017202713, 96.390, 2785.0, 52.7731
13.043463279, 96.390, 2795.0, 52.8678
13.069723844, 96.390, 2679.0, 51.7591
13.095984409, 96.390, 2661.0, 51.5849
13.122244975, 96.390, 2736.0, 52.3068
13.148505540, 96.390, 2687.0, 51.8363
13.174766105, 96.390, 2785.0, 52.7731
13.201026671, 96.390, 2744.0, 52.3832
13.227287236, 96.390, 2772.0, 52.6498
13.253547801, 96.390, 2659.0, 51.5655
13.279808367, 96.390, 2753.0, 52.4690
13.306068932, 96.390, 2668.0, 51.6527
13.332329497, 96.390, 2632.0, 51.3030
13.358590063, 96.390, 2605.0, 51.0392
13.384850628, 96.390, 2633.0, 51.3128
13.411111193, 96.390, 2708.0, 52.0384
13.437371759, 96.390, 2689.0, 51.8556
13.463632324, 96.390, 2659.0, 51.5655
13.489892890, 96.390, 2598.0, 50.9706
13.516153455, 96.390, 2688.0, 51.8459
13.542414020, 96.390, 2714.0, 52.0961
13.568674586, 96.390, 2588.0, 50.8724
13.594935151, 96.390, 2573.0, 50.7247
13.621195716, 96.390, 2653.0, 51.5073
13.647456282, 96.390, 2638.0, 51.3615
13.673716847, 96.390, 2713.0, 52.0865
13.699977412, 96.390, 2747.0, 52.4118
13.726237978, 96.390, 2753.0, 52.4690
13.752498543, 96.390, 2720.0, 52.1536
13.778759108, 96.390, 2839.0, 53.2823
13.805019674, 96.390, 3179.0, 56.3826
13.831280239, 96.390, 3076.0, 55.4617
13.857540805, 96.390, 2930.0, 54.1295
13.883801370, 96.390, 2783.0, 52.7541
13.910061935, 96.390, 2639.0, 51.3712
13.936322501, 96.390, 2642.0, 51.4004
13.962583066, 96.390, 2598.0, 50.9706
13.988843631, 96.390, 2780.0, 52.7257
14.015104197, 96.390, 2597.0, 50.9608
14.041364762, 96.390, 2599.0, 50.9804
14.067625327, 96.390, 2643.0, 51.4101
14.093885893, 96.390, 2588.0, 50.8724
14.120146458, 96.390, 2652.0, 51.4976
14.146407023, 96.390, 2566.0, 50.6557
14.172667589, 96.390, 2613.0, 51.1175
14.198928154, 96.390, 3050.0, 55.2268
14.225188719, 96.390, 3527.0, 59.3886
14.251449285, 96.390, 4183.0, 64.6761
14.277709850, 96.390, 4216.0, 64.9307
14.303970416, 96.390, 4952.0, 70.3704
14.330230981, 96.390, 4931.0, 70.2211
14.356491546, 96.390, 3526.0, 59.3801
14.382752112, 96.390, 2914.0, 53.9815
14.409012677, 96.390, 2586.0, 50.8527
14.435273242, 96.390, 2533.0, 50.3289
14.461533808, 96.390, 2544.0, 50.4381
14.487794373, 96.390, 2517.0, 50.1697
14.514054938, 96.390, 2617.0, 51.1566
14.540315504, 96.390, 2541.0, 50.4083
14.566576069, 96.390, 2497.0, 49.9700
14.592836634, 96.390, 2511.0, 50.1099
14.619097200, 96.390, 2540.0, 50.3984
14.645357765, 96.390, 2578.0, 50.7740
14.671618331, 96.390, 2582.0, 50.8134
14.697878896, 96.390, 2500.0, 50.0000
14.724139461, 96.390, 2505.0, 50.0500
14.750400027, 96.390, 2431.0, 49.3052
14.776660592, 96.390, 2527.0, 50.2693
14.802921157, 96.390, 2429.0, 49.2849
14.829181723, 96.390, 2506.0, 50.0600
14.855442288, 96.390, 2465.0, 49.6488
14.881702853, 96.390, 2545.0, 50.4480
14.907963419, 96.390, 2568.0, 50.6754
14.934223984, 96.390, 2518.0, 50.1797
14.960484549, 96.390, 2535.0, 50.3488
14.986745115, 96.390, 2497.0, 49.9700
15.013005680, 96.390, 2495.0, 49.9500
15.039266245, 96.390, 2487.0, 49.8698
15.065526811, 96.390, 2530.0, 50.2991
15.091787376, 96.390, 2417.0, 49.1630
15.118047942, 96.390, 2458.0, 49.5782
15.144308507, 96.390, 2458.0, 49.5782
15.170569072, 96.390, 2390.0, 48.8876
15.196829638, 96.390, 2438.0, 49.3761
15.223090203, 96.390, 2429.0, 49.2849
15.249350768, 96.390, 2445.0, 49.4469
15.275611334, 96.390, 2407.0, 49.0612
15.301871899, 96.390, 2462.0, 49.6185
15.328132464, 96.390, 2421.0, 49.2037
15.354393030, 96.390, 2330.0, 48.2701
15.380653595, 96.390, 2443.0, 49.4267
15.406914160, 96.390, 2427.0, 49.2646
15.433174726, 96.390, 2406.0, 49.0510
15.459435291, 96.390, 2330.0, 48.2701
15.485695857, 96.390, 2424.0, 49.2341
15.511956422, 96.390, 2455.0, 49.5480
15.538216987, 96.390, 2434.0, 49.3356
15.564477553, 96.390, 2363.0, 48.6107
15.590738118, 96.390, 2472.0, 49.7192
15.616998683, 96.390, 2389.0, 48.8774
15.643259249, 96.390, 2433.0, 49.3254
15.669519814, 96.390, 2401.0, 49.0000
15.695780379, 96.390, 2416.0, 49.1528
15.722040945, 96.390, 2462.0, 49.6185
15.748301510, 96.390, 2378.0, 48.7647
15.774562075, 96.390, 2363.0, 48.6107
15.800822641, 96.390, 2361.0, 48.5901
15.827083206, 96.390, 2412.0, 49.1121
15.853343771, 96.390, 2379.0, 48.7750
15.879604337, 96.390, 2334.0, 48.3115
15.905864902, 96.390, 2339.0, 48.3632
15.932125468, 96.390, 2421.0, 49.2037
15.958386033, 96.390, 2300.0, 47.9583
15.984646598, 96.390, 2448.0, 49.4773
16.010907164, 96.390, 2487.0, 49.8698
16.037167729, 96.390, 2393.0, 48.9183
16.063428294, 96.390, 2420.0, 49.1935
16.089688860, 96.390, 2357.0, 48.5489
16.115949425, 96.390, 2353.0, 48.5077
16.142209990, 96.390, 2375.0, 48.7340
16.168470556, 96.390, 2398.0, 48.9694
16.194731121, 96.390, 2462.0, 49.6185
16.220991686, 96.390, 2325.0, 48.2183
16.247252252, 96.390, 2359.0, 48.5695
16.273512817, 96.390, 2340.0, 48.3735
16.299773382, 96.390, 2342.0, 48.3942
16.326033948, 96.390, 2302.0, 47.9792
16.352294513, 96.390, 2280.0, 47.7493
16.378555079, 96.390, 2362.0, 48.6004
16.404815644, 96.390, 2404.0, 49.0306
16.431076209, 96.390, 2498.0, 49.9800
16.457336775, 96.390, 2364.0, 48.6210
16.483597340, 96.390, 2377.0, 48.7545
16.509857905, 96.390, 2456.0, 49.5580
16.536118471, 96.390, 2400.0, 48.9898
16.562379036, 96.390, 2371.0, 48.6929
16.588639601, 96.390, 2374.0, 48.7237
16.614900167, 96.390, 2456.0, 49.5580
16.641160732, 96.390, 2342.0, 48.3942
16.667421297, 96.390, 2344.0, 48.4149
16.693681863, 96.390, 2300.0, 47.9583
16.719942428, 96.390, 2351.0, 48.4871
16.746202994, 96.390, 2368.0, 48.6621
16.772463559, 96.390, 2330.0, 48.2701
16.798724124, 96.390, 2323.0, 48.1975
16.824984690, 96.390, 2355.0, 48.5283
16.851245255, 96.390, 2333.0, 48.3011
16.877505820, 96.390, 2374.0, 48.7237
16.903766386, 96.390, 2422.0, 49.2138
16.930026951, 96.390, 2390.0, 48.8876
16.956287516, 96.390, 2478.0, 49.7795
16.982548082, 96.390, 2393.0, 48.9183
17.008808647, 96.390, 2344.0, 48.4149
17.035069212, 96.390, 2342.0, 48.3942
17.061329778, 96.390, 2373.0, 48.7134
17.087590343, 96.390, 2347.0, 48.4458
17.113850908, 96.390, 2418.0, 49.1732
17.140111474, 96.390, 2363.0, 48.6107
17.166372039, 96.390, 2275.0, 47.6970
17.192632605, 96.390, 2479.0, 49.7896
17.218893170, 96.390, 2435.0, 49.3457
17.245153735, 96.390, 2448.0, 49.4773
17.271414301, 96.390, 2398.0, 48.9694
17.297674866, 96.390, 2321.0, 48.1768
17.323935431, 96.390, 2438.0, 49.3761
17.350195997, 96.390, 2347.0, 48.4458
17.376456562, 96.390, 2389.0, 48.8774
17.402717127, 96.390, 2396.0, 48.9490
17.428977693, 96.390, 2518.0, 50.1797
17.455238258, 96.390, 2446.0, 49.4571
17.481498823, 96.390, 2522.0, 50.2195
17.507759389, 96.390, 2397.0, 48.9592
17.534019954, 96.390, 2403.0, 49.0204
17.560280520, 96.390, 2331.0, 48.2804
17.586541085, 96.390, 2289.0, 47.8435
17.612801650, 96.390, 2493.0, 49.9300
17.639062216, 96.390, 2299.0, 47.9479
17.665322781, 96.390, 2328.0, 48.2494
17.691583346, 96.390, 2417.0, 49.1630
17.717843912, 96.390, 2340.0, 48.3735
17.744104477, 96.390, 2321.0, 48.1768
17.770365042, 96.390, 2300.0, 47.9583
17.796625608, 96.390, 2464.0, 49.6387
17.822886173, 96.390, 2330.0, 48.2701
17.849146738, 96.390, 2398.0, 48.9694
17.875407304, 96.390, 2437.0, 49.3660
17.901667869, 96.390, 2420.0, 49.1935
17.927928434, 96.390, 2358.0, 48.5592
17.954189000, 96.390, 2321.0, 48.1768
17.980449565, 96.390, 2359.0, 48.5695
18.006710131, 96.390, 2432.0, 49.3153
18.032970696, 96.390, 2404.0, 49.0306
18.059231261, 96.390, 2512.0, 50.1199
18.085491827, 96.390, 2345.0, 48.4252
18.111752392, 96.390, 2437.0, 49.3660
18.138012957, 96.390, 2458.0, 49.5782
18.164273523, 96.390, 2418.0, 49.1732
18.190534088, 96.390, 2527.0, 50.2693
18.216794653, 96.390, 2522.0, 50.2195
18.243055219, 96.390, 2555.0, 50.5470
18.269315784, 96.390, 2632.0, 51.3030
18.295576349, 96.390, 2666.0, 51.6333
18.321836915, 96.390, 2678.0, 51.7494
18.348097480, 96.390, 2760.0, 52.5357
18.374358046, 96.390, 2674.0, 51.7107
18.400618611, 96.390, 2577.0, 50.7642
18.426879176, 96.390, 2718.0, 52.1344
18.453139742, 96.390, 2844.0, 53.3292
18.479400307, 96.390, 2892.0, 53.7773
18.505660872, 96.390, 2767.0, 52.6023
18.531921438, 96.390, 2514.0, 50.1398
18.558182003, 96.390, 2581.0, 50.8035
18.584442568, 96.390, 2485.0, 49.8498
18.610703134, 96.390, 2518.0, 50.1797
18.636963699, 96.390, 2557.0, 50.5668
18.663224264, 96.390, 2593.0, 50.9215
18.689484830, 96.390, 2512.0, 50.1199
18.715745395, 96.390, 2605.0, 51.0392
18.742005960, 96.390, 2578.0, 50.7740
18.768266526, 96.390, 2675.0, 51.7204
18.794527091, 96.390, 2698.0, 51.9423
18.820787657, 96.390, 2614.0, 51.1273
18.847048222, 96.390, 2622.0, 51.2055
18.873308787, 96.390, 2583.0, 50.8232
18.899569353, 96.390, 2533.0, 50.3289
18.925829918, 96.390, 2510.0, 50.0999
18.952090483, 96.390, 2619.0, 51.1762
18.978351049, 96.390, 2571.0, 50.7050
19.004611614, 96.390, 2668.0, 51.6527
19.030872179, 96.390, 2621.0, 51.1957
19.057132745, 96.390, 2667.0, 51.6430
19.083393310, 96.390, 2573.0, 50.7247
19.109653875, 96.390, 2573.0, 50.7247
19.135914441, 96.390, 2492.0, 49.9199
19.162175006, 96.390, 2562.0, 50.6162
19.188435572, 96.390, 2423.0, 49.2240
19.214696137, 96.390, 2466.0, 49.6588
19.240956702, 96.390, 2471.0, 49.7092
19.267217268, 96.390, 2524.0, 50.2394
19.293477833, 96.390, 2474.0, 49.7393
19.319738398, 96.390, 2431.0, 49.3052
19.345998964, 96.390, 2503.0, 50.0300
19.372259529, 96.390, 2523.0, 50.2295
19.398520094, 96.390, 2531.0, 50.3090
19.424780660, 96.390, 2655.0, 51.5267
19.451041225, 96.390, 2602.0, 51.0098
19.477301790, 96.390, 2484.0, 49.8397
19.503562356, 96.390, 2616.0, 51.1468
19.529822921, 96.390, 2509.0, 50.0899
19.556083486, 96.390, 2489.0, 49.8899
19.582344052, 96.390, 2547.0, 50.4678
19.608604617, 96.390, 2532.0, 50.3190
19.634865183, 96.390, 2448.0, 49.4773
19.661125748, 96.390, 2543.0, 50.4282
19.687386313, 96.390, 2430.0, 49.2950
19.713646879, 96.390, 2611.0, 51.0979
19.739907444, 96.390, 2513.0, 50.1298
19.766168009, 96.390, 2688.0, 51.8459
19.792428575, 96.390, 2675.0, 51.7204
19.818689140, 96.390, 2743.0, 52.3737
19.844949705, 96.390, 2697.0, 51.9326
19.871210271, 96.390, 2612.0, 51.1077
19.897470836, 96.390, 2581.0, 50.8035
19.923731401, 96.390, 2641.0, 51.3907
19.949991967, 96.390, 2608.0, 51.0686
19.976252532, 96.390, 2590.0, 50.8920
20.002513097, 96.390, 2608.0, 51.0686
20.028773663, 96.390, 2605.0, 51.0392
20.055034228, 96.390, 2575.0, 50.7445
20.081294794, 96.390, 2638.0, 51.3615
20.107555359, 96.390, 2599.0, 50.9804
20.133815924, 96.390, 2591.0, 50.9019
20.160076490, 96.390, 2739.0, 52.3355
20.186337055, 96.390, 2647.0, 51.4490
20.212597620, 96.390, 2706.0, 52.0192
20.238858186, 96.390, 2768.0, 52.6118
20.265118751, 96.390, 2774.0, 52.6688
20.291379316, 96.390, 2808.0, 52.9906
20.317639882, 96.390, 2921.0, 54.0463
20.343900447, 96.390, 2951.0, 54.3231
20.370161012, 96.390, 3040.0, 55.1362
20.396421578, 96.390, 3005.0, 54.8179
20.422682143, 96.390, 3114.0, 55.8032
20.448942709, 96.390, 3037.0, 55.1090
20.475203274, 96.390, 3107.0, 55.7405
20.501463839, 96.390, 3035.0, 55.0908
20.527724405, 96.390, 2999.0, 54.7631
20.553984970, 96.390, 2975.0, 54.5436
20.580245535, 96.390, 3127.0, 55.9196
20.606506101, 96.390, 3141.0, 56.0446
20.632766666, 96.390, 3249.0, 57.0000
20.659027231, 96.390, 3456.0, 58.7878
20.685287797, 96.390, 3219.0, 56.7362
20.711548362, 96.390, 3233.0, 56.8595
20.737808927, 96.390, 3192.0, 56.4978
20.764069493, 96.390, 3139.0, 56.0268
20.790330058, 96.390, 3024.0, 54.9909
20.816590623, 96.390, 2855.0, 53.4322
20.842851189, 96.390, 2877.0, 53.6377
20.869111754, 96.390, 2912.0, 53.9630
20.895372320, 96.390, 2944.0, 54.2586
20.921632885, 96.390, 2887.0, 53.7308
20.947893450, 96.390, 2716.0, 52.1153
20.974154016, 96.390, 2795.0, 52.8678
21.000414581, 96.390, 2969.0, 54.4885
21.026675146, 96.390, 3041.0, 55.1453
21.052935712, 96.390, 2930.0, 54.1295
21.079196277, 96.390, 2937.0, 54.1941
21.105456842, 96.390, 2823.0, 53.1319
21.131717408, 96.390, 2749.0, 52.4309
21.157977973, 96.390, 2778.0, 52.7067
21.184238538, 96.390, 2732.0, 52.2685
21.210499104, 96.390, 2659.0, 51.5655
21.236759669, 96.390, 2768.0, 52.6118
21.263020235, 96.390, 2754.0, 52.4786
21.289280800, 96.390, 2659.0, 51.5655
21.315541365, 96.390, 2714.0, 52.0961
21.341801931, 96.390, 2683.0, 51.7977
21.368062496, 96.390, 2813.0, 53.0377
21.394323061, 96.390, 2654.0, 51.5170
21.420583627, 96.390, 2770.0, 52.6308
21.446844192, 96.390, 2690.0, 51.8652
21.473104757, 96.390, 2684.0, 51.8073
21.499365323, 96.390, 2614.0, 51.1273
21.525625888, 96.390, 2778.0, 52.7067
21.551886453, 96.390, 2811.0, 53.0189
21.578147019, 96.390, 2649.0, 51.4684
21.604407584, 96.390, 2741.0, 52.3546
21.630668149, 96.390, 2673.0, 51.7011
21.656928715, 96.390, 2688.0, 51.8459
21.683189280, 96.390, 2734.0, 52.2877
21.709449846, 96.390, 2701.0, 51.9711
21.735710411, 96.390, 2631.0, 51.2933
21.761970976, 96.390, 2675.0, 51.7204
21.788231542, 96.390, 2707.0, 52.0288
21.814492107, 96.390, 2803.0, 52.9434
21.840752672, 96.390, 2773.0, 52.6593
21.867013238, 96.390, 2640.0, 51.3809
21.893273803, 96.390, 2636.0, 51.3420
21.919534368, 96.390, 2663.0, 51.6043
21.945794934, 96.390, 2721.0, 52.1632
21.972055499, 96.390, 2805.0, 52.9623
21.998316064, 96.390, 2757.0, 52.5071
22.024576630, 96.390, 2682.0, 51.7880
22.050837195, 96.390, 2722.0, 52.1728
22.077097761, 96.390, 2603.0, 51.0196
22.103358326, 96.390, 2679.0, 51.7591
22.129618891, 96.390, 2702.0, 51.9808
22.155879457, 96.390, 2720.0, 52.1536
22.182140022, 96.390, 2764.0, 52.5738
22.208400587, 96.390, 2721.0, 52.1632
22.234661153, 96.390, 2767.0, 52.6023
22.260921718, 96.390, 2640.0, 51.3809
22.287182283, 96.390, 2681.0, 51.7784
22.313442849, 96.390, 2680.0, 51.7687
22.339703414, 96.390, 2703.0, 51.9904
22.365963979, 96.390, 2755.0, 52.4881
22.392224545, 96.390, 2693.0, 51.8941
22.418485110, 96.390, 2719.0, 52.1440
22.444745675, 96.390, 2662.0, 51.5946
22.471006241, 96.390, 2775.0, 52.6783
22.497266806, 96.390, 2728.0, 52.2303
22.523527372, 96.390, 2670.0, 51.6720
22.549787937, 96.390, 2725.0, 52.2015
22.576048502, 96.390, 2644.0, 51.4198
22.602309068, 96.390, 2718.0, 52.1344
22.628569633, 96.390, 2683.0, 51.7977
22.654830198, 96.390, 2625.0, 51.2348
22.681090764, 96.390, 2685.0, 51.8170
22.707351329, 96.390, 2680.0, 51.7687
22.733611894, 96.390, 2700.0, 51.9615
22.759872460, 96.390, 2757.0, 52.5071
22.786133025, 96.390, 2726.0, 52.2111
22.812393590, 96.390, 2668.0, 51.6527
22.838654156, 96.390, 2611.0, 51.0979
22.864914721, 96.390, 2673.0, 51.7011
22.891175287, 96.390, 2723.0, 52.1824
22.917435852, 96.390, 2714.0, 52.0961
22.943696417, 96.390, 2712.0, 52.0769
22.969956983, 96.390, 2707.0, 52.0288
22.996217548, 96.390, 2608.0, 51.0686
23.022478113, 96.390, 2645.0, 51.4296
23.048738679, 96.390, 2722.0, 52.1728
23.074999244, 96.390, 2682.0, 51.7880
23.101259809, 96.390, 2588.0, 50.8724
23.127520375, 96.390, 2617.0, 51.1566
23.153780940, 96.390, 2693.0, 51.8941
23.180041505, 96.390, 2639.0, 51.3712
23.206302071, 96.390, 2620.0, 51.1859
23.232562636, 96.390, 2666.0, 51.6333
23.258823201, 96.390, 2600.0, 50.9902
23.285083767, 96.390, 2646.0, 51.4393
23.311344332, 96.390, 2655.0, 51.5267
23.337604898, 96.390, 2730.0, 52.2494
23.363865463, 96.390, 2674.0, 51.7107
23.390126028, 96.390, 2592.0, 50.9117
23.416386594, 96.390, 2638.0, 51.3615
23.442647159, 96.390, 2675.0, 51.7204
23.468907724, 96.390, 2702.0, 51.9808
23.495168290, 96.390, 2723.0, 52.1824
23.521428855, 96.390, 2931.0, 54.1387
23.547689420, 96.390, 3988.0, 63.1506
23.573949986, 96.390, 3597.0, 59.9750
23.600210551, 96.390, 3281.0, 57.2800
23.626471116, 96.390, 3286.0, 57.3236
23.652731682, 96.390, 2739.0, 52.3355
23.678992247, 96.390, 2636.0, 51.3420
23.705252813, 96.390, 2646.0, 51.4393
23.731513378, 96.390, 2634.0, 51.3225
23.757773943, 96.390, 2695.0, 51.9134
23.784034509, 96.390, 2586.0, 50.8527
23.810295074, 96.390, 2576.0, 50.7543
23.836555639, 96.390, 2718.0, 52.1344
23.862816205, 96.390, 2627.0, 51.2543
23.889076770, 96.390, 2584.0, 50.8331
23.915337335, 96.390, 2745.0, 52.3927
23.941597901, 96.390, 2702.0, 51.9808
23.967858466, 96.390, 2677.0, 51.7397
23.994119031, 96.390, 2606.0, 51.0490
24.020379597, 96.390, 2636.0, 51.3420
24.046640162, 96.390, 2715.0, 52.1057
24.072900727, 96.390, 2530.0, 50.2991
24.099161293, 96.390, 2668.0, 51.6527
24.125421858, 96.390, 2750.0, 52.4404
24.151682424, 96.390, 2670.0, 51.6720
24.177942989, 96.390, 2666.0, 51.6333
24.204203554, 96.390, 2656.0, 51.5364
24.230464120, 96.390, 2639.0, 51.3712
24.256724685, 96.390, 2642.0, 51.4004
24.282985250, 96.390, 2637.0, 51.3517
24.309245816, 96.390, 2578.0, 50.7740
24.335506381, 96.390, 2527.0, 50.2693
24.361766946, 96.390, 2510.0, 50.0999
24.388027512, 96.390, 2540.0, 50.3984
24.414288077, 96.390, 2609.0, 51.0784
24.440548642, 96.390, 2508.0, 50.0799
24.466809208, 96.390, 2444.0, 49.4368
24.493069773, 96.390, 2508.0, 50.0799
24.519330338, 96.390, 2642.0, 51.4004
24.545590904, 96.390, 2774.0, 52.6688
24.571851469, 96.390, 3412.0, 58.4123
24.598112035, 96.390, 3487.0, 59.0508
24.624372600, 96.390, 2893.0, 53.7866
24.650633165, 96.390, 2975.0, 54.5436
24.676893731, 96.390, 2614.0, 51.1273
24.703154296, 96.390, 2443.0, 49.4267
24.729414861, 96.390, 2439.0, 49.3862
24.755675427, 96.390, 2327.0, 48.2390
24.781935992, 96.390, 2386.0, 48.8467
24.808196557, 96.390, 2432.0, 49.3153
24.834457123, 96.390, 2441.0, 49.4065
24.860717688, 96.390, 2312.0, 48.0833
24.886978253, 96.390, 2409.0, 49.0816
24.913238819, 96.390, 2371.0, 48.6929
24.939499384, 96.390, 2357.0, 48.5489
24.965759950, 96.390, 2394.0, 48.9285
24.992020515, 96.390, 2429.0, 49.2849
25.018281080, 96.390, 2361.0, 48.5901
25.044541646, 96.390, 2313.0, 48.0937
25.070802211, 96.390, 2376.0, 48.7442
25.097062776, 96.390, 2389.0, 48.8774
25.123323342, 96.390, 2405.0, 49.0408
25.149583907, 96.390, 2411.0, 49.1019
25.175844472, 96.390, 2336.0, 48.3322
25.202105038, 96.390, 2367.0, 48.6518
25.228365603, 96.390, 2399.0, 48.9796
25.254626168, 96.390, 2308.0, 48.0416
25.280886734, 96.390, 2251.0, 47.4447
25.307147299, 96.390, 2353.0, 48.5077
25.333407864, 96.390, 2367.0, 48.6518
25.359668430, 96.390, 2341.0, 48.3839
25.385928995, 96.390, 2413.0, 49.1223
25.412189561, 96.390, 2397.0, 48.9592
25.438450126, 96.390, 2394.0, 48.9285
25.464710691, 96.390, 2359.0, 48.5695
25.490971257, 96.390, 2337.0, 48.3425
25.517231822, 96.390, 2319.0, 48.1560
25.543492387, 96.390, 2337.0, 48.3425
25.569752953, 96.390, 2228.0, 47.2017
25.596013518, 96.390, 2254.0, 47.4763
25.622274083, 96.390, 2221.0, 47.1275
25.648534649, 96.390, 2286.0, 47.8121
25.674795214, 96.390, 2259.0, 47.5289
25.701055779, 96.390, 2237.0, 47.2969
25.727316345, 96.390, 2229.0, 47.2123
25.753576910, 96.390, 2229.0, 47.2123
25.779837476, 96.390, 2283.0, 47.7807
25.806098041, 96.390, 2327.0, 48.2390
25.832358606, 96.390, 2339.0, 48.3632
25.858619172, 96.390, 2197.0, 46.8722
25.884879737, 96.390, 2235.0, 47.2758
25.911140302, 96.390, 2183.0, 46.7226
25.937400868, 96.390, 2290.0, 47.8539
25.963661433, 96.390, 2231.0, 47.2335
25.989921998, 96.390, 2265.0, 47.5920
26.016182564, 96.390, 2198.0, 46.8828
26.042443129, 96.390, 2289.0, 47.8435
26.068703694, 96.390, 2211.0, 47.0213
26.094964260, 96.390, 2278.0, 47.7284
26.121224825, 96.390, 2239.0, 47.3181
26.147485390, 96.390, 2149.0, 46.3573
26.173745956, 96.390, 2214.0, 47.0532
26.200006521, 96.390, 2186.0, 46.7547
26.226267087, 96.390, 2340.0, 48.3735
26.252527652, 96.390, 2203.0, 46.9361
26.278788217, 96.390, 2135.0, 46.2061
26.305048783, 96.390, 2287.0, 47.8226
26.331309348, 96.390, 2255.0, 47.4868
26.357569913, 96.390, 2285.0, 47.8017
26.383830479, 96.390, 2145.0, 46.3141
26.410091044, 96.390, 2204.0, 46.9468
26.436351609, 96.390, 2203.0, 46.9361
26.462612175, 96.390, 2196.0, 46.8615
26.488872740, 96.390, 2243.0, 47.3603
26.515133305, 96.390, 2168.0, 46.5618
26.541393871, 96.390, 2197.0, 46.8722
26.567654436, 96.390, 2159.0, 46.4650
26.593915002, 96.390, 2202.0, 46.9255
26.620175567, 96.390, 2198.0, 46.8828
26.646436132, 96.390, 2192.0, 46.8188
26.672696698, 96.390, 2175.0, 46.6369
26.698957263, 96.390, 2212.0, 47.0319
26.725217828, 96.390, 2186.0, 46.7547
26.751478394, 96.390, 2248.0, 47.4131
26.777738959, 96.390, 2137.0, 46.2277
26.803999524, 96.390, 2129.0, 46.1411
26.830260090, 96.390, 2154.0, 46.4112
26.856520655, 96.390, 2186.0, 46.7547
26.882781220, 96.390, 2165.0, 46.5296
26.909041786, 96.390, 2287.0, 47.8226
26.935302351, 96.390, 2174.0, 46.6262
26.961562916, 96.390, 2203.0, 46.9361
26.987823482, 96.390, 2151.0, 46.3789
27.014084047, 96.390, 2243.0, 47.3603
27.040344613, 96.390, 2198.0, 46.8828
27.066605178, 96.390, 2139.0, 46.2493
27.092865743, 96.390, 2123.0, 46.0760
27.119126309, 96.390, 2149.0, 46.3573
27.145386874, 96.390, 2131.0, 46.1628
27.171647439, 96.390, 2106.0, 45.8912
27.197908005, 96.390, 2191.0, 46.8081
27.224168570, 96.390, 2178.0, 46.6690
27.250429135, 96.390, 2133.0, 46.1844
27.276689701, 96.390, 2129.0, 46.1411
27.302950266, 96.390, 2153.0, 46.4004
27.329210831, 96.390, 2323.0, 48.1975
27.355471397, 96.390, 2185.0, 46.7440
27.381731962, 96.390, 2230.0, 47.2229
27.407992528, 96.390, 2093.0, 45.7493
27.434253093, 96.390, 2148.0, 46.3465
27.460513658, 96.390, 2138.0, 46.2385
27.486774224, 96.390, 2101.0, 45.8367
27.513034789, 96.390, 2081.0, 45.6180
27.539295354, 96.390, 2101.0, 45.8367
27.565555920, 96.390, 2068.0, 45.4753
27.591816485, 96.390, 2127.0, 46.1194
27.618077050, 96.390, 2124.0, 46.0869
27.644337616, 96.390, 2184.0, 46.7333
27.670598181, 96.390, 2185.0, 46.7440
27.696858746, 96.390, 2150.0, 46.3681
27.723119312, 96.390, 2237.0, 47.2969
27.749379877, 96.390, 2088.0, 45.6946
27.775640442, 96.390, 2186.0, 46.7547
27.801901008, 96.390, 2115.0, 45.9891
27.828161573, 96.390, 2145.0, 46.3141
27.854422139, 96.390, 2169.0, 46.5725
27.880682704, 96.390, 2200.0, 46.9042
27.906943269, 96.390, 2125.0, 46.0977
27.933203835, 96.390, 2142.0, 46.2817
27.959464400, 96.390, 2008.0, 44.8107
27.985724965, 96.390, 2052.0, 45.2990
28.011985531, 96.390, 2146.0, 46.3249
28.038246096, 96.390, 2100.0, 45.8258
28.064506661, 96.390, 2035.0, 45.1110
28.090767227, 96.390, 2045.0, 45.2217
28.117027792, 96.390, 2010.0, 44.8330
28.143288357, 96.390, 2065.0, 45.4423
28.169548923, 96.390, 2042.0, 45.1885
28.195809488, 96.390, 2073.0, 45.5302
28.222070054, 96.390, 2139.0, 46.2493
28.248330619, 96.390, 2093.0, 45.7493
28.274591184, 96.390, 2189.0, 46.7868
28.300851750, 96.390, 2092.0, 45.7384
28.327112315, 96.390, 2118.0, 46.0217
28.353372880, 96.390, 2097.0, 45.7930
28.379633446, 96.390, 2144.0, 46.3033
28.405894011, 96.390, 2142.0, 46.2817
28.432154576, 96.390, 2173.0, 46.6154
28.458415142, 96.390, 2075.0, 45.5522
28.484675707, 96.390, 2042.0, 45.1885
28.510936272, 96.390, 2066.0, 45.4533
28.537196838, 96.390, 2067.0, 45.4643
28.563457403, 96.390, 2152.0, 46.3897
28.589717968, 96.390, 2044.0, 45.2106
28.615978534, 96.390, 2115.0, 45.9891
28.642239099, 96.390, 2049.0, 45.2659
28.668499665, 96.390, 2036.0, 45.1221
28.694760230, 96.390, 2031.0, 45.0666
28.721020795, 96.390, 2103.0, 45.8585
28.747281361, 96.390, 2056.0, 45.3431
28.773541926, 96.390, 2012.0, 44.8553
28.799802491, 96.390, 2014.0, 44.8776
28.826063057, 96.390, 2051.0, 45.2880
28.852323622, 96.390, 2087.0, 45.6837
28.878584187, 96.390, 2056.0, 45.3431
28.904844753, 96.390, 1987.0, 44.5758
28.931105318, 96.390, 2034.0, 45.0999
28.957365883, 96.390, 1985.0, 44.5533
28.983626449, 96.390, 1984.0, 44.5421
29.009887014, 96.390, 2023.0, 44.9778
29.036147579, 96.390, 2102.0, 45.8476
29.062408145, 96.390, 1986.0, 44.5646
29.088668710, 96.390, 2033.0, 45.0888
29.114929276, 96.390, 1940.0, 44.0454
29.141189841, 96.390, 1995.0, 44.6654
29.167450406, 96.390, 2043.0, 45.1996
29.193710972, 96.390, 1965.0, 44.3283
29.219971537, 96.390, 2094.0, 45.7602
29.246232102, 96.390, 2083.0, 45.6399
29.272492668, 96.390, 2051.0, 45.2880
29.298753233, 96.390, 1969.0, 44.3734
29.325013798, 96.390, 2109.0, 45.9239
29.351274364, 96.390, 2052.0, 45.2990
29.377534929, 96.390, 2217.0, 47.0850
29.403795494, 96.390, 2162.0, 46.4973
29.430056060, 96.390, 2160.0, 46.4758
29.456316625, 96.390, 2178.0, 46.6690
29.482577191, 96.390, 2046.0, 45.2327
29.508837756, 96.390, 2051.0, 45.2880
29.535098321, 96.390, 1945.0, 44.1022
29.561358887, 96.390, 2000.0, 44.7214
29.587619452, 96.390, 1959.0, 44.2606
29.613880017, 96.390, 1949.0, 44.1475
29.640140583, 96.390, 1910.0, 43.7035
29.666401148, 96.390, 2028.0, 45.0333
29.692661713, 96.390, 1973.0, 44.4185
29.718922279, 96.390, 1979.0, 44.4860
29.745182844, 96.390, 1931.0, 43.9431
29.771443409, 96.390, 1982.0, 44.5197
29.797703975, 96.390, 1855.0, 43.0697
29.823964540, 96.390, 1949.0, 44.1475
29.850225105, 96.390, 1885.0, 43.4166
29.876485671, 96.390, 1972.0, 44.4072
29.902746236, 96.390, 1978.0, 44.4747
29.929006802, 96.390, 1938.0, 44.0227
29.955267367, 96.390, 2057.0, 45.3542
29.981527932, 96.390, 2031.0, 45.0666
30.007788498, 96.390, 1851.0, 43.0232
30.034049063, 96.390, 1947.0, 44.1248
30.060309628, 96.390, 1938.0, 44.0227
30.086570194, 96.390, 2023.0, 44.9778
30.112830759, 96.390, 2035.0, 45.1110
30.139091324, 96.390, 1973.0, 44.4185
30.165351890, 96.390, 1972.0, 44.4072
30.191612455, 96.390, 1951.0, 44.1701
30.217873020, 96.390, 1937.0, 44.0114
30.244133586, 96.390, 1892.0, 43.4971
30.270394151, 96.390, 1861.0, 43.1393
30.296654717, 96.390, 1917.0, 43.7836
30.322915282, 96.390, 1934.0, 43.9773
30.349175847, 96.390, 1933.0, 43.9659
30.375436413, 96.390, 1961.0, 44.2832
30.401696978, 96.390, 1965.0, 44.3283
30.427957543, 96.390, 1921.0, 43.8292
30.454218109, 96.390, 2001.0, 44.7325
30.480478674, 96.390, 1974.0, 44.4297
30.506739239, 96.390, 1926.0, 43.8862
30.532999805, 96.390, 2024.0, 44.9889
30.559260370, 96.390, 1871.0, 43.2551
30.585520935, 96.390, 1961.0, 44.2832
30.611781501, 96.390, 1961.0, 44.2832
30.638042066, 96.390, 2011.0, 44.8442
30.664302631, 96.390, 2102.0, 45.8476
30.690563197, 96.390, 2019.0, 44.9333
30.716823762, 96.390, 2293.0, 47.8853
30.743084328, 96.390, 2360.0, 48.5798
30.769344893, 96.390, 2133.0, 46.1844
30.795605458, 96.390, 2146.0, 46.3249
30.821866024, 96.390, 2264.0, 47.5815
30.848126589, 96.390, 2113.0, 45.9674
30.874387154, 96.390, 1931.0, 43.9431
30.900647720, 96.390, 1982.0, 44.5197
30.926908285, 96.390, 1895.0, 43.5316
30.953168850, 96.390, 1958.0, 44.2493
30.979429416, 96.390, 1933.0, 43.9659
31.005689981, 96.390, 1896.0, 43.5431
31.031950546, 96.390, 1976.0, 44.4522
31.058211112, 96.390, 2021.0, 44.9555
31.084471677, 96.390, 2049.0, 45.2659
31.110732243, 96.390, 2006.0, 44.7884
31.136992808, 96.390, 1942.0, 44.0681
31.163253373, 96.390, 1885.0, 43.4166
31.189513939, 96.390, 1921.0, 43.8292
31.215774504, 96.390, 1964.0, 44.3170
31.242035069, 96.390, 1965.0, 44.3283
31.268295635, 96.390, 1879.0, 43.3474
31.294556200, 96.390, 1848.0, 42.9884
31.320816765, 96.390, 1913.0, 43.7379
31.347077331, 96.390, 1941.0, 44.0568
31.373337896, 96.390, 1962.0, 44.2945
31.399598461, 96.390, 1903.0, 43.6234
31.425859027, 96.390, 1943.0, 44.0795
31.452119592, 96.390, 1951.0, 44.1701
31.478380157, 96.390, 1931.0, 43.9431
31.504640723, 96.390, 1990.0, 44.6094
31.530901288, 96.390, 1936.0, 44.0000
31.557161854, 96.390, 2002.0, 44.7437
31.583422419, 96.390, 1897.0, 43.5546
31.609682984, 96.390, 1977.0, 44.4635
31.635943550, 96.390, 1979.0, 44.4860
31.662204115, 96.390, 2026.0, 45.0111
31.688464680, 96.390, 2163.0, 46.5081
31.714725246, 96.390, 2407.0, 49.0612
31.740985811, 96.390, 2603.0, 51.0196
31.767246376, 96.390, 2709.0, 52.0481
31.793506942, 96.390, 2335.0, 48.3218
31.819767507, 96.390, 2289.0, 47.8435
31.846028072, 96.390, 2303.0, 47.9896
31.872288638, 96.390, 2032.0, 45.0777
31.898549203, 96.390, 1952.0, 44.1814
31.924809769, 96.390, 1915.0, 43.7607
31.951070334, 96.390, 1909.0, 43.6921
31.977330899, 96.390, 1910.0, 43.7035
32.003591465, 96.390, 1942.0, 44.0681
32.029852030, 96.390, 1905.0, 43.6463
32.056112595, 96.390, 1870.0, 43.2435
32.082373161, 96.390, 1906.0, 43.6578
32.108633726, 96.390, 1892.0, 43.4971
32.134894291, 96.390, 1901.0, 43.6005
32.161154857, 96.390, 1872.0, 43.2666
32.187415422, 96.390, 1932.0, 43.9545
32.213675987, 96.390, 1955.0, 44.2154
32.239936553, 96.390, 1921.0, 43.8292
32.266197118, 96.390, 1987.0, 44.5758
32.292457683, 96.390, 1989.0, 44.5982
32.318718249, 96.390, 2057.0, 45.3542
32.344978814, 96.390, 1961.0, 44.2832
32.371239380, 96.390, 2060.0, 45.3872
32.397499945, 96.390, 1959.0, 44.2606
32.423760510, 96.390, 1974.0, 44.4297
32.450021076, 96.390, 1975.0, 44.4410
32.476281641, 96.390, 1962.0, 44.2945
32.502542206, 96.390, 1871.0, 43.2551
32.528802772, 96.390, 1969.0, 44.3734
32.555063337, 96.390, 2048.0, 45.2548
32.581323902, 96.390, 1875.0, 43.3013
32.607584468, 96.390, 1879.0, 43.3474
32.633845033, 96.390, 1844.0, 42.9418
32.660105598, 96.390, 1936.0, 44.0000
32.686366164, 96.390, 1903.0, 43.6234
32.712626729, 96.390, 1901.0, 43.6005
32.738887295, 96.390, 1874.0, 43.2897
32.765147860, 96.390, 1934.0, 43.9773
32.791408425, 96.390, 1908.0, 43.6807
32.817668991, 96.390, 1853.0, 43.0465
32.843929556, 96.390, 1754.0, 41.8808
32.870190121, 96.390, 1896.0, 43.5431
32.896450687, 96.390, 1928.0, 43.9090
32.922711252, 96.390, 1944.0, 44.0908
32.948971817, 96.390, 1900.0, 43.5890
32.975232383, 96.390, 2015.0, 44.8888
33.001492948, 96.390, 1945.0, 44.1022
33.027753513, 96.390, 1992.0, 44.6318
33.054014079, 96.390, 1955.0, 44.2154
33.080274644, 96.390, 1923.0, 43.8520
33.106535209, 96.390, 2069.0, 45.4863
33.132795775, 96.390, 1920.0, 43.8178
33.159056340, 96.390, 1916.0, 43.7721
33.185316906, 96.390, 1914.0, 43.7493
33.211577471, 96.390, 1895.0, 43.5316
33.237838036, 96.390, 1948.0, 44.1362
33.264098602, 96.390, 1903.0, 43.6234
33.290359167, 96.390, 1994.0, 44.6542
33.316619732, 96.390, 2038.0, 45.1442
33.342880298, 96.390, 2069.0, 45.4863
33.369140863, 96.390, 2040.0, 45.1664
33.395401428, 96.390, 2192.0, 46.8188
33.421661994, 96.390, 2179.0, 46.6798
33.447922559, 96.390, 2231.0, 47.2335
33.474183124, 96.390, 2183.0, 46.7226
33.500443690, 96.390, 2364.0, 48.6210
33.526704255, 96.390, 2202.0, 46.9255
33.552964820, 96.390, 2285.0, 47.8017
33.579225386, 96.390, 2192.0, 46.8188
33.605485951, 96.390, 2122.0, 46.0652
33.631746517, 96.390, 2158.0, 46.4543
33.658007082, 96.390, 2039.0, 45.1553
33.684267647, 96.390, 2013.0, 44.8665
33.710528213, 96.390, 1952.0, 44.1814
33.736788778, 96.390, 2110.0, 45.9347
33.763049343, 96.390, 2066.0, 45.4533
33.789309909, 96.390, 2015.0, 44.8888
33.815570474, 96.390, 2130.0, 46.1519
33.841831039, 96.390, 2142.0, 46.2817
33.868091605, 96.390, 2165.0, 46.5296
33.894352170, 96.390, 2290.0, 47.8539
33.920612735, 96.390, 2260.0, 47.5395
33.946873301, 96.390, 2289.0, 47.8435
33.973133866, 96.390, 2349.0, 48.4665
33.999394432, 96.390, 2395.0, 48.9387
34.025654997, 96.390, 2520.0, 50.1996
34.051915562, 96.390, 2436.0, 49.3559
34.078176128, 96.390, 2531.0, 50.3090
34.104436693, 96.390, 2432.0, 49.3153
34.130697258, 96.390, 2554.0, 50.5371
34.156957824, 96.390, 2585.0, 50.8429
34.183218389, 96.390, 2464.0, 49.6387
34.209478954, 96.390, 2530.0, 50.2991
34.235739520, 96.390, 2465.0, 49.6488
34.262000085, 96.390, 2445.0, 49.4469
34.288260650, 96.390, 2382.0, 48.8057
34.314521216, 96.390, 2328.0, 48.2494
34.340781781, 96.390, 2413.0, 49.1223
34.367042346, 96.390, 2334.0, 48.3115
34.393302912, 96.390, 2250.0, 47.4342
34.419563477, 96.390, 2242.0, 47.3498
34.445824043, 96.390, 2171.0, 46.5940
34.472084608, 96.390, 2136.0, 46.2169
34.498345173, 96.390, 2141.0, 46.2709
34.524605739, 96.390, 2066.0, 45.4533
34.550866304, 96.390, 2131.0, 46.1628
34.577126869, 96.390, 2165.0, 46.5296
34.603387435, 96.390, 2041.0, 45.1774
34.629648000, 96.390, 2086.0, 45.6727
34.655908565, 96.390, 2181.0, 46.7012
34.682169131, 96.390, 2202.0, 46.9255
34.708429696, 96.390, 2428.0, 49.2747
34.734690261, 96.390, 2133.0, 46.1844
34.760950827, 96.390, 2196.0, 46.8615
34.787211392, 96.390, 2110.0, 45.9347
34.813471958, 96.390, 2133.0, 46.1844
34.839732523, 96.390, 2040.0, 45.1664
34.865993088, 96.390, 2130.0, 46.1519
34.892253654, 96.390, 2052.0, 45.2990
34.918514219, 96.390, 2025.0, 45.0000
34.944774784, 96.390, 1994.0, 44.6542
34.971035350, 96.390, 2085.0, 45.6618
34.997295915, 96.390, 2070.0, 45.4973
35.023556480, 96.390, 2166.0, 46.5403
35.049817046, 96.390, 2158.0, 46.4543
35.076077611, 96.390, 2088.0, 45.6946
35.102338176, 96.390, 2022.0, 44.9667
35.128598742, 96.390, 2165.0, 46.5296
35.154859307, 96.390, 2050.0, 45.2769
35.181119872, 96.390, 2137.0, 46.2277
35.207380438, 96.390, 2100.0, 45.8258
35.233641003, 96.390, 2158.0, 46.4543
35.259901569, 96.390, 2257.0, 47.5079
35.286162134, 96.390, 2200.0, 46.9042
35.312422699, 96.390, 2034.0, 45.0999
35.338683265, 96.390, 2054.0, 45.3211
35.364943830, 96.390, 2036.0, 45.1221
35.391204395, 96.390, 1986.0, 44.5646
35.417464961, 96.390, 1953.0, 44.1928
35.443725526, 96.390, 1995.0, 44.6654
35.469986091, 96.390, 2022.0, 44.9667
35.496246657, 96.390, 1936.0, 44.0000
35.522507222, 96.390, 2004.0, 44.7661
35.548767787, 96.390, 1991.0, 44.6206
35.575028353, 96.390, 1984.0, 44.5421
35.601288918, 96.390, 1924.0, 43.8634
35.627549484, 96.390, 1928.0, 43.9090
35.653810049, 96.390, 1895.0, 43.5316
35.680070614, 96.390, 1983.0, 44.5309
35.706331180, 96.390, 1920.0, 43.8178
35.732591745, 96.390, 1979.0, 44.4860
35.758852310, 96.390, 2006.0, 44.7884
35.785112876, 96.390, 1962.0, 44.2945
35.811373441, 96.390, 1892.0, 43.4971
35.837634006, 96.390, 1870.0, 43.2435
35.863894572, 96.390, 1904.0, 43.6348
35.890155137, 96.390, 1899.0, 43.5775
35.916415702, 96.390, 2011.0, 44.8442
35.942676268, 96.390, 1932.0, 43.9545
35.968936833, 96.390, 1959.0, 44.2606
35.995197398, 96.390, 1946.0, 44.1135
36.021457964, 96.390, 1964.0, 44.3170
36.047718529, 96.390, 1828.0, 42.7551
36.073979095, 96.390, 1936.0, 44.0000
36.100239660, 96.390, 1927.0, 43.8976
36.126500225, 96.390, 1854.0, 43.0581
36.152760791, 96.390, 1948.0, 44.1362
36.179021356, 96.390, 1783.0, 42.2256
36.205281921, 96.390, 1936.0, 44.0000
36.231542487, 96.390, 1920.0, 43.8178
36.257803052, 96.390, 1930.0, 43.9318
36.284063617, 96.390, 1903.0, 43.6234
36.310324183, 96.390, 1890.0, 43.4741
36.336584748, 96.390, 1986.0, 44.5646
36.362845313, 96.390, 1903.0, 43.6234
36.389105879, 96.390, 1918.0, 43.7950
36.415366444, 96.390, 1955.0, 44.2154
36.441627010, 96.390, 1944.0, 44.0908
36.467887575, 96.390, 1946.0, 44.1135
36.494148140, 96.390, 1917.0, 43.7836
36.520408706, 96.390, 1818.0, 42.6380
36.546669271, 96.390, 1773.0, 42.1070
36.572929836, 96.390, 1858.0, 43.1045
36.599190402, 96.390, 1848.0, 42.9884
36.625450967, 96.390, 1918.0, 43.7950
36.651711532, 96.390, 1925.0, 43.8748
36.677972098, 96.390, 1998.0, 44.6990
36.704232663, 96.390, 1946.0, 44.1135
36.730493228, 96.390, 1924.0, 43.8634
36.756753794, 96.390, 1850.0, 43.0116
36.783014359, 96.390, 1838.0, 42.8719
36.809274924, 96.390, 1873.0, 43.2782
36.835535490, 96.390, 1810.0, 42.5441
36.861796055, 96.390, 1820.0, 42.6615
36.888056621, 96.390, 1881.0, 43.3705
36.914317186, 96.390, 1835.0, 42.8369
36.940577751, 96.390, 1810.0, 42.5441
36.966838317, 96.390, 1782.0, 42.2137
36.993098882, 96.390, 1838.0, 42.8719
37.019359447, 96.390, 1808.0, 42.5206
37.045620013, 96.390, 1794.0, 42.3556
37.071880578, 96.390, 1813.0, 42.5793
37.098141143, 96.390, 1826.0, 42.7317
37.124401709, 96.390, 1850.0, 43.0116
37.150662274, 96.390, 1785.0, 42.2493
37.176922839, 96.390, 1787.0, 42.2729
37.203183405, 96.390, 1824.0, 42.7083
37.229443970, 96.390, 1766.0, 42.0238
37.255704535, 96.390, 1688.0, 41.0853
37.281965101, 96.390, 1755.0, 41.8927
37.308225666, 96.390, 1739.0, 41.7013
37.334486232, 96.390, 1813.0, 42.5793
37.360746797, 96.390, 1792.0, 42.3320
37.387007362, 96.390, 1952.0, 44.1814
37.413267928, 96.390, 1850.0, 43.0116
37.439528493, 96.390, 1770.0, 42.0714
37.465789058, 96.390, 1774.0, 42.1189
37.492049624, 96.390, 1820.0, 42.6615
37.518310189, 96.390, 1797.0, 42.3910
37.544570754, 96.390, 1704.0, 41.2795
37.570831320, 96.390, 1797.0, 42.3910
37.597091885, 96.390, 1722.0, 41.4970
37.623352450, 96.390, 1826.0, 42.7317
37.649613016, 96.390, 1763.0, 41.9881
37.675873581, 96.390, 1800.0, 42.4264
37.702134147, 96.390, 1850.0, 43.0116
37.728394712, 96.390, 1876.0, 43.3128
37.754655277, 96.390, 1831.0, 42.7902
37.780915843, 96.390, 1789.0, 42.2966
37.807176408, 96.390, 1821.0, 42.6732
37.833436973, 96.390, 1853.0, 43.0465
37.859697539, 96.390, 1940.0, 44.0454
37.885958104, 96.390, 2015.0, 44.8888
37.912218669, 96.390, 1952.0, 44.1814
37.938479235, 96.390, 2035.0, 45.1110
37.964739800, 96.390, 1830.0, 42.7785
37.991000365, 96.390, 1879.0, 43.3474
38.017260931, 96.390, 1787.0, 42.2729
38.043521496, 96.390, 1849.0, 43.0000
38.069782061, 96.390, 1813.0, 42.5793
38.096042627, 96.390, 1735.0, 41.6533
38.122303192, 96.390, 1742.0, 41.7373
38.148563758, 96.390, 1783.0, 42.2256
38.174824323, 96.390, 1741.0, 41.7253
38.201084888, 96.390, 1824.0, 42.7083
38.227345454, 96.390, 1778.0, 42.1663
38.253606019, 96.390, 1861.0, 43.1393
38.279866584, 96.390, 1751.0, 41.8450
38.306127150, 96.390, 1813.0, 42.5793
38.332387715, 96.390, 1836.0, 42.8486
38.358648280, 96.390, 1773.0, 42.1070
38.384908846, 96.390, 1769.0, 42.0595
38.411169411, 96.390, 1694.0, 41.1582
38.437429976, 96.390, 1815.0, 42.6028
38.463690542, 96.390, 1753.0, 41.8688
38.489951107, 96.390, 1680.0, 40.9878
38.516211673, 96.390, 1668.0, 40.8412
38.542472238, 96.390, 1677.0, 40.9512
38.568732803, 96.390, 1669.0, 40.8534
38.594993369, 96.390, 1751.0, 41.8450
38.621253934, 96.390, 1683.0, 41.0244
38.647514499, 96.390, 1627.0, 40.3361
38.673775065, 96.390, 1671.0, 40.8779
38.700035630, 96.390, 1659.0, 40.7308
38.726296195, 96.390, 1625.0, 40.3113
38.752556761, 96.390, 1599.0, 39.9875
38.778817326, 96.390, 1638.0, 40.4722
38.805077891, 96.390, 1594.0, 39.9249
38.831338457, 96.390, 1605.0, 40.0625
38.857599022, 96.390, 1631.0, 40.3856
38.883859587, 96.390, 1686.0, 41.0609
38.910120153, 96.390, 1573.0, 39.6611
38.936380718, 96.390, 1698.0, 41.2068
38.962641284, 96.390, 1740.0, 41.7133
38.988901849, 96.390, 1684.0, 41.0366
39.015162414, 96.390, 1699.0, 41.2189
39.041422980, 96.390, 1675.0, 40.9268
39.067683545, 96.390, 1676.0, 40.9390
39.093944110, 96.390, 1594.0, 39.9249
39.120204676, 96.390, 1714.0, 41.4005
39.146465241, 96.390, 1673.0, 40.9023
39.172725806, 96.390, 1650.0, 40.6202
39.198986372, 96.390, 1699.0, 41.2189
39.225246937, 96.390, 1620.0, 40.2492
39.251507502, 96.390, 1685.0, 41.0488
39.277768068, 96.390, 1666.0, 40.8167
39.304028633, 96.390, 1626.0, 40.3237
39.330289199, 96.390, 1634.0, 40.4228
39.356549764, 96.390, 1647.0, 40.5832
39.382810329, 96.390, 1673.0, 40.9023
39.409070895, 96.390, 1603.0, 40.0375
39.435331460, 96.390, 1580.0, 39.7492
39.461592025, 96.390, 1578.0, 39.7240
39.487852591, 96.390, 1594.0, 39.9249
39.514113156, 96.390, 1574.0, 39.6737
39.540373721, 96.390, 1582.0, 39.7744
39.566634287, 96.390, 1631.0, 40.3856
39.592894852, 96.390, 1601.0, 40.0125
39.619155417, 96.390, 1560.0, 39.4968
39.645415983, 96.390, 1558.0, 39.4715
39.671676548, 96.390, 1564.0, 39.5474
39.697937113, 96.390, 1653.0, 40.6571
39.724197679, 96.390, 1617.0, 40.2119
39.750458244, 96.390, 1607.0, 40.0874
39.776718810, 96.390, 1626.0, 40.3237
39.802979375, 96.390, 1612.0, 40.1497
39.829239940, 96.390, 1636.0, 40.4475
39.855500506, 96.390, 1537.0, 39.2046
39.881761071, 96.390, 1590.0, 39.8748
39.908021636, 96.390, 1608.0, 40.0999
39.934282202, 96.390, 1530.0, 39.1152
39.960542767, 96.390, 1626.0, 40.3237
39.986803332, 96.390, 1571.0, 39.6358
40.013063898, 96.390, 1498.0, 38.7040
40.039324463, 96.390, 1513.0, 38.8973
40.065585028, 96.390, 1590.0, 39.8748
40.091845594, 96.390, 1568.0, 39.5980
40.118106159, 96.390, 1547.0, 39.3319
40.144366725, 96.390, 1513.0, 38.8973
40.170627290, 96.390, 1603.0, 40.0375
40.196887855, 96.390, 1631.0, 40.3856
40.223148421, 96.390, 1585.0, 39.8121
40.249408986, 96.390, 1587.0, 39.8372
40.275669551, 96.390, 1604.0, 40.0500
40.301930117, 96.390, 1540.0, 39.2428
40.328190682, 96.390, 1601.0, 40.0125
40.354451247, 96.390, 1506.0, 38.8072
40.380711813, 96.390, 1531.0, 39.1280
40.406972378, 96.390, 1495.0, 38.6652
40.433232943, 96.390, 1448.0, 38.0526
40.459493509, 96.390, 1542.0, 39.2683
40.485754074, 96.390, 1560.0, 39.4968
40.512014639, 96.390, 1589.0, 39.8623
40.538275205, 96.390, 1553.0, 39.4081
40.564535770, 96.390, 1525.0, 39.0512
40.590796336, 96.390, 1573.0, 39.6611
40.617056901, 96.390, 1541.0, 39.2556
40.643317466, 96.390, 1586.0, 39.8246
40.669578032, 96.390, 1576.0, 39.6989
40.695838597, 96.390, 1569.0, 39.6106
40.722099162, 96.390, 1575.0, 39.6863
40.748359728, 96.390, 1477.0, 38.4318
40.774620293, 96.390, 1520.0, 38.9872
40.800880858, 96.390, 1552.0, 39.3954
40.827141424, 96.390, 1496.0, 38.6782
40.853401989, 96.390, 1504.0, 38.7814
40.879662554, 96.390, 1422.0, 37.7094
40.905923120, 96.390, 1436.0, 37.8946
40.932183685, 96.390, 1470.0, 38.3406
40.958444251, 96.390, 1450.0, 38.0789
40.984704816, 96.390, 1460.0, 38.2099
41.010965381, 96.390, 1393.0, 37.3229
41.037225947, 96.390, 1433.0, 37.8550
41.063486512, 96.390, 1438.0, 37.9210
41.089747077, 96.390, 1531.0, 39.1280
41.116007643, 96.390, 1406.0, 37.4967
41.142268208, 96.390, 1433.0, 37.8550
41.168528773, 96.390, 1497.0, 38.6911
41.194789339, 96.390, 1402.0, 37.4433
41.221049904, 96.390, 1434.0, 37.8682
41.247310469, 96.390, 1381.0, 37.1618
41.273571035, 96.390, 1493.0, 38.6394
41.299831600, 96.390, 1467.0, 38.3014
41.326092165, 96.390, 1457.0, 38.1707
41.352352731, 96.390, 1529.0, 39.1024
41.378613296, 96.390, 1527.0, 39.0768
41.404873862, 96.390, 1471.0, 38.3536
41.431134427, 96.390, 1419.0, 37.6696
41.457394992, 96.390, 1405.0, 37.4833
41.483655558, 96.390, 1369.0, 37.0000
41.509916123, 96.390, 1423.0, 37.7227
41.536176688, 96.390, 1391.0, 37.2961
41.562437254, 96.390, 1422.0, 37.7094
41.588697819, 96.390, 1367.0, 36.9730
41.614958384, 96.390, 1386.0, 37.2290
41.641218950, 96.390, 1403.0, 37.4566
41.667479515, 96.390, 1429.0, 37.8021
41.693740080, 96.390, 1415.0, 37.6165
41.720000646, 96.390, 1407.0, 37.5100
41.746261211, 96.390, 1463.0, 38.2492
41.772521776, 96.390, 1445.0, 38.0132
41.798782342, 96.390, 1408.0, 37.5233
41.825042907, 96.390, 1382.0, 37.1753
41.851303473, 96.390, 1408.0, 37.5233
41.877564038, 96.390, 1444.0, 38.0000
41.903824603, 96.390, 1371.0, 37.0270
41.930085169, 96.390, 1440.0, 37.9473
41.956345734, 96.390, 1432.0, 37.8418
41.982606299, 96.390, 1352.0, 36.7696
42.008866865, 96.390, 1471.0, 38.3536
42.035127430, 96.390, 1382.0, 37.1753
42.061387995, 96.390, 1394.0, 37.3363
42.087648561, 96.390, 1381.0, 37.1618
42.113909126, 96.390, 1414.0, 37.6032
42.140169691, 96.390, 1408.0, 37.5233
42.166430257, 96.390, 1411.0, 37.5633
42.192690822, 96.390, 1535.0, 39.1791
42.218951388, 96.390, 1465.0, 38.2753
42.245211953, 96.390, 1432.0, 37.8418
42.271472518, 96.390, 1396.0, 37.3631
42.297733084, 96.390, 1414.0, 37.6032
42.323993649, 96.390, 1409.0, 37.5366
42.350254214, 96.390, 1381.0, 37.1618
42.376514780, 96.390, 1414.0, 37.6032
42.402775345, 96.390, 1332.0, 36.4966
42.429035910, 96.390, 1402.0, 37.4433
42.455296476, 96.390, 1305.0, 36.1248
42.481557041, 96.390, 1416.0, 37.6298
42.507817606, 96.390, 1370.0, 37.0135
42.534078172, 96.390, 1347.0, 36.7015
42.560338737, 96.390, 1371.0, 37.0270
42.586599302, 96.390, 1302.0, 36.0832
42.612859868, 96.390, 1375.0, 37.0810
42.639120433, 96.390, 1332.0, 36.4966
42.665380999, 96.390, 1320.0, 36.3318
42.691641564, 96.390, 1351.0, 36.7560
42.717902129, 96.390, 1336.0, 36.5513
42.744162695, 96.390, 1331.0, 36.4829
42.770423260, 96.390, 1355.0, 36.8103
42.796683825, 96.390, 1396.0, 37.3631
42.822944391, 96.390, 1346.0, 36.6879
42.849204956, 96.390, 1366.0, 36.9594
42.875465521, 96.390, 1322.0, 36.3593
42.901726087, 96.390, 1373.0, 37.0540
42.927986652, 96.390, 1396.0, 37.3631
42.954247217, 96.390, 1364.0, 36.9324
42.980507783, 96.390, 1315.0, 36.2629
43.006768348, 96.390, 1348.0, 36.7151
43.033028914, 96.390, 1344.0, 36.6606
43.059289479, 96.390, 1288.0, 35.8887
43.085550044, 96.390, 1348.0, 36.7151
43.111810610, 96.390, 1432.0, 37.8418
43.138071175, 96.390, 1318.0, 36.3043
43.164331740, 96.390, 1303.0, 36.0971
43.190592306, 96.390, 1262.0, 35.5246
43.216852871, 96.390, 1391.0, 37.2961
43.243113436, 96.390, 1325.0, 36.4005
43.269374002, 96.390, 1289.0, 35.9026
43.295634567, 96.390, 1337.0, 36.5650
43.321895132, 96.390, 1411.0, 37.5633
43.348155698, 96.390, 1302.0, 36.0832
43.374416263, 96.390, 1270.0, 35.6371
43.400676828, 96.390, 1253.0, 35.3977
43.426937394, 96.390, 1292.0, 35.9444
43.453197959, 96.390, 1330.0, 36.4692
43.479458525, 96.390, 1394.0, 37.3363
43.505719090, 96.390, 1386.0, 37.2290
43.531979655, 96.390, 1392.0, 37.3095
43.558240221, 96.390, 1379.0, 37.1349
43.584500786, 96.390, 1315.0, 36.2629
43.610761351, 96.390, 1298.0, 36.0278
43.637021917, 96.390, 1452.0, 38.1051
43.663282482, 96.390, 1277.0, 35.7351
43.689543047, 96.390, 1323.0, 36.3731
43.715803613, 96.390, 1368.0, 36.9865
43.742064178, 96.390, 1348.0, 36.7151
43.768324743, 96.390, 1417.0, 37.6431
43.794585309, 96.390, 1344.0, 36.6606
43.820845874, 96.390, 1384.0, 37.2022
43.847106440, 96.390, 1309.0, 36.1801
43.873367005, 96.390, 1372.0, 37.0405
43.899627570, 96.390, 1440.0, 37.9473
43.925888136, 96.390, 1356.0, 36.8239
43.952148701, 96.390, 1353.0, 36.7831
43.978409266, 96.390, 1360.0, 36.8782
44.004669832, 96.390, 1318.0, 36.3043
44.030930397, 96.390, 1385.0, 37.2156
44.057190962, 96.390, 1299.0, 36.0416
44.083451528, 96.390, 1350.0, 36.7423
44.109712093, 96.390, 1391.0, 37.2961
44.135972658, 96.390, 1276.0, 35.7211
44.162233224, 96.390, 1291.0, 35.9305
44.188493789, 96.390, 1376.0, 37.0945
44.214754354, 96.390, 1359.0, 36.8646
44.241014920, 96.390, 1372.0, 37.0405
44.267275485, 96.390, 1408.0, 37.5233
44.293536051, 96.390, 1517.0, 38.9487
44.319796616, 96.390, 1493.0, 38.6394
44.346057181, 96.390, 1444.0, 38.0000
44.372317747, 96.390, 1367.0, 36.9730
44.398578312, 96.390, 1363.0, 36.9188
44.424838877, 96.390, 1392.0, 37.3095
44.451099443, 96.390, 1411.0, 37.5633
44.477360008, 96.390, 1284.0, 35.8329
44.503620573, 96.390, 1360.0, 36.8782
44.529881139, 96.390, 1419.0, 37.6696
44.556141704, 96.390, 1342.0, 36.6333
44.582402269, 96.390, 1312.0, 36.2215
44.608662835, 96.390, 1337.0, 36.5650
44.634923400, 96.390, 1301.0, 36.0694
44.661183966, 96.390, 1374.0, 37.0675
44.687444531, 96.390, 1324.0, 36.3868
44.713705096, 96.390, 1315.0, 36.2629
44.739965662, 96.390, 1315.0, 36.2629
44.766226227, 96.390, 1371.0, 37.0270
44.792486792, 96.390, 1328.0, 36.4417
44.818747358, 96.390, 1386.0, 37.2290
44.845007923, 96.390, 1373.0, 37.0540
44.871268488, 96.390, 1276.0, 35.7211
44.897529054, 96.390, 1358.0, 36.8511
44.923789619, 96.390, 1333.0, 36.5103
44.950050184, 96.390, 1347.0, 36.7015
44.976310750, 96.390, 1412.0, 37.5766
45.002571315, 96.390, 1375.0, 37.0810
45.028831880, 96.390, 1372.0, 37.0405
45.055092446, 96.390, 1333.0, 36.5103
45.081353011, 96.390, 1381.0, 37.1618
45.107613577, 96.390, 1411.0, 37.5633
45.133874142, 96.390, 1332.0, 36.4966
45.160134707, 96.390, 1390.0, 37.2827
45.186395273, 96.390, 1377.0, 37.1080
45.212655838, 96.390, 1338.0, 36.5787
45.238916403, 96.390, 1377.0, 37.1080
45.265176969, 96.390, 1328.0, 36.4417
45.291437534, 96.390, 1419.0, 37.6696
45.317698099, 96.390, 1312.0, 36.2215
45.343958665, 96.390, 1347.0, 36.7015
45.370219230, 96.390, 1301.0, 36.0694
45.396479795, 96.390, 1421.0, 37.6962
45.422740361, 96.390, 1300.0, 36.0555
45.449000926, 96.390, 1287.0, 35.8748
45.475261492, 96.390, 1283.0, 35.8190
45.501522057, 96.390, 1288.0, 35.8887
45.527782622, 96.390, 1330.0, 36.4692
45.554043188, 96.390, 1370.0, 37.0135
45.580303753, 96.390, 1377.0, 37.1080
45.606564318, 96.390, 1363.0, 36.9188
45.632824884, 96.390, 1373.0, 37.0540
45.659085449, 96.390, 1408.0, 37.5233
45.685346014, 96.390, 1374.0, 37.0675
45.711606580, 96.390, 1323.0, 36.3731
45.737867145, 96.390, 1364.0, 36.9324
45.764127710, 96.390, 1334.0, 36.5240
45.790388276, 96.390, 1368.0, 36.9865
45.816648841, 96.390, 1307.0, 36.1525
45.842909406, 96.390, 1348.0, 36.7151
45.869169972, 96.390, 1248.0, 35.3270
45.895430537, 96.390, 1268.0, 35.6090
45.921691103, 96.390, 1254.0, 35.4119
45.947951668, 96.390, 1351.0, 36.7560
45.974212233, 96.390, 1236.0, 35.1568
46.000472799, 96.390, 1347.0, 36.7015
46.026733364, 96.390, 1360.0, 36.8782
46.052993929, 96.390, 1319.0, 36.3180
46.079254495, 96.390, 1282.0, 35.8050
46.105515060, 96.390, 1408.0, 37.5233
46.131775625, 96.390, 1367.0, 36.9730
46.158036191, 96.390, 1324.0, 36.3868
46.184296756, 96.390, 1334.0, 36.5240
46.210557321, 96.390, 1326.0, 36.4143
46.236817887, 96.390, 1322.0, 36.3593
46.263078452, 96.390, 1380.0, 37.1484
46.289339017, 96.390, 1452.0, 38.1051
46.315599583, 96.390, 1523.0, 39.0256
46.341860148, 96.390, 1380.0, 37.1484
46.368120714, 96.390, 1332.0, 36.4966
46.394381279, 96.390, 1442.0, 37.9737
46.420641844, 96.390, 1396.0, 37.3631
46.446902410, 96.390, 1458.0, 38.1838
46.473162975, 96.390, 1398.0, 37.3898
46.499423540, 96.390, 1416.0, 37.6298
46.525684106, 96.390, 1391.0, 37.2961
46.551944671, 96.390, 1331.0, 36.4829
46.578205236, 96.390, 1424.0, 37.7359
46.604465802, 96.390, 1379.0, 37.1349
46.630726367, 96.390, 1324.0, 36.3868
46.656986932, 96.390, 1346.0, 36.6879
46.683247498, 96.390, 1308.0, 36.1663
46.709508063, 96.390, 1321.0, 36.3456
46.735768629, 96.390, 1399.0, 37.4032
46.762029194, 96.390, 1415.0, 37.6165
46.788289759, 96.390, 1315.0, 36.2629
46.814550325, 96.390, 1271.0, 35.6511
46.840810890, 96.390, 1341.0, 36.6197
46.867071455, 96.390, 1294.0, 35.9722
46.893332021, 96.390, 1280.0, 35.7771
46.919592586, 96.390, 1285.0, 35.8469
46.945853151, 96.390, 1269.0, 35.6230
46.972113717, 96.390, 1327.0, 36.4280
46.998374282, 96.390, 1229.0, 35.0571
47.024634847, 96.390, 1323.0, 36.3731
47.050895413, 96.390, 1301.0, 36.0694
47.077155978, 96.390, 1255.0, 35.4260
47.103416543, 96.390, 1223.0, 34.9714
47.129677109, 96.390, 1331.0, 36.4829
47.155937674, 96.390, 1276.0, 35.7211
47.182198240, 96.390, 1259.0, 35.4824
47.208458805, 96.390, 1248.0, 35.3270
47.234719370, 96.390, 1282.0, 35.8050
47.260979936, 96.390, 1312.0, 36.2215
47.287240501, 96.390, 1316.0, 36.2767
47.313501066, 96.390, 1270.0, 35.6371
47.339761632, 96.390, 1279.0, 35.7631
47.366022197, 96.390, 1294.0, 35.9722
47.392282762, 96.390, 1293.0, 35.9583
47.418543328, 96.390, 1333.0, 36.5103
47.444803893, 96.390, 1280.0, 35.7771
47.471064458, 96.390, 1232.0, 35.0999
47.497325024, 96.390, 1301.0, 36.0694
47.523585589, 96.390, 1321.0, 36.3456
47.549846155, 96.390, 1266.0, 35.5809
47.576106720, 96.390, 1312.0, 36.2215
47.602367285, 96.390, 1281.0, 35.7911
47.628627851, 96.390, 1224.0, 34.9857
47.654888416, 96.390, 1291.0, 35.9305
47.681148981, 96.390, 1312.0, 36.2215
47.707409547, 96.390, 1283.0, 35.8190
47.733670112, 96.390, 1316.0, 36.2767
47.759930677, 96.390, 1324.0, 36.3868
47.786191243, 96.390, 1248.0, 35.3270
47.812451808, 96.390, 1300.0, 36.0555
47.838712373, 96.390, 1243.0, 35.2562
47.864972939, 96.390, 1346.0, 36.6879
47.891233504, 96.390, 1358.0, 36.8511
47.917494069, 96.390, 1341.0, 36.6197
47.943754635, 96.390, 1356.0, 36.8239
47.970015200, 96.390, 1319.0, 36.3180
47.996275766, 96.390, 1294.0, 35.9722
48.022536331, 96.390, 1253.0, 35.3977
48.048796896, 96.390, 1364.0, 36.9324
48.075057462, 96.390, 1300.0, 36.0555
48.101318027, 96.390, 1402.0, 37.4433
48.127578592, 96.390, 1293.0, 35.9583
48.153839158, 96.390, 1344.0, 36.6606
48.180099723, 96.390, 1384.0, 37.2022
48.206360288, 96.390, 1303.0, 36.0971
48.232620854, 96.390, 1354.0, 36.7967
48.258881419, 96.390, 1257.0, 35.4542
48.285141984, 96.390, 1376.0, 37.0945
48.311402550, 96.390, 1247.0, 35.3129
48.337663115, 96.390, 1282.0, 35.8050
48.363923681, 96.390, 1216.0, 34.8712
48.390184246, 96.390, 1335.0, 36.5377
48.416444811, 96.390, 1284.0, 35.8329
48.442705377, 96.390, 1258.0, 35.4683
48.468965942, 96.390, 1375.0, 37.0810
48.495226507, 96.390, 1306.0, 36.1386
48.521487073, 96.390, 1368.0, 36.9865
48.547747638, 96.390, 1382.0, 37.1753
48.574008203, 96.390, 1352.0, 36.7696
48.600268769, 96.390, 1285.0, 35.8469
48.626529334, 96.390, 1306.0, 36.1386
48.652789899, 96.390, 1325.0, 36.4005
48.679050465, 96.390, 1411.0, 37.5633
48.705311030, 96.390, 1453.0, 38.1182
48.731571595, 96.390, 1376.0, 37.0945
48.757832161, 96.390, 1364.0, 36.9324
48.784092726, 96.390, 1304.0, 36.1109
48.810353292, 96.390, 1279.0, 35.7631
48.836613857, 96.390, 1347.0, 36.7015
48.862874422, 96.390, 1336.0, 36.5513
48.889134988, 96.390, 1381.0, 37.1618
48.915395553, 96.390, 1320.0, 36.3318
48.941656118, 96.390, 1374.0, 37.0675
48.967916684, 96.390, 1332.0, 36.4966
48.994177249, 96.390, 1331.0, 36.4829
49.020437814, 96.390, 1309.0, 36.1801
49.046698380, 96.390, 1358.0, 36.8511
49.072958945, 96.390, 1295.0, 35.9861
49.099219510, 96.390, 1349.0, 36.7287
49.125480076, 96.390, 1317.0, 36.2905
49.151740641, 96.390, 1317.0, 36.2905
49.178001207, 96.390, 1280.0, 35.7771
49.204261772, 96.390, 1312.0, 36.2215
49.230522337, 96.390, 1306.0, 36.1386
49.256782903, 96.390, 1335.0, 36.5377
49.283043468, 96.390, 1274.0, 35.6931
49.309304033, 96.390, 1272.0, 35.6651
49.335564599, 96.390, 1284.0, 35.8329
49.361825164, 96.390, 1311.0, 36.2077
49.388085729, 96.390, 1340.0, 36.6060
49.414346295, 96.390, 1256.0, 35.4401
49.440606860, 96.390, 1266.0, 35.5809
49.466867425, 96.390, 1351.0, 36.7560
49.493127991, 96.390, 1290.0, 35.9166
49.519388556, 96.390, 1311.0, 36.2077
49.545649121, 96.390, 1267.0, 35.5949
49.571909687, 96.390, 1233.0, 35.1141
49.598170252, 96.390, 1158.0, 34.0294
49.624430818, 96.390, 1223.0, 34.9714
49.650691383, 96.390, 1245.0, 35.2846
49.676951948, 96.390, 1322.0, 36.3593
49.703212514, 96.390, 1262.0, 35.5246
49.729473079, 96.390, 1234.0, 35.1283
49.755733644, 96.390, 1227.0, 35.0286
49.781994210, 96.390, 1204.0, 34.6987
49.808254775, 96.390, 1286.0, 35.8608
49.834515340, 96.390, 1239.0, 35.1994
49.860775906, 96.390, 1190.0, 34.4964
49.887036471, 96.390, 1215.0, 34.8569
49.913297036, 96.390, 1245.0, 35.2846
49.939557602, 96.390, 1171.0, 34.2199
49.965818167, 96.390, 1160.0, 34.0588
49.992078732, 96.390, 1167.0, 34.1614
50.018339298, 96.390, 1142.0, 33.7935
50.044599863, 96.390, 1222.0, 34.9571
50.070860429, 96.390, 1148.0, 33.8821
50.097120994, 96.390, 1195.0, 34.5688
50.123381559, 96.390, 1207.0, 34.7419
50.149642125, 96.390, 1126.0, 33.5559
50.175902690, 96.390, 1140.0, 33.7639
50.202163255, 96.390, 1098.0, 33.1361
50.228423821, 96.390, 1119.0, 33.4515
50.254684386, 96.390, 1211.0, 34.7994
50.280944951, 96.390, 1164.0, 34.1174
50.307205517, 96.390, 1127.0, 33.5708
50.333466082, 96.390, 1127.0, 33.5708
50.359726647, 96.390, 1187.0, 34.4529
50.385987213, 96.390, 1181.0, 34.3657
50.412247778, 96.390, 1168.0, 34.1760
50.438508344, 96.390, 1145.0, 33.8378
50.464768909, 96.390, 1146.0, 33.8526
50.491029474, 96.390, 1171.0, 34.2199
50.517290040, 96.390, 1178.0, 34.3220
50.543550605, 96.390, 1143.0, 33.8083
50.569811170, 96.390, 1143.0, 33.8083
50.596071736, 96.390, 1119.0, 33.4515
50.622332301, 96.390, 1152.0, 33.9411
50.648592866, 96.390, 1174.0, 34.2637
50.674853432, 96.390, 1065.0, 32.6343
50.701113997, 96.390, 1133.0, 33.6601
50.727374562, 96.390, 1088.0, 32.9848
50.753635128, 96.390, 1131.0, 33.6303
50.779895693, 96.390, 1078.0, 32.8329
50.806156258, 96.390, 1134.0, 33.6749
50.832416824, 96.390, 1199.0, 34.6266
50.858677389, 96.390, 1081.0, 32.8786
50.884937955, 96.390, 1121.0, 33.4813
50.911198520, 96.390, 1082.0, 32.8938
50.937459085, 96.390, 1049.0, 32.3883
50.963719651, 96.390, 1138.0, 33.7343
50.989980216, 96.390, 1099.0, 33.1512
51.016240781, 96.390, 1111.0, 33.3317
51.042501347, 96.390, 1189.0, 34.4819
51.068761912, 96.390, 1139.0, 33.7491
51.095022477, 96.390, 1136.0, 33.7046
51.121283043, 96.390, 1074.0, 32.7719
51.147543608, 96.390, 1215.0, 34.8569
51.173804173, 96.390, 1118.0, 33.4365
51.200064739, 96.390, 1073.0, 32.7567
51.226325304, 96.390, 1124.0, 33.5261
51.252585870, 96.390, 1060.0, 32.5576
51.278846435, 96.390, 1026.0, 32.0312
51.305107000, 96.390, 1144.0, 33.8231
51.331367566, 96.390, 1121.0, 33.4813
51.357628131, 96.390, 1140.0, 33.7639
51.383888696, 96.390, 1084.0, 32.9242
51.410149262, 96.390, 1067.0, 32.6650
51.436409827, 96.390, 1104.0, 33.2265
51.462670392, 96.390, 1112.0, 33.3467
51.488930958, 96.390, 1082.0, 32.8938
51.515191523, 96.390, 1119.0, 33.4515
51.541452088, 96.390, 1085.0, 32.9393
51.567712654, 96.390, 1160.0, 34.0588
51.593973219, 96.390, 1055.0, 32.4808
51.620233784, 96.390, 1086.0, 32.9545
51.646494350, 96.390, 1118.0, 33.4365
51.672754915, 96.390, 1081.0, 32.8786
51.699015481, 96.390, 1050.0, 32.4037
51.725276046, 96.390, 1088.0, 32.9848
51.751536611, 96.390, 1086.0, 32.9545
51.777797177, 96.390, 1094.0, 33.0757
51.804057742, 96.390, 993.0, 31.5119
51.830318307, 96.390, 1064.0, 32.6190
51.856578873, 96.390, 1095.0, 33.0908
51.882839438, 96.390, 1050.0, 32.4037
51.909100003, 96.390, 1065.0, 32.6343
51.935360569, 96.390, 1064.0, 32.6190
51.961621134, 96.390, 1053.0, 32.4500
51.987881699, 96.390, 1068.0, 32.6803
52.014142265, 96.390, 1095.0, 33.0908
52.040402830, 96.390, 1016.0, 31.8748
52.066663396, 96.390, 1026.0, 32.0312
52.092923961, 96.390, 1099.0, 33.1512
52.119184526, 96.390, 1050.0, 32.4037
52.145445092, 96.390, 1034.0, 32.1559
52.171705657, 96.390, 1106.0, 33.2566
52.197966222, 96.390, 994.0, 31.5278
52.224226788, 96.390, 1138.0, 33.7343
52.250487353, 96.390, 1089.0, 33.0000
52.276747918, 96.390, 1038.0, 32.2180
52.303008484, 96.390, 1047.0, 32.3574
52.329269049, 96.390, 1019.0, 31.9218
52.355529614, 96.390, 1091.0, 33.0303
52.381790180, 96.390, 1229.0, 35.0571
52.408050745, 96.390, 1234.0, 35.1283
52.434311310, 96.390, 1129.0, 33.6006
52.460571876, 96.390, 1019.0, 31.9218
52.486832441, 96.390, 1095.0, 33.0908
52.513093007, 96.390, 1121.0, 33.4813
52.539353572, 96.390, 1102.0, 33.1964
52.565614137, 96.390, 1071.0, 32.7261
52.591874703, 96.390, 1097.0, 33.1210
52.618135268, 96.390, 1035.0, 32.1714
52.644395833, 96.390, 1031.0, 32.1092
52.670656399, 96.390, 1057.0, 32.5115
52.696916964, 96.390, 1042.0, 32.2800
52.723177529, 96.390, 1070.0, 32.7109
52.749438095, 96.390, 1015.0, 31.8591
52.775698660, 96.390, 1072.0, 32.7414
52.801959225, 96.390, 1002.0, 31.6544
52.828219791, 96.390, 1055.0, 32.4808
52.854480356, 96.390, 1018.0, 31.9061
52.880740922, 96.390, 994.0, 31.5278
52.907001487, 96.390, 1043.0, 32.2955
52.933262052, 96.390, 1105.0, 33.2415
52.959522618, 96.390, 1068.0, 32.6803
52.985783183, 96.390, 1004.0, 31.6860
53.012043748, 96.390, 1070.0, 32.7109
53.038304314, 96.390, 1055.0, 32.4808
53.064564879, 96.390, 1100.0, 33.1662
53.090825444, 96.390, 1107.0, 33.2716
53.117086010, 96.390, 1122.0, 33.4963
53.143346575, 96.390, 1070.0, 32.7109
53.169607140, 96.390, 1123.0, 33.5112
53.195867706, 96.390, 1106.0, 33.2566
53.222128271, 96.390, 1206.0, 34.7275
53.248388836, 96.390, 1141.0, 33.7787
53.274649402, 96.390, 1089.0, 33.0000
53.300909967, 96.390, 1063.0, 32.6037
53.327170533, 96.390, 1079.0, 32.8481
53.353431098, 96.390, 1084.0, 32.9242
53.379691663, 96.390, 1039.0, 32.2335
53.405952229, 96.390, 1002.0, 31.6544
53.432212794, 96.390, 1041.0, 32.2645
53.458473359, 96.390, 998.0, 31.5911
53.484733925, 96.390, 959.0, 30.9677
53.510994490, 96.390, 997.0, 31.5753
53.537255055, 96.390, 1014.0, 31.8434
53.563515621, 96.390, 955.0, 30.9031
53.589776186, 96.390, 966.0, 31.0805
53.616036751, 96.390, 975.0, 31.2250
53.642297317, 96.390, 982.0, 31.3369
53.668557882, 96.390, 979.0, 31.2890
53.694818448, 96.390, 1022.0, 31.9687
53.721079013, 96.390, 985.0, 31.3847
53.747339578, 96.390, 1018.0, 31.9061
53.773600144, 96.390, 995.0, 31.5436
53.799860709, 96.390, 1034.0, 32.1559
53.826121274, 96.390, 1019.0, 31.9218
53.852381840, 96.390, 976.0, 31.2410
53.878642405, 96.390, 1032.0, 32.1248
53.904902970, 96.390, 1046.0, 32.3419
53.931163536, 96.390, 968.0, 31.1127
53.957424101, 96.390, 1027.0, 32.0468
53.983684666, 96.390, 977.0, 31.2570
54.009945232, 96.390, 993.0, 31.5119
54.036205797, 96.390, 973.0, 31.1929
54.062466362, 96.390, 1070.0, 32.7109
54.088726928, 96.390, 1023.0, 31.9844
54.114987493, 96.390, 1084.0, 32.9242
54.141248059, 96.390, 1062.0, 32.5883
54.167508624, 96.390, 1022.0, 31.9687
54.193769189, 96.390, 997.0, 31.5753
54.220029755, 96.390, 940.0, 30.6594
54.246290320, 96.390, 1036.0, 32.1870
54.272550885, 96.390, 1017.0, 31.8904
54.298811451, 96.390, 1045.0, 32.3265
54.325072016, 96.390, 970.0, 31.1448
54.351332581, 96.390, 1029.0, 32.0780
54.377593147, 96.390, 1005.0, 31.7017
54.403853712, 96.390, 1031.0, 32.1092
54.430114277, 96.390, 958.0, 30.9516
54.456374843, 96.390, 1018.0, 31.9061
54.482635408, 96.390, 1028.0, 32.0624
54.508895973, 96.390, 965.0, 31.0644
54.535156539, 96.390, 1024.0, 32.0000
54.561417104, 96.390, 1020.0, 31.9374
54.587677670, 96.390, 1049.0, 32.3883
54.613938235, 96.390, 1006.0, 31.7175
54.640198800, 96.390, 969.0, 31.1288
54.666459366, 96.390, 949.0, 30.8058
54.692719931, 96.390, 974.0, 31.2090
54.718980496, 96.390, 1049.0, 32.3883
54.745241062, 96.390, 988.0, 31.4325
54.771501627, 96.390, 1000.0, 31.6228
54.797762192, 96.390, 938.0, 30.6268
54.824022758, 96.390, 932.0, 30.5287
54.850283323, 96.390, 1056.0, 32.4962
54.876543888, 96.390, 991.0, 31.4802
54.902804454, 96.390, 970.0, 31.1448
54.929065019, 96.390, 981.0, 31.3209
54.955325585, 96.390, 1004.0, 31.6860
54.981586150, 96.390, 950.0, 30.8221
55.007846715, 96.390, 958.0, 30.9516
55.034107281, 96.390, 1064.0, 32.6190
55.060367846, 96.390, 1021.0, 31.9531
55.086628411, 96.390, 1054.0, 32.4654
55.112888977, 96.390, 1104.0, 33.2265
55.139149542, 96.390, 1081.0, 32.8786
55.165410107, 96.390, 977.0, 31.2570
55.191670673, 96.390, 984.0, 31.3688
55.217931238, 96.390, 946.0, 30.7571
55.244191803, 96.390, 1028.0, 32.0624
55.270452369, 96.390, 1116.0, 33.4066
55.296712934, 96.390, 1011.0, 31.7962
55.322973499, 96.390, 959.0, 30.9677
55.349234065, 96.390, 935.0, 30.5778
55.375494630, 96.390, 974.0, 31.2090
55.401755196, 96.390, 918.0, 30.2985
55.428015761, 96.390, 1011.0, 31.7962
55.454276326, 96.390, 983.0, 31.3528
55.480536892, 96.390, 968.0, 31.1127
55.506797457, 96.390, 987.0, 31.4166
55.533058022, 96.390, 969.0, 31.1288
55.559318588, 96.390, 959.0, 30.9677
55.585579153, 96.390, 999.0, 31.6070
55.611839718, 96.390, 1008.0, 31.7490
55.638100284, 96.390, 974.0, 31.2090
55.664360849, 96.390, 956.0, 30.9192
55.690621414, 96.390, 1011.0, 31.7962
55.716881980, 96.390, 940.0, 30.6594
55.743142545, 96.390, 955.0, 30.9031
55.769403111, 96.390, 908.0, 30.1330
55.795663676, 96.390, 994.0, 31.5278
55.821924241, 96.390, 982.0, 31.3369
55.848184807, 96.390, 958.0, 30.9516
55.874445372, 96.390, 951.0, 30.8383
55.900705937, 96.390, 974.0, 31.2090
55.926966503, 96.390, 936.0, 30.5941
55.953227068, 96.390, 961.0, 31.0000
55.979487633, 96.390, 982.0, 31.3369
56.005748199, 96.390, 924.0, 30.3974
56.032008764, 96.390, 977.0, 31.2570
56.058269329, 96.390, 987.0, 31.4166
56.084529895, 96.390, 935.0, 30.5778
56.110790460, 96.390, 977.0, 31.2570
56.137051025, 96.390, 981.0, 31.3209
56.163311591, 96.390, 904.0, 30.0666
56.189572156, 96.390, 978.0, 31.2730
56.215832722, 96.390, 946.0, 30.7571
56.242093287, 96.390, 925.0, 30.4138
56.268353852, 96.390, 932.0, 30.5287
56.294614418, 96.390, 938.0, 30.6268
56.320874983, 96.390, 963.0, 31.0322
56.347135548, 96.390, 936.0, 30.5941
56.373396114, 96.390, 947.0, 30.7734
56.399656679, 96.390, 950.0, 30.8221
56.425917244, 96.390, 1008.0, 31.7490
56.452177810, 96.390, 997.0, 31.5753
56.478438375, 96.390, 929.0, 30.4795
56.504698940, 96.390, 973.0, 31.1929
56.530959506, 96.390, 912.0, 30.1993
56.557220071, 96.390, 997.0, 31.5753
56.583480637, 96.390, 905.0, 30.0832
56.609741202, 96.390, 979.0, 31.2890
56.636001767, 96.390, 957.0, 30.9354
56.662262333, 96.390, 893.0, 29.8831
56.688522898, 96.390, 959.0, 30.9677
56.714783463, 96.390, 979.0, 31.2890
56.741044029, 96.390, 950.0, 30.8221
56.767304594, 96.390, 969.0, 31.1288
56.793565159, 96.390, 1016.0, 31.8748
56.819825725, 96.390, 986.0, 31.4006
56.846086290, 96.390, 978.0, 31.2730
56.872346855, 96.390, 992.0, 31.4960
56.898607421, 96.390, 959.0, 30.9677
56.924867986, 96.390, 1007.0, 31.7333
56.951128551, 96.390, 971.0, 31.1609
56.977389117, 96.390, 933.0, 30.5450
57.003649682, 96.390, 973.0, 31.1929
57.029910248, 96.390, 941.0, 30.6757
57.056170813, 96.390, 911.0, 30.1828
57.082431378, 96.390, 968.0, 31.1127
57.108691944, 96.390, 963.0, 31.0322
57.134952509, 96.390, 928.0, 30.4631
57.161213074, 96.390, 993.0, 31.5119
57.187473640, 96.390, 975.0, 31.2250
57.213734205, 96.390, 1015.0, 31.8591
57.239994770, 96.390, 949.0, 30.8058
57.266255336, 96.390, 1049.0, 32.3883
57.292515901, 96.390, 948.0, 30.7896
57.318776466, 96.390, 984.0, 31.3688
57.345037032, 96.390, 972.0, 31.1769
57.371297597, 96.390, 947.0, 30.7734
57.397558163, 96.390, 1042.0, 32.2800
57.423818728, 96.390, 979.0, 31.2890
57.450079293, 96.390, 1020.0, 31.9374
57.476339859, 96.390, 1061.0, 32.5730
57.502600424, 96.390, 1088.0, 32.9848
57.528860989, 96.390, 992.0, 31.4960
57.555121555, 96.390, 977.0, 31.2570
57.581382120, 96.390, 968.0, 31.1127
57.607642685, 96.390, 955.0, 30.9031
57.633903251, 96.390, 1014.0, 31.8434
57.660163816, 96.390, 981.0, 31.3209
57.686424381, 96.390, 1000.0, 31.6228
57.712684947, 96.390, 1036.0, 32.1870
57.738945512, 96.390, 1059.0, 32.5423
57.765206077, 96.390, 1005.0, 31.7017
57.791466643, 96.390, 1035.0, 32.1714
57.817727208, 96.390, 993.0, 31.5119
57.843987774, 96.390, 998.0, 31.5911
57.870248339, 96.390, 1005.0, 31.7017
57.896508904, 96.390, 1046.0, 32.3419
57.922769470, 96.390, 938.0, 30.6268
57.949030035, 96.390, 961.0, 31.0000
57.975290600, 96.390, 929.0, 30.4795
58.001551166, 96.390, 956.0, 30.9192
58.027811731, 96.390, 929.0, 30.4795
58.054072296, 96.390, 983.0, 31.3528
58.080332862, 96.390, 932.0, 30.5287
58.106593427, 96.390, 913.0, 30.2159
58.132853992, 96.390, 929.0, 30.4795
58.159114558, 96.390, 937.0, 30.6105
58.185375123, 96.390, 921.0, 30.3480
58.211635689, 96.390, 909.0, 30.1496
58.237896254, 96.390, 894.0, 29.8998
58.264156819, 96.390, 949.0, 30.8058
58.290417385, 96.390, 931.0, 30.5123
58.316677950, 96.390, 922.0, 30.3645
58.342938515, 96.390, 921.0, 30.3480
58.369199081, 96.390, 924.0, 30.3974
58.395459646, 96.390, 986.0, 31.4006
58.421720211, 96.390, 973.0, 31.1929
58.447980777, 96.390, 930.0, 30.4959
58.474241342, 96.390, 916.0, 30.2655
58.500501907, 96.390, 946.0, 30.7571
58.526762473, 96.390, 887.0, 29.7825
58.553023038, 96.390, 932.0, 30.5287
58.579283603, 96.390, 963.0, 31.0322
58.605544169, 96.390, 932.0, 30.5287
58.631804734, 96.390, 930.0, 30.4959
58.658065300, 96.390, 962.0, 31.0161
58.684325865, 96.390, 961.0, 31.0000
58.710586430, 96.390, 962.0, 31.0161
58.736846996, 96.390, 935.0, 30.5778
58.763107561, 96.390, 884.0, 29.7321
58.789368126, 96.390, 910.0, 30.1662
58.815628692, 96.390, 958.0, 30.9516
58.841889257, 96.390, 987.0, 31.4166
58.868149822, 96.390, 911.0, 30.1828
58.894410388, 96.390, 953.0, 30.8707
58.920670953, 96.390, 974.0, 31.2090
58.946931518, 96.390, 944.0, 30.7246
58.973192084, 96.390, 1014.0, 31.8434
58.999452649, 96.390, 929.0, 30.4795
59.025713214, 96.390, 939.0, 30.6431
59.051973780, 96.390, 967.0, 31.0966
59.078234345, 96.390, 967.0, 31.0966
59.104494911, 96.390, 947.0, 30.7734
59.130755476, 96.390, 965.0, 31.0644
59.157016041, 96.390, 941.0, 30.6757
59.183276607, 96.390, 973.0, 31.1929
59.209537172, 96.390, 967.0, 31.0966
59.235797737, 96.390, 957.0, 30.9354
59.262058303, 96.390, 930.0, 30.4959
59.288318868, 96.390, 996.0, 31.5595
59.314579433, 96.390, 1017.0, 31.8904
59.340839999, 96.390, 980.0, 31.3050
59.367100564, 96.390, 978.0, 31.2730
59.393361129, 96.390, 965.0, 31.0644
59.419621695, 96.390, 935.0, 30.5778
59.445882260, 96.390, 996.0, 31.5595
59.472142826, 96.390, 981.0, 31.3209
59.498403391, 96.390, 987.0, 31.4166
59.524663956, 96.390, 946.0, 30.7571
59.550924522, 96.390, 917.0, 30.2820
59.577185087, 96.390, 917.0, 30.2820
59.603445652, 96.390, 975.0, 31.2250
59.629706218, 96.390, 1011.0, 31.7962
59.655966783, 96.390, 972.0, 31.1769
59.682227348, 96.390, 1022.0, 31.9687
59.708487914, 96.390, 990.0, 31.4643
59.734748479, 96.390, 1033.0, 32.1403
59.761009044, 96.390, 960.0, 30.9839
59.787269610, 96.390, 967.0, 31.0966
59.813530175, 96.390, 1042.0, 32.2800
59.839790740, 96.390, 989.0, 31.4484
59.866051306, 96.390, 976.0, 31.2410
59.892311871, 96.390, 1023.0, 31.9844
59.918572437, 96.390, 987.0, 31.4166
59.944833002, 96.390, 984.0, 31.3688
59.971093567, 96.390, 1035.0, 32.1714
59.997354133, 96.390, 970.0, 31.1448
60.023614698, 96.390, 1031.0, 32.1092
60.049875263, 96.390, 1052.0, 32.4345
60.076135829, 96.390, 1096.0, 33.1059
60.102396394, 96.390, 1025.0, 32.0156
60.128656959, 96.390, 990.0, 31.4643
60.154917525, 96.390, 986.0, 31.4006
60.181178090, 96.390, 1035.0, 32.1714
60.207438655, 96.390, 1011.0, 31.7962
60.233699221, 96.390, 948.0, 30.7896
60.259959786, 96.390, 1033.0, 32.1403
60.286220352, 96.390, 968.0, 31.1127
60.312480917, 96.390, 1038.0, 32.2180
60.338741482, 96.390, 1008.0, 31.7490
60.365002048, 96.390, 993.0, 31.5119
60.391262613, 96.390, 1027.0, 32.0468
60.417523178, 96.390, 1034.0, 32.1559
60.443783744, 96.390, 1016.0, 31.8748
60.470044309, 96.390, 1111.0, 33.3317
60.496304874, 96.390, 1073.0, 32.7567
60.522565440, 96.390, 1026.0, 32.0312
60.548826005, 96.390, 1031.0, 32.1092
60.575086570, 96.390, 1087.0, 32.9697
60.601347136, 96.390, 1109.0, 33.3017
60.627607701, 96.390, 1109.0, 33.3017
60.653868266, 96.390, 1112.0, 33.3467
60.680128832, 96.390, 1096.0, 33.1059
60.706389397, 96.390, 1119.0, 33.4515
60.732649963, 96.390, 1116.0, 33.4066
60.758910528, 96.390, 1136.0, 33.7046
60.785171093, 96.390, 1136.0, 33.7046
60.811431659, 96.390, 1132.0, 33.6452
60.837692224, 96.390, 1152.0, 33.9411
60.863952789, 96.390, 1153.0, 33.9559
60.890213355, 96.390, 1115.0, 33.3916
60.916473920, 96.390, 1130.0, 33.6155
60.942734485, 96.390, 1149.0, 33.8969
60.968995051, 96.390, 1170.0, 34.2053
60.995255616, 96.390, 1232.0, 35.0999
61.021516181, 96.390, 1161.0, 34.0735
61.047776747, 96.390, 1204.0, 34.6987
61.074037312, 96.390, 1182.0, 34.3802
61.100297878, 96.390, 1207.0, 34.7419
61.126558443, 96.390, 1221.0, 34.9428
61.152819008, 96.390, 1182.0, 34.3802
61.179079574, 96.390, 1196.0, 34.5832
61.205340139, 96.390, 1180.0, 34.3511
61.231600704, 96.390, 1186.0, 34.4384
61.257861270, 96.390, 1223.0, 34.9714
61.284121835, 96.390, 1203.0, 34.6843
61.310382400, 96.390, 1212.0, 34.8138
61.336642966, 96.390, 1186.0, 34.4384
61.362903531, 96.390, 1132.0, 33.6452
61.389164096, 96.390, 1190.0, 34.4964
61.415424662, 96.390, 1185.0, 34.4238
61.441685227, 96.390, 1145.0, 33.8378
61.467945792, 96.390, 1134.0, 33.6749
61.494206358, 96.390, 1146.0, 33.8526
61.520466923, 96.390, 1121.0, 33.4813
61.546727489, 96.390, 1179.0, 34.3366
61.572988054, 96.390, 1144.0, 33.8231
61.599248619, 96.390, 1162.0, 34.0881
61.625509185, 96.390, 1195.0, 34.5688
61.651769750, 96.390, 1132.0, 33.6452
61.678030315, 96.390, 1191.0, 34.5109
61.704290881, 96.390, 1189.0, 34.4819
61.730551446, 96.390, 1195.0, 34.5688
61.756812011, 96.390, 1177.0, 34.3074
61.783072577, 96.390, 1161.0, 34.0735
61.809333142, 96.390, 1085.0, 32.9393
61.835593707, 96.390, 1142.0, 33.7935
61.861854273, 96.390, 1174.0, 34.2637
61.888114838, 96.390, 1203.0, 34.6843
61.914375404, 96.390, 1156.0, 34.0000
61.940635969, 96.390, 1152.0, 33.9411
61.966896534, 96.390, 1094.0, 33.0757
61.993157100, 96.390, 1093.0, 33.0606
62.019417665, 96.390, 1174.0, 34.2637
62.045678230, 96.390, 1103.0, 33.2114
62.071938796, 96.390, 1144.0, 33.8231
62.098199361, 96.390, 1171.0, 34.2199
62.124459926, 96.390, 1141.0, 33.7787
62.150720492, 96.390, 1114.0, 33.3766
62.176981057, 96.390, 1124.0, 33.5261
62.203241622, 96.390, 1160.0, 34.0588
62.229502188, 96.390, 1088.0, 32.9848
62.255762753, 96.390, 1131.0, 33.6303
62.282023318, 96.390, 1154.0, 33.9706
62.308283884, 96.390, 1140.0, 33.7639
62.334544449, 96.390, 1161.0, 34.0735
62.360805015, 96.390, 1064.0, 32.6190
62.387065580, 96.390, 1121.0, 33.4813
62.413326145, 96.390, 1065.0, 32.6343
62.439586711, 96.390, 1082.0, 32.8938
62.465847276, 96.390, 1094.0, 33.0757
62.492107841, 96.390, 1048.0, 32.3728
62.518368407, 96.390, 1051.0, 32.4191
62.544628972, 96.390, 1113.0, 33.3617
62.570889537, 96.390, 1072.0, 32.7414
62.597150103, 96.390, 1085.0, 32.9393
62.623410668, 96.390, 1065.0, 32.6343
62.649671233, 96.390, 1077.0, 32.8177
62.675931799, 96.390, 1053.0, 32.4500
62.702192364, 96.390, 1072.0, 32.7414
62.728452930, 96.390, 1106.0, 33.2566
62.754713495, 96.390, 983.0, 31.3528
62.780974060, 96.390, 1041.0, 32.2645
62.807234626, 96.390, 1060.0, 32.5576
62.833495191, 96.390, 1040.0, 32.2490
62.859755756, 96.390, 1035.0, 32.1714
62.886016322, 96.390, 1019.0, 31.9218
62.912276887, 96.390, 1069.0, 32.6956
62.938537452, 96.390, 1050.0, 32.4037
62.964798018, 96.390, 996.0, 31.5595
62.991058583, 96.390, 1065.0, 32.6343
63.017319148, 96.390, 1062.0, 32.5883
63.043579714, 96.390, 1075.0, 32.7872
63.069840279, 96.390, 1023.0, 31.9844
63.096100844, 96.390, 1032.0, 32.1248
63.122361410, 96.390, 1010.0, 31.7805
63.148621975, 96.390, 974.0, 31.2090
63.174882541, 96.390, 1018.0, 31.9061
63.201143106, 96.390, 1078.0, 32.8329
63.227403671, 96.390, 1035.0, 32.1714
63.253664237, 96.390, 1005.0, 31.7017
63.279924802, 96.390, 1011.0, 31.7962
63.306185367, 96.390, 1023.0, 31.9844
63.332445933, 96.390, 986.0, 31.4006
63.358706498, 96.390, 1022.0, 31.9687
63.384967063, 96.390, 946.0, 30.7571
63.411227629, 96.390, 995.0, 31.5436
63.437488194, 96.390, 926.0, 30.4302
63.463748759, 96.390, 975.0, 31.2250
63.490009325, 96.390, 973.0, 31.1929
63.516269890, 96.390, 1001.0, 31.6386
63.542530455, 96.390, 1044.0, 32.3110
63.568791021, 96.390, 994.0, 31.5278
63.595051586, 96.390, 1027.0, 32.0468
63.621312152, 96.390, 1005.0, 31.7017
63.647572717, 96.390, 979.0, 31.2890
63.673833282, 96.390, 989.0, 31.4484
63.700093848, 96.390, 961.0, 31.0000
63.726354413, 96.390, 1001.0, 31.6386
63.752614978, 96.390, 1050.0, 32.4037
63.778875544, 96.390, 972.0, 31.1769
63.805136109, 96.390, 948.0, 30.7896
63.831396674, 96.390, 962.0, 31.0161
63.857657240, 96.390, 1010.0, 31.7805
63.883917805, 96.390, 972.0, 31.1769
63.910178370, 96.390, 1087.0, 32.9697
63.936438936, 96.390, 1025.0, 32.0156
63.962699501, 96.390, 1005.0, 31.7017
63.988960067, 96.390, 950.0, 30.8221
64.015220632, 96.390, 1059.0, 32.5423
64.041481197, 96.390, 991.0, 31.4802
64.067741763, 96.390, 1009.0, 31.7648
64.094002328, 96.390, 1015.0, 31.8591
64.120262893, 96.390, 1000.0, 31.6228
64.146523459, 96.390, 962.0, 31.0161
64.172784024, 96.390, 1015.0, 31.8591
64.199044589, 96.390, 1032.0, 32.1248
64.225305155, 96.390, 954.0, 30.8869
64.251565720, 96.390, 993.0, 31.5119
64.277826285, 96.390, 1000.0, 31.6228
64.304086851, 96.390, 972.0, 31.1769
64.330347416, 96.390, 965.0, 31.0644
64.356607981, 96.390, 968.0, 31.1127
64.382868547, 96.390, 956.0, 30.9192
64.409129112, 96.390, 966.0, 31.0805
64.435389678, 96.390, 943.0, 30.7083
64.461650243, 96.390, 941.0, 30.6757
64.487910808, 96.390, 928.0, 30.4631
64.514171374, 96.390, 942.0, 30.6920
64.540431939, 96.390, 924.0, 30.3974
64.566692504, 96.390, 911.0, 30.1828
64.592953070, 96.390, 939.0, 30.6431
64.619213635, 96.390, 968.0, 31.1127
64.645474200, 96.390, 966.0, 31.0805
64.671734766, 96.390, 917.0, 30.2820
64.697995331, 96.390, 990.0, 31.4643
64.724255896, 96.390, 920.0, 30.3315
64.750516462, 96.390, 910.0, 30.1662
64.776777027, 96.390, 905.0, 30.0832
64.803037593, 96.390, 963.0, 31.0322
64.829298158, 96.390, 981.0, 31.3209
64.855558723, 96.390, 952.0, 30.8545
64.881819289, 96.390, 978.0, 31.2730
64.908079854, 96.390, 975.0, 31.2250
64.934340419, 96.390, 934.0, 30.5614
64.960600985, 96.390, 948.0, 30.7896
64.986861550, 96.390, 1056.0, 32.4962
