[Measurement conditions]
Sample identification,XRD_AlCorner31Jan22_Act15Feb22_B2_0465M_NaOH_LS0120_1
Comment - 1,"Configuration=Stage for Flat Samples/Holders, Owner=User-1, Creation date=7/1/2020 9:53:24 AM"
Comment - 2,"Goniometer=Theta/Theta; Minimum step size 2Theta:0.0001; Minimum step size Omega:0.0001"
Comment - 3,"Sample stage=Stage for flat samples/holders"
Comment - 4,"Diffractometer system=EMPYREAN"
Comment - 5,"Measurement program=C:\Users\ibo5034\OneDrive - The Pennsylvania State University\NEUP - Reed, Titus's files\XRD\Cement\Zerobackground scan.xrdmp, Identifier={98A3B11C-88F9-4AA6-982C-73314A311EF5}"
Anode material,Cu
K-Alpha1 wavelength,1.5405980
K-Alpha2 wavelength,1.5444260
Ratio K-Alpha2/K-Alpha1,0.500
Divergence slit,Fixed,0.25
Monochromator used,NO
Generator voltage, 45
Tube current, 40
File date and time,18/Feb/2022 12:45
Unit cell,
h k l, 0 0 0
Scan axis,Gonio
Scan range,4.994599997,64.999991833
Scan step size,0.0262606
No. of points, 2285
Scan type,CONTINUOUS
Time per step,96.390
[Scan points]
Angle, TimePerStep, Intensity, ESD
5.007730280, 96.390, 6807.0, 82.5045
5.033990845, 96.390, 6732.0, 82.0488
5.060251411, 96.390, 6622.0, 81.3757
5.086511976, 96.390, 6590.0, 81.1788
5.112772541, 96.390, 6557.0, 80.9753
5.139033107, 96.390, 6612.0, 81.3142
5.165293672, 96.390, 6572.0, 81.0679
5.191554237, 96.390, 6499.0, 80.6164
5.217814803, 96.390, 6373.0, 79.8311
5.244075368, 96.390, 6388.0, 79.9250
5.270335934, 96.390, 6352.0, 79.6994
5.296596499, 96.390, 6252.0, 79.0696
5.322857064, 96.390, 6398.0, 79.9875
5.349117630, 96.390, 6124.0, 78.2560
5.375378195, 96.390, 6171.0, 78.5557
5.401638760, 96.390, 6182.0, 78.6257
5.427899326, 96.390, 6142.0, 78.3709
5.454159891, 96.390, 6156.0, 78.4602
5.480420456, 96.390, 6050.0, 77.7817
5.506681022, 96.390, 6004.0, 77.4855
5.532941587, 96.390, 6071.0, 77.9166
5.559202152, 96.390, 6041.0, 77.7239
5.585462718, 96.390, 5926.0, 76.9805
5.611723283, 96.390, 5713.0, 75.5844
5.637983849, 96.390, 5871.0, 76.6225
5.664244414, 96.390, 5876.0, 76.6551
5.690504979, 96.390, 5844.0, 76.4461
5.716765545, 96.390, 5952.0, 77.1492
5.743026110, 96.390, 5769.0, 75.9539
5.769286675, 96.390, 5775.0, 75.9934
5.795547241, 96.390, 5746.0, 75.8024
5.821807806, 96.390, 5661.0, 75.2396
5.848068371, 96.390, 5856.0, 76.5245
5.874328937, 96.390, 5678.0, 75.3525
5.900589502, 96.390, 5696.0, 75.4718
5.926850067, 96.390, 5562.0, 74.5788
5.953110633, 96.390, 5350.0, 73.1437
5.979371198, 96.390, 5532.0, 74.3774
6.005631763, 96.390, 5546.0, 74.4715
6.031892329, 96.390, 5550.0, 74.4983
6.058152894, 96.390, 5536.0, 74.4043
6.084413460, 96.390, 5445.0, 73.7902
6.110674025, 96.390, 5450.0, 73.8241
6.136934590, 96.390, 5309.0, 72.8629
6.163195156, 96.390, 5337.0, 73.0548
6.189455721, 96.390, 5403.0, 73.5051
6.215716286, 96.390, 5361.0, 73.2189
6.241976852, 96.390, 5311.0, 72.8766
6.268237417, 96.390, 5322.0, 72.9520
6.294497982, 96.390, 5255.0, 72.4914
6.320758548, 96.390, 5300.0, 72.8011
6.347019113, 96.390, 5152.0, 71.7774
6.373279678, 96.390, 5185.0, 72.0069
6.399540244, 96.390, 5097.0, 71.3933
6.425800809, 96.390, 5103.0, 71.4353
6.452061375, 96.390, 5158.0, 71.8192
6.478321940, 96.390, 5060.0, 71.1337
6.504582505, 96.390, 4953.0, 70.3776
6.530843071, 96.390, 5153.0, 71.7844
6.557103636, 96.390, 5179.0, 71.9653
6.583364201, 96.390, 5013.0, 70.8025
6.609624767, 96.390, 5074.0, 71.2320
6.635885332, 96.390, 5034.0, 70.9507
6.662145897, 96.390, 5029.0, 70.9154
6.688406463, 96.390, 5101.0, 71.4213
6.714667028, 96.390, 4926.0, 70.1855
6.740927593, 96.390, 5094.0, 71.3723
6.767188159, 96.390, 4926.0, 70.1855
6.793448724, 96.390, 4903.0, 70.0214
6.819709289, 96.390, 4882.0, 69.8713
6.845969855, 96.390, 4947.0, 70.3349
6.872230420, 96.390, 4780.0, 69.1375
6.898490986, 96.390, 4885.0, 69.8928
6.924751551, 96.390, 4863.0, 69.7352
6.951012116, 96.390, 4826.0, 69.4694
6.977272682, 96.390, 4775.0, 69.1014
7.003533247, 96.390, 4962.0, 70.4415
7.029793812, 96.390, 4657.0, 68.2422
7.056054378, 96.390, 4755.0, 68.9565
7.082314943, 96.390, 4729.0, 68.7677
7.108575508, 96.390, 4584.0, 67.7052
7.134836074, 96.390, 4785.0, 69.1737
7.161096639, 96.390, 4692.0, 68.4982
7.187357204, 96.390, 4688.0, 68.4690
7.213617770, 96.390, 4501.0, 67.0895
7.239878335, 96.390, 4673.0, 68.3593
7.266138900, 96.390, 4509.0, 67.1491
7.292399466, 96.390, 4466.0, 66.8281
7.318660031, 96.390, 4660.0, 68.2642
7.344920597, 96.390, 4555.0, 67.4907
7.371181162, 96.390, 4567.0, 67.5796
7.397441727, 96.390, 4598.0, 67.8086
7.423702293, 96.390, 4446.0, 66.6783
7.449962858, 96.390, 4573.0, 67.6240
7.476223423, 96.390, 4482.0, 66.9477
7.502483989, 96.390, 4572.0, 67.6166
7.528744554, 96.390, 4613.0, 67.9191
7.555005119, 96.390, 4506.0, 67.1267
7.581265685, 96.390, 4520.0, 67.2309
7.607526250, 96.390, 4539.0, 67.3721
7.633786815, 96.390, 4525.0, 67.2681
7.660047381, 96.390, 4432.0, 66.5733
7.686307946, 96.390, 4315.0, 65.6887
7.712568512, 96.390, 4485.0, 66.9701
7.738829077, 96.390, 4474.0, 66.8880
7.765089642, 96.390, 4414.0, 66.4379
7.791350208, 96.390, 4348.0, 65.9394
7.817610773, 96.390, 4252.0, 65.2074
7.843871338, 96.390, 4356.0, 66.0000
7.870131904, 96.390, 4349.0, 65.9469
7.896392469, 96.390, 4326.0, 65.7723
7.922653034, 96.390, 4209.0, 64.8768
7.948913600, 96.390, 4258.0, 65.2534
7.975174165, 96.390, 4140.0, 64.3428
8.001434730, 96.390, 4218.0, 64.9461
8.027695296, 96.390, 4366.0, 66.0757
8.053955861, 96.390, 4127.0, 64.2417
8.080216426, 96.390, 4317.0, 65.7039
8.106476992, 96.390, 4213.0, 64.9076
8.132737557, 96.390, 4173.0, 64.5988
8.158998123, 96.390, 4218.0, 64.9461
8.185258688, 96.390, 4281.0, 65.4294
8.211519253, 96.390, 4025.0, 63.4429
8.237779819, 96.390, 4226.0, 65.0077
8.264040384, 96.390, 4187.0, 64.7070
8.290300949, 96.390, 4137.0, 64.3195
8.316561515, 96.390, 4157.0, 64.4748
8.342822080, 96.390, 4061.0, 63.7260
8.369082645, 96.390, 4185.0, 64.6916
8.395343211, 96.390, 4124.0, 64.2184
8.421603776, 96.390, 3973.0, 63.0317
8.447864341, 96.390, 4136.0, 64.3117
8.474124907, 96.390, 4047.0, 63.6160
8.500385472, 96.390, 4074.0, 63.8279
8.526646038, 96.390, 3934.0, 62.7216
8.552906603, 96.390, 4002.0, 63.2614
8.579167168, 96.390, 4017.0, 63.3798
8.605427734, 96.390, 3998.0, 63.2297
8.631688299, 96.390, 3889.0, 62.3618
8.657948864, 96.390, 3819.0, 61.7981
8.684209430, 96.390, 3966.0, 62.9762
8.710469995, 96.390, 4071.0, 63.8044
8.736730560, 96.390, 3983.0, 63.1110
8.762991126, 96.390, 3947.0, 62.8252
8.789251691, 96.390, 3860.0, 62.1289
8.815512256, 96.390, 3919.0, 62.6019
8.841772822, 96.390, 3917.0, 62.5859
8.868033387, 96.390, 3784.0, 61.5142
8.894293952, 96.390, 3987.0, 63.1427
8.920554518, 96.390, 3847.0, 62.0242
8.946815083, 96.390, 3830.0, 61.8870
8.973075649, 96.390, 3810.0, 61.7252
8.999336214, 96.390, 3939.0, 62.7615
9.025596779, 96.390, 3828.0, 61.8708
9.051857345, 96.390, 3856.0, 62.0967
9.078117910, 96.390, 3920.0, 62.6099
9.104378475, 96.390, 3791.0, 61.5711
9.130639041, 96.390, 3880.0, 62.2896
9.156899606, 96.390, 3872.0, 62.2254
9.183160171, 96.390, 3771.0, 61.4085
9.209420737, 96.390, 3716.0, 60.9590
9.235681302, 96.390, 3775.0, 61.4410
9.261941867, 96.390, 3845.0, 62.0081
9.288202433, 96.390, 3760.0, 61.3188
9.314462998, 96.390, 3782.0, 61.4980
9.340723564, 96.390, 3809.0, 61.7171
9.366984129, 96.390, 3699.0, 60.8194
9.393244694, 96.390, 3694.0, 60.7783
9.419505260, 96.390, 3777.0, 61.4573
9.445765825, 96.390, 3759.0, 61.3107
9.472026390, 96.390, 3654.0, 60.4483
9.498286956, 96.390, 3640.0, 60.3324
9.524547521, 96.390, 3678.0, 60.6465
9.550808086, 96.390, 3647.0, 60.3904
9.577068652, 96.390, 3587.0, 59.8916
9.603329217, 96.390, 3837.0, 61.9435
9.629589782, 96.390, 3662.0, 60.5145
9.655850348, 96.390, 3623.0, 60.1914
9.682110913, 96.390, 3684.0, 60.6960
9.708371478, 96.390, 3668.0, 60.5640
9.734632044, 96.390, 3652.0, 60.4318
9.760892609, 96.390, 3486.0, 59.0424
9.787153175, 96.390, 3573.0, 59.7746
9.813413740, 96.390, 3572.0, 59.7662
9.839674305, 96.390, 3553.0, 59.6070
9.865934871, 96.390, 3536.0, 59.4643
9.892195436, 96.390, 3604.0, 60.0333
9.918456001, 96.390, 3651.0, 60.4235
9.944716567, 96.390, 3484.0, 59.0254
9.970977132, 96.390, 3640.0, 60.3324
9.997237697, 96.390, 3588.0, 59.8999
10.023498263, 96.390, 3532.0, 59.4306
10.049758828, 96.390, 3602.0, 60.0167
10.076019393, 96.390, 3464.0, 58.8558
10.102279959, 96.390, 3472.0, 58.9237
10.128540524, 96.390, 3513.0, 59.2706
10.154801090, 96.390, 3481.0, 59.0000
10.181061655, 96.390, 3467.0, 58.8812
10.207322220, 96.390, 3422.0, 58.4979
10.233582786, 96.390, 3447.0, 58.7112
10.259843351, 96.390, 3498.0, 59.1439
10.286103916, 96.390, 3514.0, 59.2790
10.312364482, 96.390, 3462.0, 58.8388
10.338625047, 96.390, 3512.0, 59.2621
10.364885612, 96.390, 3392.0, 58.2409
10.391146178, 96.390, 3527.0, 59.3886
10.417406743, 96.390, 3433.0, 58.5918
10.443667308, 96.390, 3503.0, 59.1861
10.469927874, 96.390, 3389.0, 58.2151
10.496188439, 96.390, 3429.0, 58.5577
10.522449004, 96.390, 3352.0, 57.8965
10.548709570, 96.390, 3401.0, 58.3181
10.574970135, 96.390, 3446.0, 58.7026
10.601230701, 96.390, 3423.0, 58.5064
10.627491266, 96.390, 3398.0, 58.2924
10.653751831, 96.390, 3352.0, 57.8965
10.680012397, 96.390, 3401.0, 58.3181
10.706272962, 96.390, 3384.0, 58.1722
10.732533527, 96.390, 3383.0, 58.1636
10.758794093, 96.390, 3268.0, 57.1664
10.785054658, 96.390, 3288.0, 57.3411
10.811315223, 96.390, 3381.0, 58.1464
10.837575789, 96.390, 3294.0, 57.3934
10.863836354, 96.390, 3261.0, 57.1052
10.890096919, 96.390, 3326.0, 57.6715
10.916357485, 96.390, 3281.0, 57.2800
10.942618050, 96.390, 3308.0, 57.5152
10.968878616, 96.390, 3375.0, 58.0948
10.995139181, 96.390, 3336.0, 57.7581
11.021399746, 96.390, 3289.0, 57.3498
11.047660312, 96.390, 3290.0, 57.3585
11.073920877, 96.390, 3261.0, 57.1052
11.100181442, 96.390, 3237.0, 56.8946
11.126442008, 96.390, 3199.0, 56.5597
11.152702573, 96.390, 3297.0, 57.4195
11.178963138, 96.390, 3255.0, 57.0526
11.205223704, 96.390, 3299.0, 57.4369
11.231484269, 96.390, 3229.0, 56.8243
11.257744834, 96.390, 3270.0, 57.1839
11.284005400, 96.390, 3314.0, 57.5674
11.310265965, 96.390, 3134.0, 55.9821
11.336526530, 96.390, 3151.0, 56.1338
11.362787096, 96.390, 3158.0, 56.1961
11.389047661, 96.390, 3233.0, 56.8595
11.415308227, 96.390, 3218.0, 56.7274
11.441568792, 96.390, 3208.0, 56.6392
11.467829357, 96.390, 3249.0, 57.0000
11.494089923, 96.390, 3158.0, 56.1961
11.520350488, 96.390, 3262.0, 57.1139
11.546611053, 96.390, 3198.0, 56.5509
11.572871619, 96.390, 3320.0, 57.6194
11.599132184, 96.390, 3211.0, 56.6657
11.625392749, 96.390, 3156.0, 56.1783
11.651653315, 96.390, 3268.0, 57.1664
11.677913880, 96.390, 3255.0, 57.0526
11.704174445, 96.390, 3179.0, 56.3826
11.730435011, 96.390, 3070.0, 55.4076
11.756695576, 96.390, 3128.0, 55.9285
11.782956141, 96.390, 3113.0, 55.7943
11.809216707, 96.390, 3158.0, 56.1961
11.835477272, 96.390, 3202.0, 56.5862
11.861737838, 96.390, 3147.0, 56.0981
11.887998403, 96.390, 3132.0, 55.9643
11.914258968, 96.390, 3101.0, 55.6866
11.940519534, 96.390, 3098.0, 55.6597
11.966780099, 96.390, 3025.0, 55.0000
11.993040664, 96.390, 3093.0, 55.6147
12.019301230, 96.390, 3152.0, 56.1427
12.045561795, 96.390, 3127.0, 55.9196
12.071822360, 96.390, 3075.0, 55.4527
12.098082926, 96.390, 3164.0, 56.2494
12.124343491, 96.390, 3004.0, 54.8088
12.150604056, 96.390, 3145.0, 56.0803
12.176864622, 96.390, 3088.0, 55.5698
12.203125187, 96.390, 3020.0, 54.9545
12.229385753, 96.390, 3137.0, 56.0089
12.255646318, 96.390, 3042.0, 55.1543
12.281906883, 96.390, 3080.0, 55.4977
12.308167449, 96.390, 3082.0, 55.5158
12.334428014, 96.390, 3074.0, 55.4437
12.360688579, 96.390, 2980.0, 54.5894
12.386949145, 96.390, 3072.0, 55.4256
12.413209710, 96.390, 3027.0, 55.0182
12.439470275, 96.390, 2972.0, 54.5161
12.465730841, 96.390, 3133.0, 55.9732
12.491991406, 96.390, 3031.0, 55.0545
12.518251971, 96.390, 3077.0, 55.4707
12.544512537, 96.390, 2989.0, 54.6717
12.570773102, 96.390, 3029.0, 55.0364
12.597033667, 96.390, 2982.0, 54.6077
12.623294233, 96.390, 3021.0, 54.9636
12.649554798, 96.390, 3003.0, 54.7996
12.675815364, 96.390, 3020.0, 54.9545
12.702075929, 96.390, 2891.0, 53.7680
12.728336494, 96.390, 2939.0, 54.2125
12.754597060, 96.390, 2968.0, 54.4794
12.780857625, 96.390, 2964.0, 54.4426
12.807118190, 96.390, 3067.0, 55.3805
12.833378756, 96.390, 2977.0, 54.5619
12.859639321, 96.390, 3051.0, 55.2359
12.885899886, 96.390, 2947.0, 54.2863
12.912160452, 96.390, 2991.0, 54.6900
12.938421017, 96.390, 3057.0, 55.2901
12.964681582, 96.390, 2957.0, 54.3783
12.990942148, 96.390, 3021.0, 54.9636
13.017202713, 96.390, 2930.0, 54.1295
13.043463279, 96.390, 3020.0, 54.9545
13.069723844, 96.390, 3002.0, 54.7905
13.095984409, 96.390, 3024.0, 54.9909
13.122244975, 96.390, 2978.0, 54.5711
13.148505540, 96.390, 2951.0, 54.3231
13.174766105, 96.390, 2933.0, 54.1572
13.201026671, 96.390, 3024.0, 54.9909
13.227287236, 96.390, 2915.0, 53.9907
13.253547801, 96.390, 2927.0, 54.1018
13.279808367, 96.390, 2914.0, 53.9815
13.306068932, 96.390, 2876.0, 53.6284
13.332329497, 96.390, 2976.0, 54.5527
13.358590063, 96.390, 3010.0, 54.8635
13.384850628, 96.390, 2932.0, 54.1479
13.411111193, 96.390, 2776.0, 52.6878
13.437371759, 96.390, 2852.0, 53.4041
13.463632324, 96.390, 2885.0, 53.7122
13.489892890, 96.390, 2953.0, 54.3415
13.516153455, 96.390, 2987.0, 54.6535
13.542414020, 96.390, 3019.0, 54.9454
13.568674586, 96.390, 2932.0, 54.1479
13.594935151, 96.390, 2925.0, 54.0833
13.621195716, 96.390, 3010.0, 54.8635
13.647456282, 96.390, 2927.0, 54.1018
13.673716847, 96.390, 2915.0, 53.9907
13.699977412, 96.390, 2864.0, 53.5164
13.726237978, 96.390, 2949.0, 54.3047
13.752498543, 96.390, 2813.0, 53.0377
13.778759108, 96.390, 2942.0, 54.2402
13.805019674, 96.390, 2914.0, 53.9815
13.831280239, 96.390, 2972.0, 54.5161
13.857540805, 96.390, 2994.0, 54.7175
13.883801370, 96.390, 2861.0, 53.4883
13.910061935, 96.390, 2935.0, 54.1756
13.936322501, 96.390, 2942.0, 54.2402
13.962583066, 96.390, 2868.0, 53.5537
13.988843631, 96.390, 2869.0, 53.5630
14.015104197, 96.390, 2918.0, 54.0185
14.041364762, 96.390, 2846.0, 53.3479
14.067625327, 96.390, 2950.0, 54.3139
14.093885893, 96.390, 2736.0, 52.3068
14.120146458, 96.390, 2883.0, 53.6936
14.146407023, 96.390, 2902.0, 53.8702
14.172667589, 96.390, 2821.0, 53.1131
14.198928154, 96.390, 2945.0, 54.2679
14.225188719, 96.390, 2883.0, 53.6936
14.251449285, 96.390, 2982.0, 54.6077
14.277709850, 96.390, 2946.0, 54.2771
14.303970416, 96.390, 2979.0, 54.5802
14.330230981, 96.390, 2869.0, 53.5630
14.356491546, 96.390, 2829.0, 53.1883
14.382752112, 96.390, 2918.0, 54.0185
14.409012677, 96.390, 2823.0, 53.1319
14.435273242, 96.390, 2822.0, 53.1225
14.461533808, 96.390, 2902.0, 53.8702
14.487794373, 96.390, 2849.0, 53.3760
14.514054938, 96.390, 2957.0, 54.3783
14.540315504, 96.390, 2822.0, 53.1225
14.566576069, 96.390, 2765.0, 52.5833
14.592836634, 96.390, 2859.0, 53.4696
14.619097200, 96.390, 2782.0, 52.7447
14.645357765, 96.390, 2817.0, 53.0754
14.671618331, 96.390, 2805.0, 52.9623
14.697878896, 96.390, 2823.0, 53.1319
14.724139461, 96.390, 2774.0, 52.6688
14.750400027, 96.390, 2815.0, 53.0566
14.776660592, 96.390, 2803.0, 52.9434
14.802921157, 96.390, 2765.0, 52.5833
14.829181723, 96.390, 2803.0, 52.9434
14.855442288, 96.390, 2787.0, 52.7920
14.881702853, 96.390, 2734.0, 52.2877
14.907963419, 96.390, 2709.0, 52.0481
14.934223984, 96.390, 2795.0, 52.8678
14.960484549, 96.390, 2689.0, 51.8556
14.986745115, 96.390, 2719.0, 52.1440
15.013005680, 96.390, 2724.0, 52.1920
15.039266245, 96.390, 2729.0, 52.2398
15.065526811, 96.390, 2805.0, 52.9623
15.091787376, 96.390, 2790.0, 52.8205
15.118047942, 96.390, 2783.0, 52.7541
15.144308507, 96.390, 2835.0, 53.2447
15.170569072, 96.390, 2692.0, 51.8845
15.196829638, 96.390, 2776.0, 52.6878
15.223090203, 96.390, 2751.0, 52.4500
15.249350768, 96.390, 2765.0, 52.5833
15.275611334, 96.390, 2905.0, 53.8981
15.301871899, 96.390, 2863.0, 53.5070
15.328132464, 96.390, 2844.0, 53.3292
15.354393030, 96.390, 2755.0, 52.4881
15.380653595, 96.390, 2754.0, 52.4786
15.406914160, 96.390, 2637.0, 51.3517
15.433174726, 96.390, 2681.0, 51.7784
15.459435291, 96.390, 2789.0, 52.8110
15.485695857, 96.390, 2687.0, 51.8363
15.511956422, 96.390, 2720.0, 52.1536
15.538216987, 96.390, 2696.0, 51.9230
15.564477553, 96.390, 2650.0, 51.4782
15.590738118, 96.390, 2619.0, 51.1762
15.616998683, 96.390, 2685.0, 51.8170
15.643259249, 96.390, 2607.0, 51.0588
15.669519814, 96.390, 2646.0, 51.4393
15.695780379, 96.390, 2690.0, 51.8652
15.722040945, 96.390, 2646.0, 51.4393
15.748301510, 96.390, 2752.0, 52.4595
15.774562075, 96.390, 2634.0, 51.3225
15.800822641, 96.390, 2655.0, 51.5267
15.827083206, 96.390, 2691.0, 51.8748
15.853343771, 96.390, 2694.0, 51.9038
15.879604337, 96.390, 2637.0, 51.3517
15.905864902, 96.390, 2734.0, 52.2877
15.932125468, 96.390, 2559.0, 50.5866
15.958386033, 96.390, 2659.0, 51.5655
15.984646598, 96.390, 2634.0, 51.3225
16.010907164, 96.390, 2635.0, 51.3323
16.037167729, 96.390, 2566.0, 50.6557
16.063428294, 96.390, 2683.0, 51.7977
16.089688860, 96.390, 2603.0, 51.0196
16.115949425, 96.390, 2533.0, 50.3289
16.142209990, 96.390, 2628.0, 51.2640
16.168470556, 96.390, 2607.0, 51.0588
16.194731121, 96.390, 2592.0, 50.9117
16.220991686, 96.390, 2568.0, 50.6754
16.247252252, 96.390, 2538.0, 50.3786
16.273512817, 96.390, 2532.0, 50.3190
16.299773382, 96.390, 2561.0, 50.6063
16.326033948, 96.390, 2586.0, 50.8527
16.352294513, 96.390, 2569.0, 50.6853
16.378555079, 96.390, 2617.0, 51.1566
16.404815644, 96.390, 2553.0, 50.5272
16.431076209, 96.390, 2519.0, 50.1896
16.457336775, 96.390, 2603.0, 51.0196
16.483597340, 96.390, 2561.0, 50.6063
16.509857905, 96.390, 2533.0, 50.3289
16.536118471, 96.390, 2593.0, 50.9215
16.562379036, 96.390, 2468.0, 49.6790
16.588639601, 96.390, 2604.0, 51.0294
16.614900167, 96.390, 2594.0, 50.9313
16.641160732, 96.390, 2549.0, 50.4876
16.667421297, 96.390, 2553.0, 50.5272
16.693681863, 96.390, 2495.0, 49.9500
16.719942428, 96.390, 2505.0, 50.0500
16.746202994, 96.390, 2534.0, 50.3389
16.772463559, 96.390, 2428.0, 49.2747
16.798724124, 96.390, 2492.0, 49.9199
16.824984690, 96.390, 2609.0, 51.0784
16.851245255, 96.390, 2525.0, 50.2494
16.877505820, 96.390, 2445.0, 49.4469
16.903766386, 96.390, 2435.0, 49.3457
16.930026951, 96.390, 2527.0, 50.2693
16.956287516, 96.390, 2498.0, 49.9800
16.982548082, 96.390, 2576.0, 50.7543
17.008808647, 96.390, 2545.0, 50.4480
17.035069212, 96.390, 2512.0, 50.1199
17.061329778, 96.390, 2493.0, 49.9300
17.087590343, 96.390, 2456.0, 49.5580
17.113850908, 96.390, 2456.0, 49.5580
17.140111474, 96.390, 2551.0, 50.5074
17.166372039, 96.390, 2483.0, 49.8297
17.192632605, 96.390, 2537.0, 50.3686
17.218893170, 96.390, 2541.0, 50.4083
17.245153735, 96.390, 2510.0, 50.0999
17.271414301, 96.390, 2410.0, 49.0918
17.297674866, 96.390, 2452.0, 49.5177
17.323935431, 96.390, 2476.0, 49.7594
17.350195997, 96.390, 2484.0, 49.8397
17.376456562, 96.390, 2544.0, 50.4381
17.402717127, 96.390, 2407.0, 49.0612
17.428977693, 96.390, 2418.0, 49.1732
17.455238258, 96.390, 2482.0, 49.8197
17.481498823, 96.390, 2433.0, 49.3254
17.507759389, 96.390, 2460.0, 49.5984
17.534019954, 96.390, 2453.0, 49.5278
17.560280520, 96.390, 2425.0, 49.2443
17.586541085, 96.390, 2523.0, 50.2295
17.612801650, 96.390, 2425.0, 49.2443
17.639062216, 96.390, 2419.0, 49.1833
17.665322781, 96.390, 2404.0, 49.0306
17.691583346, 96.390, 2431.0, 49.3052
17.717843912, 96.390, 2392.0, 48.9081
17.744104477, 96.390, 2514.0, 50.1398
17.770365042, 96.390, 2419.0, 49.1833
17.796625608, 96.390, 2548.0, 50.4777
17.822886173, 96.390, 2443.0, 49.4267
17.849146738, 96.390, 2422.0, 49.2138
17.875407304, 96.390, 2379.0, 48.7750
17.901667869, 96.390, 2455.0, 49.5480
17.927928434, 96.390, 2436.0, 49.3559
17.954189000, 96.390, 2509.0, 50.0899
17.980449565, 96.390, 2438.0, 49.3761
18.006710131, 96.390, 2448.0, 49.4773
18.032970696, 96.390, 2450.0, 49.4975
18.059231261, 96.390, 2493.0, 49.9300
18.085491827, 96.390, 2460.0, 49.5984
18.111752392, 96.390, 2490.0, 49.8999
18.138012957, 96.390, 2586.0, 50.8527
18.164273523, 96.390, 2567.0, 50.6656
18.190534088, 96.390, 2599.0, 50.9804
18.216794653, 96.390, 2491.0, 49.9099
18.243055219, 96.390, 2678.0, 51.7494
18.269315784, 96.390, 2727.0, 52.2207
18.295576349, 96.390, 2826.0, 53.1601
18.321836915, 96.390, 2877.0, 53.6377
18.348097480, 96.390, 3057.0, 55.2901
18.374358046, 96.390, 3029.0, 55.0364
18.400618611, 96.390, 3079.0, 55.4887
18.426879176, 96.390, 3181.0, 56.4004
18.453139742, 96.390, 3211.0, 56.6657
18.479400307, 96.390, 3266.0, 57.1489
18.505660872, 96.390, 3402.0, 58.3267
18.531921438, 96.390, 3464.0, 58.8558
18.558182003, 96.390, 3642.0, 60.3490
18.584442568, 96.390, 3619.0, 60.1581
18.610703134, 96.390, 3767.0, 61.3759
18.636963699, 96.390, 3786.0, 61.5305
18.663224264, 96.390, 3870.0, 62.2093
18.689484830, 96.390, 4028.0, 63.4665
18.715745395, 96.390, 4259.0, 65.2610
18.742005960, 96.390, 4689.0, 68.4763
18.768266526, 96.390, 5513.0, 74.2496
18.794527091, 96.390, 6173.0, 78.5684
18.820787657, 96.390, 6005.0, 77.4919
18.847048222, 96.390, 5051.0, 71.0704
18.873308787, 96.390, 4033.0, 63.5059
18.899569353, 96.390, 3279.0, 57.2626
18.925829918, 96.390, 2779.0, 52.7162
18.952090483, 96.390, 2691.0, 51.8748
18.978351049, 96.390, 2591.0, 50.9019
19.004611614, 96.390, 2617.0, 51.1566
19.030872179, 96.390, 2507.0, 50.0700
19.057132745, 96.390, 2584.0, 50.8331
19.083393310, 96.390, 2502.0, 50.0200
19.109653875, 96.390, 2581.0, 50.8035
19.135914441, 96.390, 2462.0, 49.6185
19.162175006, 96.390, 2479.0, 49.7896
19.188435572, 96.390, 2442.0, 49.4166
19.214696137, 96.390, 2443.0, 49.4267
19.240956702, 96.390, 2479.0, 49.7896
19.267217268, 96.390, 2449.0, 49.4874
19.293477833, 96.390, 2488.0, 49.8799
19.319738398, 96.390, 2540.0, 50.3984
19.345998964, 96.390, 2500.0, 50.0000
19.372259529, 96.390, 2478.0, 49.7795
19.398520094, 96.390, 2484.0, 49.8397
19.424780660, 96.390, 2468.0, 49.6790
19.451041225, 96.390, 2453.0, 49.5278
19.477301790, 96.390, 2461.0, 49.6085
19.503562356, 96.390, 2500.0, 50.0000
19.529822921, 96.390, 2514.0, 50.1398
19.556083486, 96.390, 2404.0, 49.0306
19.582344052, 96.390, 2488.0, 49.8799
19.608604617, 96.390, 2462.0, 49.6185
19.634865183, 96.390, 2495.0, 49.9500
19.661125748, 96.390, 2546.0, 50.4579
19.687386313, 96.390, 2435.0, 49.3457
19.713646879, 96.390, 2427.0, 49.2646
19.739907444, 96.390, 2486.0, 49.8598
19.766168009, 96.390, 2529.0, 50.2892
19.792428575, 96.390, 2573.0, 50.7247
19.818689140, 96.390, 2572.0, 50.7149
19.844949705, 96.390, 2488.0, 49.8799
19.871210271, 96.390, 2591.0, 50.9019
19.897470836, 96.390, 2679.0, 51.7591
19.923731401, 96.390, 2540.0, 50.3984
19.949991967, 96.390, 2658.0, 51.5558
19.976252532, 96.390, 2749.0, 52.4309
20.002513097, 96.390, 2696.0, 51.9230
20.028773663, 96.390, 2740.0, 52.3450
20.055034228, 96.390, 2687.0, 51.8363
20.081294794, 96.390, 2692.0, 51.8845
20.107555359, 96.390, 2712.0, 52.0769
20.133815924, 96.390, 2829.0, 53.1883
20.160076490, 96.390, 2958.0, 54.3875
20.186337055, 96.390, 3180.0, 56.3915
20.212597620, 96.390, 3386.0, 58.1893
20.238858186, 96.390, 3823.0, 61.8304
20.265118751, 96.390, 4083.0, 63.8984
20.291379316, 96.390, 4547.0, 67.4314
20.317639882, 96.390, 4808.0, 69.3397
20.343900447, 96.390, 4505.0, 67.1193
20.370161012, 96.390, 4169.0, 64.5678
20.396421578, 96.390, 3952.0, 62.8649
20.422682143, 96.390, 3992.0, 63.1823
20.448942709, 96.390, 4054.0, 63.6710
20.475203274, 96.390, 3672.0, 60.5970
20.501463839, 96.390, 3529.0, 59.4054
20.527724405, 96.390, 3338.0, 57.7754
20.553984970, 96.390, 3205.0, 56.6127
20.580245535, 96.390, 3000.0, 54.7723
20.606506101, 96.390, 2974.0, 54.5344
20.632766666, 96.390, 3001.0, 54.7814
20.659027231, 96.390, 2985.0, 54.6352
20.685287797, 96.390, 3090.0, 55.5878
20.711548362, 96.390, 3223.0, 56.7715
20.737808927, 96.390, 3171.0, 56.3116
20.764069493, 96.390, 3029.0, 55.0364
20.790330058, 96.390, 2853.0, 53.4135
20.816590623, 96.390, 2762.0, 52.5547
20.842851189, 96.390, 2668.0, 51.6527
20.869111754, 96.390, 2682.0, 51.7880
20.895372320, 96.390, 2666.0, 51.6333
20.921632885, 96.390, 2570.0, 50.6952
20.947893450, 96.390, 2728.0, 52.2303
20.974154016, 96.390, 2612.0, 51.1077
21.000414581, 96.390, 2637.0, 51.3517
21.026675146, 96.390, 2582.0, 50.8134
21.052935712, 96.390, 2624.0, 51.2250
21.079196277, 96.390, 2616.0, 51.1468
21.105456842, 96.390, 2531.0, 50.3090
21.131717408, 96.390, 2457.0, 49.5681
21.157977973, 96.390, 2523.0, 50.2295
21.184238538, 96.390, 2455.0, 49.5480
21.210499104, 96.390, 2484.0, 49.8397
21.236759669, 96.390, 2485.0, 49.8498
21.263020235, 96.390, 2527.0, 50.2693
21.289280800, 96.390, 2554.0, 50.5371
21.315541365, 96.390, 2429.0, 49.2849
21.341801931, 96.390, 2471.0, 49.7092
21.368062496, 96.390, 2531.0, 50.3090
21.394323061, 96.390, 2438.0, 49.3761
21.420583627, 96.390, 2436.0, 49.3559
21.446844192, 96.390, 2563.0, 50.6261
21.473104757, 96.390, 2417.0, 49.1630
21.499365323, 96.390, 2564.0, 50.6360
21.525625888, 96.390, 2477.0, 49.7695
21.551886453, 96.390, 2473.0, 49.7293
21.578147019, 96.390, 2466.0, 49.6588
21.604407584, 96.390, 2517.0, 50.1697
21.630668149, 96.390, 2443.0, 49.4267
21.656928715, 96.390, 2436.0, 49.3559
21.683189280, 96.390, 2532.0, 50.3190
21.709449846, 96.390, 2544.0, 50.4381
21.735710411, 96.390, 2468.0, 49.6790
21.761970976, 96.390, 2542.0, 50.4183
21.788231542, 96.390, 2488.0, 49.8799
21.814492107, 96.390, 2418.0, 49.1732
21.840752672, 96.390, 2359.0, 48.5695
21.867013238, 96.390, 2423.0, 49.2240
21.893273803, 96.390, 2445.0, 49.4469
21.919534368, 96.390, 2540.0, 50.3984
21.945794934, 96.390, 2468.0, 49.6790
21.972055499, 96.390, 2321.0, 48.1768
21.998316064, 96.390, 2491.0, 49.9099
22.024576630, 96.390, 2494.0, 49.9400
22.050837195, 96.390, 2511.0, 50.1099
22.077097761, 96.390, 2408.0, 49.0714
22.103358326, 96.390, 2451.0, 49.5076
22.129618891, 96.390, 2512.0, 50.1199
22.155879457, 96.390, 2413.0, 49.1223
22.182140022, 96.390, 2388.0, 48.8672
22.208400587, 96.390, 2400.0, 48.9898
22.234661153, 96.390, 2404.0, 49.0306
22.260921718, 96.390, 2404.0, 49.0306
22.287182283, 96.390, 2308.0, 48.0416
22.313442849, 96.390, 2499.0, 49.9900
22.339703414, 96.390, 2354.0, 48.5180
22.365963979, 96.390, 2443.0, 49.4267
22.392224545, 96.390, 2404.0, 49.0306
22.418485110, 96.390, 2365.0, 48.6313
22.444745675, 96.390, 2404.0, 49.0306
22.471006241, 96.390, 2380.0, 48.7852
22.497266806, 96.390, 2422.0, 49.2138
22.523527372, 96.390, 2421.0, 49.2037
22.549787937, 96.390, 2438.0, 49.3761
22.576048502, 96.390, 2399.0, 48.9796
22.602309068, 96.390, 2478.0, 49.7795
22.628569633, 96.390, 2357.0, 48.5489
22.654830198, 96.390, 2367.0, 48.6518
22.681090764, 96.390, 2403.0, 49.0204
22.707351329, 96.390, 2479.0, 49.7896
22.733611894, 96.390, 2438.0, 49.3761
22.759872460, 96.390, 2376.0, 48.7442
22.786133025, 96.390, 2319.0, 48.1560
22.812393590, 96.390, 2290.0, 47.8539
22.838654156, 96.390, 2442.0, 49.4166
22.864914721, 96.390, 2451.0, 49.5076
22.891175287, 96.390, 2408.0, 49.0714
22.917435852, 96.390, 2341.0, 48.3839
22.943696417, 96.390, 2331.0, 48.2804
22.969956983, 96.390, 2419.0, 49.1833
22.996217548, 96.390, 2399.0, 48.9796
23.022478113, 96.390, 2392.0, 48.9081
23.048738679, 96.390, 2401.0, 49.0000
23.074999244, 96.390, 2394.0, 48.9285
23.101259809, 96.390, 2384.0, 48.8262
23.127520375, 96.390, 2424.0, 49.2341
23.153780940, 96.390, 2358.0, 48.5592
23.180041505, 96.390, 2336.0, 48.3322
23.206302071, 96.390, 2390.0, 48.8876
23.232562636, 96.390, 2333.0, 48.3011
23.258823201, 96.390, 2351.0, 48.4871
23.285083767, 96.390, 2358.0, 48.5592
23.311344332, 96.390, 2319.0, 48.1560
23.337604898, 96.390, 2339.0, 48.3632
23.363865463, 96.390, 2357.0, 48.5489
23.390126028, 96.390, 2474.0, 49.7393
23.416386594, 96.390, 2308.0, 48.0416
23.442647159, 96.390, 2380.0, 48.7852
23.468907724, 96.390, 2321.0, 48.1768
23.495168290, 96.390, 2392.0, 48.9081
23.521428855, 96.390, 2378.0, 48.7647
23.547689420, 96.390, 2264.0, 47.5815
23.573949986, 96.390, 2365.0, 48.6313
23.600210551, 96.390, 2388.0, 48.8672
23.626471116, 96.390, 2342.0, 48.3942
23.652731682, 96.390, 2298.0, 47.9375
23.678992247, 96.390, 2308.0, 48.0416
23.705252813, 96.390, 2333.0, 48.3011
23.731513378, 96.390, 2424.0, 49.2341
23.757773943, 96.390, 2375.0, 48.7340
23.784034509, 96.390, 2261.0, 47.5500
23.810295074, 96.390, 2297.0, 47.9270
23.836555639, 96.390, 2266.0, 47.6025
23.862816205, 96.390, 2334.0, 48.3115
23.889076770, 96.390, 2310.0, 48.0625
23.915337335, 96.390, 2287.0, 47.8226
23.941597901, 96.390, 2384.0, 48.8262
23.967858466, 96.390, 2387.0, 48.8569
23.994119031, 96.390, 2350.0, 48.4768
24.020379597, 96.390, 2271.0, 47.6550
24.046640162, 96.390, 2339.0, 48.3632
24.072900727, 96.390, 2300.0, 47.9583
24.099161293, 96.390, 2359.0, 48.5695
24.125421858, 96.390, 2335.0, 48.3218
24.151682424, 96.390, 2320.0, 48.1664
24.177942989, 96.390, 2282.0, 47.7703
24.204203554, 96.390, 2238.0, 47.3075
24.230464120, 96.390, 2420.0, 49.1935
24.256724685, 96.390, 2336.0, 48.3322
24.282985250, 96.390, 2247.0, 47.4025
24.309245816, 96.390, 2315.0, 48.1144
24.335506381, 96.390, 2221.0, 47.1275
24.361766946, 96.390, 2248.0, 47.4131
24.388027512, 96.390, 2257.0, 47.5079
24.414288077, 96.390, 2387.0, 48.8569
24.440548642, 96.390, 2184.0, 46.7333
24.466809208, 96.390, 2140.0, 46.2601
24.493069773, 96.390, 2204.0, 46.9468
24.519330338, 96.390, 2220.0, 47.1169
24.545590904, 96.390, 2167.0, 46.5510
24.571851469, 96.390, 2172.0, 46.6047
24.598112035, 96.390, 2256.0, 47.4974
24.624372600, 96.390, 2132.0, 46.1736
24.650633165, 96.390, 2220.0, 47.1169
24.676893731, 96.390, 2150.0, 46.3681
24.703154296, 96.390, 2207.0, 46.9787
24.729414861, 96.390, 2218.0, 47.0956
24.755675427, 96.390, 2173.0, 46.6154
24.781935992, 96.390, 2176.0, 46.6476
24.808196557, 96.390, 2194.0, 46.8402
24.834457123, 96.390, 2207.0, 46.9787
24.860717688, 96.390, 2153.0, 46.4004
24.886978253, 96.390, 2176.0, 46.6476
24.913238819, 96.390, 2157.0, 46.4435
24.939499384, 96.390, 2168.0, 46.5618
24.965759950, 96.390, 2185.0, 46.7440
24.992020515, 96.390, 2177.0, 46.6583
25.018281080, 96.390, 2195.0, 46.8508
25.044541646, 96.390, 2214.0, 47.0532
25.070802211, 96.390, 2210.0, 47.0106
25.097062776, 96.390, 2159.0, 46.4650
25.123323342, 96.390, 2129.0, 46.1411
25.149583907, 96.390, 2186.0, 46.7547
25.175844472, 96.390, 2133.0, 46.1844
25.202105038, 96.390, 2096.0, 45.7821
25.228365603, 96.390, 2215.0, 47.0638
25.254626168, 96.390, 2251.0, 47.4447
25.280886734, 96.390, 2216.0, 47.0744
25.307147299, 96.390, 2121.0, 46.0543
25.333407864, 96.390, 2160.0, 46.4758
25.359668430, 96.390, 2176.0, 46.6476
25.385928995, 96.390, 2204.0, 46.9468
25.412189561, 96.390, 2250.0, 47.4342
25.438450126, 96.390, 2287.0, 47.8226
25.464710691, 96.390, 2237.0, 47.2969
25.490971257, 96.390, 2145.0, 46.3141
25.517231822, 96.390, 2169.0, 46.5725
25.543492387, 96.390, 2084.0, 45.6508
25.569752953, 96.390, 2195.0, 46.8508
25.596013518, 96.390, 2184.0, 46.7333
25.622274083, 96.390, 2157.0, 46.4435
25.648534649, 96.390, 2084.0, 45.6508
25.674795214, 96.390, 2138.0, 46.2385
25.701055779, 96.390, 2116.0, 46.0000
25.727316345, 96.390, 2090.0, 45.7165
25.753576910, 96.390, 2165.0, 46.5296
25.779837476, 96.390, 2082.0, 45.6289
25.806098041, 96.390, 2068.0, 45.4753
25.832358606, 96.390, 1983.0, 44.5309
25.858619172, 96.390, 2126.0, 46.1086
25.884879737, 96.390, 2102.0, 45.8476
25.911140302, 96.390, 2138.0, 46.2385
25.937400868, 96.390, 2197.0, 46.8722
25.963661433, 96.390, 2064.0, 45.4313
25.989921998, 96.390, 2135.0, 46.2061
26.016182564, 96.390, 2147.0, 46.3357
26.042443129, 96.390, 2131.0, 46.1628
26.068703694, 96.390, 2045.0, 45.2217
26.094964260, 96.390, 2075.0, 45.5522
26.121224825, 96.390, 2077.0, 45.5741
26.147485390, 96.390, 2166.0, 46.5403
26.173745956, 96.390, 1955.0, 44.2154
26.200006521, 96.390, 2084.0, 45.6508
26.226267087, 96.390, 2049.0, 45.2659
26.252527652, 96.390, 2037.0, 45.1331
26.278788217, 96.390, 2116.0, 46.0000
26.305048783, 96.390, 2057.0, 45.3542
26.331309348, 96.390, 2047.0, 45.2438
26.357569913, 96.390, 2191.0, 46.8081
26.383830479, 96.390, 2063.0, 45.4203
26.410091044, 96.390, 2124.0, 46.0869
26.436351609, 96.390, 2128.0, 46.1303
26.462612175, 96.390, 2073.0, 45.5302
26.488872740, 96.390, 2090.0, 45.7165
26.515133305, 96.390, 2189.0, 46.7868
26.541393871, 96.390, 2146.0, 46.3249
26.567654436, 96.390, 2117.0, 46.0109
26.593915002, 96.390, 2125.0, 46.0977
26.620175567, 96.390, 2069.0, 45.4863
26.646436132, 96.390, 2159.0, 46.4650
26.672696698, 96.390, 2141.0, 46.2709
26.698957263, 96.390, 2050.0, 45.2769
26.725217828, 96.390, 2090.0, 45.7165
26.751478394, 96.390, 2034.0, 45.0999
26.777738959, 96.390, 2128.0, 46.1303
26.803999524, 96.390, 2092.0, 45.7384
26.830260090, 96.390, 2085.0, 45.6618
26.856520655, 96.390, 2142.0, 46.2817
26.882781220, 96.390, 2121.0, 46.0543
26.909041786, 96.390, 2204.0, 46.9468
26.935302351, 96.390, 2069.0, 45.4863
26.961562916, 96.390, 2098.0, 45.8039
26.987823482, 96.390, 2046.0, 45.2327
27.014084047, 96.390, 2180.0, 46.6905
27.040344613, 96.390, 2066.0, 45.4533
27.066605178, 96.390, 2134.0, 46.1952
27.092865743, 96.390, 2128.0, 46.1303
27.119126309, 96.390, 2198.0, 46.8828
27.145386874, 96.390, 2181.0, 46.7012
27.171647439, 96.390, 2159.0, 46.4650
27.197908005, 96.390, 2260.0, 47.5395
27.224168570, 96.390, 2202.0, 46.9255
27.250429135, 96.390, 2141.0, 46.2709
27.276689701, 96.390, 2239.0, 47.3181
27.302950266, 96.390, 2085.0, 45.6618
27.329210831, 96.390, 2161.0, 46.4866
27.355471397, 96.390, 2065.0, 45.4423
27.381731962, 96.390, 2088.0, 45.6946
27.407992528, 96.390, 2166.0, 46.5403
27.434253093, 96.390, 2193.0, 46.8295
27.460513658, 96.390, 2159.0, 46.4650
27.486774224, 96.390, 2108.0, 45.9130
27.513034789, 96.390, 2154.0, 46.4112
27.539295354, 96.390, 2224.0, 47.1593
27.565555920, 96.390, 2207.0, 46.9787
27.591816485, 96.390, 2219.0, 47.1063
27.618077050, 96.390, 2130.0, 46.1519
27.644337616, 96.390, 2217.0, 47.0850
27.670598181, 96.390, 2188.0, 46.7761
27.696858746, 96.390, 2420.0, 49.1935
27.723119312, 96.390, 2529.0, 50.2892
27.749379877, 96.390, 2572.0, 50.7149
27.775640442, 96.390, 2551.0, 50.5074
27.801901008, 96.390, 2662.0, 51.5946
27.828161573, 96.390, 2613.0, 51.1175
27.854422139, 96.390, 2746.0, 52.4023
27.880682704, 96.390, 2705.0, 52.0096
27.906943269, 96.390, 2631.0, 51.2933
27.933203835, 96.390, 2445.0, 49.4469
27.959464400, 96.390, 2492.0, 49.9199
27.985724965, 96.390, 2364.0, 48.6210
28.011985531, 96.390, 2282.0, 47.7703
28.038246096, 96.390, 2207.0, 46.9787
28.064506661, 96.390, 2206.0, 46.9681
28.090767227, 96.390, 2167.0, 46.5510
28.117027792, 96.390, 2118.0, 46.0217
28.143288357, 96.390, 2156.0, 46.4327
28.169548923, 96.390, 2143.0, 46.2925
28.195809488, 96.390, 2088.0, 45.6946
28.222070054, 96.390, 2072.0, 45.5192
28.248330619, 96.390, 2099.0, 45.8148
28.274591184, 96.390, 2140.0, 46.2601
28.300851750, 96.390, 2063.0, 45.4203
28.327112315, 96.390, 2091.0, 45.7275
28.353372880, 96.390, 2037.0, 45.1331
28.379633446, 96.390, 2071.0, 45.5082
28.405894011, 96.390, 2094.0, 45.7602
28.432154576, 96.390, 2040.0, 45.1664
28.458415142, 96.390, 1981.0, 44.5084
28.484675707, 96.390, 1978.0, 44.4747
28.510936272, 96.390, 1979.0, 44.4860
28.537196838, 96.390, 2042.0, 45.1885
28.563457403, 96.390, 2102.0, 45.8476
28.589717968, 96.390, 2028.0, 45.0333
28.615978534, 96.390, 1980.0, 44.4972
28.642239099, 96.390, 2019.0, 44.9333
28.668499665, 96.390, 1999.0, 44.7102
28.694760230, 96.390, 2016.0, 44.8999
28.721020795, 96.390, 2040.0, 45.1664
28.747281361, 96.390, 2008.0, 44.8107
28.773541926, 96.390, 2083.0, 45.6399
28.799802491, 96.390, 1986.0, 44.5646
28.826063057, 96.390, 1990.0, 44.6094
28.852323622, 96.390, 1988.0, 44.5870
28.878584187, 96.390, 2043.0, 45.1996
28.904844753, 96.390, 2033.0, 45.0888
28.931105318, 96.390, 2038.0, 45.1442
28.957365883, 96.390, 2030.0, 45.0555
28.983626449, 96.390, 2047.0, 45.2438
29.009887014, 96.390, 1915.0, 43.7607
29.036147579, 96.390, 1969.0, 44.3734
29.062408145, 96.390, 1996.0, 44.6766
29.088668710, 96.390, 1998.0, 44.6990
29.114929276, 96.390, 1948.0, 44.1362
29.141189841, 96.390, 2018.0, 44.9222
29.167450406, 96.390, 2007.0, 44.7996
29.193710972, 96.390, 1941.0, 44.0568
29.219971537, 96.390, 1915.0, 43.7607
29.246232102, 96.390, 1957.0, 44.2380
29.272492668, 96.390, 1904.0, 43.6348
29.298753233, 96.390, 1915.0, 43.7607
29.325013798, 96.390, 1862.0, 43.1509
29.351274364, 96.390, 1945.0, 44.1022
29.377534929, 96.390, 1907.0, 43.6692
29.403795494, 96.390, 1905.0, 43.6463
29.430056060, 96.390, 1842.0, 42.9185
29.456316625, 96.390, 2064.0, 45.4313
29.482577191, 96.390, 2039.0, 45.1553
29.508837756, 96.390, 1905.0, 43.6463
29.535098321, 96.390, 1915.0, 43.7607
29.561358887, 96.390, 1981.0, 44.5084
29.587619452, 96.390, 1833.0, 42.8135
29.613880017, 96.390, 1962.0, 44.2945
29.640140583, 96.390, 1966.0, 44.3396
29.666401148, 96.390, 1881.0, 43.3705
29.692661713, 96.390, 1920.0, 43.8178
29.718922279, 96.390, 1899.0, 43.5775
29.745182844, 96.390, 1868.0, 43.2204
29.771443409, 96.390, 1929.0, 43.9204
29.797703975, 96.390, 1903.0, 43.6234
29.823964540, 96.390, 1857.0, 43.0929
29.850225105, 96.390, 1859.0, 43.1161
29.876485671, 96.390, 1914.0, 43.7493
29.902746236, 96.390, 1939.0, 44.0341
29.929006802, 96.390, 1834.0, 42.8252
29.955267367, 96.390, 1847.0, 42.9767
29.981527932, 96.390, 1880.0, 43.3590
30.007788498, 96.390, 1844.0, 42.9418
30.034049063, 96.390, 1925.0, 43.8748
30.060309628, 96.390, 1862.0, 43.1509
30.086570194, 96.390, 1943.0, 44.0795
30.112830759, 96.390, 1843.0, 42.9302
30.139091324, 96.390, 1918.0, 43.7950
30.165351890, 96.390, 1866.0, 43.1972
30.191612455, 96.390, 1794.0, 42.3556
30.217873020, 96.390, 1929.0, 43.9204
30.244133586, 96.390, 1832.0, 42.8019
30.270394151, 96.390, 1823.0, 42.6966
30.296654717, 96.390, 1866.0, 43.1972
30.322915282, 96.390, 1833.0, 42.8135
30.349175847, 96.390, 1822.0, 42.6849
30.375436413, 96.390, 1819.0, 42.6497
30.401696978, 96.390, 1866.0, 43.1972
30.427957543, 96.390, 1797.0, 42.3910
30.454218109, 96.390, 1804.0, 42.4735
30.480478674, 96.390, 1840.0, 42.8952
30.506739239, 96.390, 1814.0, 42.5911
30.532999805, 96.390, 1872.0, 43.2666
30.559260370, 96.390, 1839.0, 42.8836
30.585520935, 96.390, 1863.0, 43.1625
30.611781501, 96.390, 1833.0, 42.8135
30.638042066, 96.390, 1802.0, 42.4500
30.664302631, 96.390, 1852.0, 43.0349
30.690563197, 96.390, 1896.0, 43.5431
30.716823762, 96.390, 1872.0, 43.2666
30.743084328, 96.390, 1834.0, 42.8252
30.769344893, 96.390, 1850.0, 43.0116
30.795605458, 96.390, 1916.0, 43.7721
30.821866024, 96.390, 1858.0, 43.1045
30.848126589, 96.390, 1942.0, 44.0681
30.874387154, 96.390, 1847.0, 42.9767
30.900647720, 96.390, 1818.0, 42.6380
30.926908285, 96.390, 1866.0, 43.1972
30.953168850, 96.390, 1816.0, 42.6146
30.979429416, 96.390, 1762.0, 41.9762
31.005689981, 96.390, 1744.0, 41.7612
31.031950546, 96.390, 1805.0, 42.4853
31.058211112, 96.390, 1823.0, 42.6966
31.084471677, 96.390, 1766.0, 42.0238
31.110732243, 96.390, 1780.0, 42.1900
31.136992808, 96.390, 1874.0, 43.2897
31.163253373, 96.390, 1828.0, 42.7551
31.189513939, 96.390, 1878.0, 43.3359
31.215774504, 96.390, 1917.0, 43.7836
31.242035069, 96.390, 1903.0, 43.6234
31.268295635, 96.390, 1858.0, 43.1045
31.294556200, 96.390, 1854.0, 43.0581
31.320816765, 96.390, 1939.0, 44.0341
31.347077331, 96.390, 1787.0, 42.2729
31.373337896, 96.390, 1828.0, 42.7551
31.399598461, 96.390, 1919.0, 43.8064
31.425859027, 96.390, 1881.0, 43.3705
31.452119592, 96.390, 1774.0, 42.1189
31.478380157, 96.390, 1746.0, 41.7852
31.504640723, 96.390, 1836.0, 42.8486
31.530901288, 96.390, 1805.0, 42.4853
31.557161854, 96.390, 1749.0, 41.8210
31.583422419, 96.390, 1735.0, 41.6533
31.609682984, 96.390, 1847.0, 42.9767
31.635943550, 96.390, 1753.0, 41.8688
31.662204115, 96.390, 1772.0, 42.0951
31.688464680, 96.390, 1843.0, 42.9302
31.714725246, 96.390, 1877.0, 43.3244
31.740985811, 96.390, 1786.0, 42.2611
31.767246376, 96.390, 1759.0, 41.9404
31.793506942, 96.390, 1788.0, 42.2847
31.819767507, 96.390, 1781.0, 42.2019
31.846028072, 96.390, 1800.0, 42.4264
31.872288638, 96.390, 1790.0, 42.3084
31.898549203, 96.390, 1748.0, 41.8091
31.924809769, 96.390, 1798.0, 42.4028
31.951070334, 96.390, 1791.0, 42.3202
31.977330899, 96.390, 1941.0, 44.0568
32.003591465, 96.390, 1936.0, 44.0000
32.029852030, 96.390, 1881.0, 43.3705
32.056112595, 96.390, 2111.0, 45.9456
32.082373161, 96.390, 2144.0, 46.3033
32.108633726, 96.390, 2110.0, 45.9347
32.134894291, 96.390, 2013.0, 44.8665
32.161154857, 96.390, 1967.0, 44.3509
32.187415422, 96.390, 1919.0, 43.8064
32.213675987, 96.390, 1856.0, 43.0813
32.239936553, 96.390, 1812.0, 42.5676
32.266197118, 96.390, 1694.0, 41.1582
32.292457683, 96.390, 1654.0, 40.6694
32.318718249, 96.390, 1699.0, 41.2189
32.344978814, 96.390, 1665.0, 40.8044
32.371239380, 96.390, 1759.0, 41.9404
32.397499945, 96.390, 1736.0, 41.6653
32.423760510, 96.390, 1750.0, 41.8330
32.450021076, 96.390, 1743.0, 41.7493
32.476281641, 96.390, 1692.0, 41.1339
32.502542206, 96.390, 1728.0, 41.5692
32.528802772, 96.390, 1685.0, 41.0488
32.555063337, 96.390, 1699.0, 41.2189
32.581323902, 96.390, 1739.0, 41.7013
32.607584468, 96.390, 1659.0, 40.7308
32.633845033, 96.390, 1664.0, 40.7922
32.660105598, 96.390, 1717.0, 41.4367
32.686366164, 96.390, 1681.0, 41.0000
32.712626729, 96.390, 1789.0, 42.2966
32.738887295, 96.390, 1694.0, 41.1582
32.765147860, 96.390, 1721.0, 41.4849
32.791408425, 96.390, 1740.0, 41.7133
32.817668991, 96.390, 1659.0, 40.7308
32.843929556, 96.390, 1778.0, 42.1663
32.870190121, 96.390, 1720.0, 41.4729
32.896450687, 96.390, 1680.0, 40.9878
32.922711252, 96.390, 1715.0, 41.4126
32.948971817, 96.390, 1815.0, 42.6028
32.975232383, 96.390, 1747.0, 41.7971
33.001492948, 96.390, 1689.0, 41.0974
33.027753513, 96.390, 1816.0, 42.6146
33.054014079, 96.390, 1801.0, 42.4382
33.080274644, 96.390, 1826.0, 42.7317
33.106535209, 96.390, 1851.0, 43.0232
33.132795775, 96.390, 1774.0, 42.1189
33.159056340, 96.390, 1854.0, 43.0581
33.185316906, 96.390, 1745.0, 41.7732
33.211577471, 96.390, 1714.0, 41.4005
33.237838036, 96.390, 1716.0, 41.4246
33.264098602, 96.390, 1808.0, 42.5206
33.290359167, 96.390, 1714.0, 41.4005
33.316619732, 96.390, 1770.0, 42.0714
33.342880298, 96.390, 1804.0, 42.4735
33.369140863, 96.390, 1780.0, 42.1900
33.395401428, 96.390, 1785.0, 42.2493
33.421661994, 96.390, 1850.0, 43.0116
33.447922559, 96.390, 1813.0, 42.5793
33.474183124, 96.390, 1744.0, 41.7612
33.500443690, 96.390, 1858.0, 43.1045
33.526704255, 96.390, 1782.0, 42.2137
33.552964820, 96.390, 1832.0, 42.8019
33.579225386, 96.390, 1759.0, 41.9404
33.605485951, 96.390, 1781.0, 42.2019
33.631746517, 96.390, 1771.0, 42.0833
33.658007082, 96.390, 1814.0, 42.5911
33.684267647, 96.390, 1861.0, 43.1393
33.710528213, 96.390, 1840.0, 42.8952
33.736788778, 96.390, 1884.0, 43.4051
33.763049343, 96.390, 1832.0, 42.8019
33.789309909, 96.390, 1824.0, 42.7083
33.815570474, 96.390, 1840.0, 42.8952
33.841831039, 96.390, 1902.0, 43.6119
33.868091605, 96.390, 1902.0, 43.6119
33.894352170, 96.390, 1948.0, 44.1362
33.920612735, 96.390, 1988.0, 44.5870
33.946873301, 96.390, 2053.0, 45.3100
33.973133866, 96.390, 2133.0, 46.1844
33.999394432, 96.390, 1990.0, 44.6094
34.025654997, 96.390, 2118.0, 46.0217
34.051915562, 96.390, 2052.0, 45.2990
34.078176128, 96.390, 2142.0, 46.2817
34.104436693, 96.390, 2018.0, 44.9222
34.130697258, 96.390, 2006.0, 44.7884
34.156957824, 96.390, 2015.0, 44.8888
34.183218389, 96.390, 2019.0, 44.9333
34.209478954, 96.390, 2002.0, 44.7437
34.235739520, 96.390, 1900.0, 43.5890
34.262000085, 96.390, 2008.0, 44.8107
34.288260650, 96.390, 1981.0, 44.5084
34.314521216, 96.390, 1876.0, 43.3128
34.340781781, 96.390, 1977.0, 44.4635
34.367042346, 96.390, 1963.0, 44.3058
34.393302912, 96.390, 2061.0, 45.3982
34.419563477, 96.390, 1957.0, 44.2380
34.445824043, 96.390, 1937.0, 44.0114
34.472084608, 96.390, 1920.0, 43.8178
34.498345173, 96.390, 1920.0, 43.8178
34.524605739, 96.390, 1996.0, 44.6766
34.550866304, 96.390, 1974.0, 44.4297
34.577126869, 96.390, 1964.0, 44.3170
34.603387435, 96.390, 2059.0, 45.3762
34.629648000, 96.390, 1944.0, 44.0908
34.655908565, 96.390, 1897.0, 43.5546
34.682169131, 96.390, 1965.0, 44.3283
34.708429696, 96.390, 1938.0, 44.0227
34.734690261, 96.390, 1880.0, 43.3590
34.760950827, 96.390, 1895.0, 43.5316
34.787211392, 96.390, 1945.0, 44.1022
34.813471958, 96.390, 1922.0, 43.8406
34.839732523, 96.390, 1902.0, 43.6119
34.865993088, 96.390, 1822.0, 42.6849
34.892253654, 96.390, 1962.0, 44.2945
34.918514219, 96.390, 2072.0, 45.5192
34.944774784, 96.390, 2057.0, 45.3542
34.971035350, 96.390, 1997.0, 44.6878
34.997295915, 96.390, 1968.0, 44.3621
35.023556480, 96.390, 1996.0, 44.6766
35.049817046, 96.390, 2002.0, 44.7437
35.076077611, 96.390, 2032.0, 45.0777
35.102338176, 96.390, 1931.0, 43.9431
35.128598742, 96.390, 1921.0, 43.8292
35.154859307, 96.390, 1977.0, 44.4635
35.181119872, 96.390, 1825.0, 42.7200
35.207380438, 96.390, 1896.0, 43.5431
35.233641003, 96.390, 1877.0, 43.3244
35.259901569, 96.390, 1952.0, 44.1814
35.286162134, 96.390, 1928.0, 43.9090
35.312422699, 96.390, 1905.0, 43.6463
35.338683265, 96.390, 1959.0, 44.2606
35.364943830, 96.390, 1913.0, 43.7379
35.391204395, 96.390, 1929.0, 43.9204
35.417464961, 96.390, 1944.0, 44.0908
35.443725526, 96.390, 1953.0, 44.1928
35.469986091, 96.390, 1980.0, 44.4972
35.496246657, 96.390, 1908.0, 43.6807
35.522507222, 96.390, 1945.0, 44.1022
35.548767787, 96.390, 1945.0, 44.1022
35.575028353, 96.390, 1913.0, 43.7379
35.601288918, 96.390, 1911.0, 43.7150
35.627549484, 96.390, 1905.0, 43.6463
35.653810049, 96.390, 2006.0, 44.7884
35.680070614, 96.390, 1904.0, 43.6348
35.706331180, 96.390, 2027.0, 45.0222
35.732591745, 96.390, 2039.0, 45.1553
35.758852310, 96.390, 1898.0, 43.5660
35.785112876, 96.390, 1928.0, 43.9090
35.811373441, 96.390, 1999.0, 44.7102
35.837634006, 96.390, 1948.0, 44.1362
35.863894572, 96.390, 1947.0, 44.1248
35.890155137, 96.390, 1947.0, 44.1248
35.916415702, 96.390, 1977.0, 44.4635
35.942676268, 96.390, 1965.0, 44.3283
35.968936833, 96.390, 1904.0, 43.6348
35.995197398, 96.390, 2001.0, 44.7325
36.021457964, 96.390, 1905.0, 43.6463
36.047718529, 96.390, 1914.0, 43.7493
36.073979095, 96.390, 1920.0, 43.8178
36.100239660, 96.390, 1903.0, 43.6234
36.126500225, 96.390, 1938.0, 44.0227
36.152760791, 96.390, 1893.0, 43.5086
36.179021356, 96.390, 1984.0, 44.5421
36.205281921, 96.390, 2041.0, 45.1774
36.231542487, 96.390, 2002.0, 44.7437
36.257803052, 96.390, 1971.0, 44.3959
36.284063617, 96.390, 1958.0, 44.2493
36.310324183, 96.390, 1908.0, 43.6807
36.336584748, 96.390, 1942.0, 44.0681
36.362845313, 96.390, 2000.0, 44.7214
36.389105879, 96.390, 1992.0, 44.6318
36.415366444, 96.390, 2088.0, 45.6946
36.441627010, 96.390, 1986.0, 44.5646
36.467887575, 96.390, 1989.0, 44.5982
36.494148140, 96.390, 2005.0, 44.7772
36.520408706, 96.390, 2008.0, 44.8107
36.546669271, 96.390, 1948.0, 44.1362
36.572929836, 96.390, 1884.0, 43.4051
36.599190402, 96.390, 1974.0, 44.4297
36.625450967, 96.390, 1980.0, 44.4972
36.651711532, 96.390, 2022.0, 44.9667
36.677972098, 96.390, 2007.0, 44.7996
36.704232663, 96.390, 2044.0, 45.2106
36.730493228, 96.390, 2026.0, 45.0111
36.756753794, 96.390, 1997.0, 44.6878
36.783014359, 96.390, 1922.0, 43.8406
36.809274924, 96.390, 2001.0, 44.7325
36.835535490, 96.390, 1909.0, 43.6921
36.861796055, 96.390, 2007.0, 44.7996
36.888056621, 96.390, 1850.0, 43.0116
36.914317186, 96.390, 1907.0, 43.6692
36.940577751, 96.390, 2028.0, 45.0333
36.966838317, 96.390, 1970.0, 44.3847
36.993098882, 96.390, 1984.0, 44.5421
37.019359447, 96.390, 1961.0, 44.2832
37.045620013, 96.390, 1892.0, 43.4971
37.071880578, 96.390, 1937.0, 44.0114
37.098141143, 96.390, 1917.0, 43.7836
37.124401709, 96.390, 1948.0, 44.1362
37.150662274, 96.390, 1947.0, 44.1248
37.176922839, 96.390, 1975.0, 44.4410
37.203183405, 96.390, 1929.0, 43.9204
37.229443970, 96.390, 2026.0, 45.0111
37.255704535, 96.390, 2093.0, 45.7493
37.281965101, 96.390, 1947.0, 44.1248
37.308225666, 96.390, 2063.0, 45.4203
37.334486232, 96.390, 1910.0, 43.7035
37.360746797, 96.390, 1983.0, 44.5309
37.387007362, 96.390, 1993.0, 44.6430
37.413267928, 96.390, 2008.0, 44.8107
37.439528493, 96.390, 1956.0, 44.2267
37.465789058, 96.390, 2115.0, 45.9891
37.492049624, 96.390, 2069.0, 45.4863
37.518310189, 96.390, 2054.0, 45.3211
37.544570754, 96.390, 2014.0, 44.8776
37.570831320, 96.390, 1970.0, 44.3847
37.597091885, 96.390, 2029.0, 45.0444
37.623352450, 96.390, 2027.0, 45.0222
37.649613016, 96.390, 2088.0, 45.6946
37.675873581, 96.390, 2064.0, 45.4313
37.702134147, 96.390, 2013.0, 44.8665
37.728394712, 96.390, 2012.0, 44.8553
37.754655277, 96.390, 2112.0, 45.9565
37.780915843, 96.390, 2119.0, 46.0326
37.807176408, 96.390, 2014.0, 44.8776
37.833436973, 96.390, 2077.0, 45.5741
37.859697539, 96.390, 2091.0, 45.7275
37.885958104, 96.390, 2085.0, 45.6618
37.912218669, 96.390, 2036.0, 45.1221
37.938479235, 96.390, 2079.0, 45.5961
37.964739800, 96.390, 2017.0, 44.9110
37.991000365, 96.390, 1982.0, 44.5197
38.017260931, 96.390, 2093.0, 45.7493
38.043521496, 96.390, 2023.0, 44.9778
38.069782061, 96.390, 2055.0, 45.3321
38.096042627, 96.390, 2181.0, 46.7012
38.122303192, 96.390, 2064.0, 45.4313
38.148563758, 96.390, 2192.0, 46.8188
38.174824323, 96.390, 2069.0, 45.4863
38.201084888, 96.390, 2132.0, 46.1736
38.227345454, 96.390, 2036.0, 45.1221
38.253606019, 96.390, 2068.0, 45.4753
38.279866584, 96.390, 2030.0, 45.0555
38.306127150, 96.390, 2023.0, 44.9778
38.332387715, 96.390, 1953.0, 44.1928
38.358648280, 96.390, 1933.0, 43.9659
38.384908846, 96.390, 1967.0, 44.3509
38.411169411, 96.390, 1897.0, 43.5546
38.437429976, 96.390, 1985.0, 44.5533
38.463690542, 96.390, 1979.0, 44.4860
38.489951107, 96.390, 1901.0, 43.6005
38.516211673, 96.390, 1919.0, 43.8064
38.542472238, 96.390, 1935.0, 43.9886
38.568732803, 96.390, 1951.0, 44.1701
38.594993369, 96.390, 1953.0, 44.1928
38.621253934, 96.390, 2026.0, 45.0111
38.647514499, 96.390, 1888.0, 43.4511
38.673775065, 96.390, 1953.0, 44.1928
38.700035630, 96.390, 1959.0, 44.2606
38.726296195, 96.390, 1953.0, 44.1928
38.752556761, 96.390, 1881.0, 43.3705
38.778817326, 96.390, 1857.0, 43.0929
38.805077891, 96.390, 1903.0, 43.6234
38.831338457, 96.390, 1951.0, 44.1701
38.857599022, 96.390, 1881.0, 43.3705
38.883859587, 96.390, 1941.0, 44.0568
38.910120153, 96.390, 1860.0, 43.1277
38.936380718, 96.390, 1859.0, 43.1161
38.962641284, 96.390, 1778.0, 42.1663
38.988901849, 96.390, 1866.0, 43.1972
39.015162414, 96.390, 1885.0, 43.4166
39.041422980, 96.390, 1863.0, 43.1625
39.067683545, 96.390, 1851.0, 43.0232
39.093944110, 96.390, 1819.0, 42.6497
39.120204676, 96.390, 1845.0, 42.9535
39.146465241, 96.390, 1828.0, 42.7551
39.172725806, 96.390, 1810.0, 42.5441
39.198986372, 96.390, 1918.0, 43.7950
39.225246937, 96.390, 1799.0, 42.4146
39.251507502, 96.390, 1792.0, 42.3320
39.277768068, 96.390, 1802.0, 42.4500
39.304028633, 96.390, 1790.0, 42.3084
39.330289199, 96.390, 1856.0, 43.0813
39.356549764, 96.390, 1790.0, 42.3084
39.382810329, 96.390, 1836.0, 42.8486
39.409070895, 96.390, 1821.0, 42.6732
39.435331460, 96.390, 1842.0, 42.9185
39.461592025, 96.390, 1845.0, 42.9535
39.487852591, 96.390, 1799.0, 42.4146
39.514113156, 96.390, 1865.0, 43.1856
39.540373721, 96.390, 1807.0, 42.5088
39.566634287, 96.390, 1741.0, 41.7253
39.592894852, 96.390, 1798.0, 42.4028
39.619155417, 96.390, 1775.0, 42.1307
39.645415983, 96.390, 1758.0, 41.9285
39.671676548, 96.390, 1762.0, 41.9762
39.697937113, 96.390, 1742.0, 41.7373
39.724197679, 96.390, 1808.0, 42.5206
39.750458244, 96.390, 1743.0, 41.7493
39.776718810, 96.390, 1703.0, 41.2674
39.802979375, 96.390, 1677.0, 40.9512
39.829239940, 96.390, 1749.0, 41.8210
39.855500506, 96.390, 1666.0, 40.8167
39.881761071, 96.390, 1766.0, 42.0238
39.908021636, 96.390, 1701.0, 41.2432
39.934282202, 96.390, 1741.0, 41.7253
39.960542767, 96.390, 1700.0, 41.2311
39.986803332, 96.390, 1783.0, 42.2256
40.013063898, 96.390, 1761.0, 41.9643
40.039324463, 96.390, 1670.0, 40.8656
40.065585028, 96.390, 1694.0, 41.1582
40.091845594, 96.390, 1738.0, 41.6893
40.118106159, 96.390, 1811.0, 42.5558
40.144366725, 96.390, 1760.0, 41.9524
40.170627290, 96.390, 1786.0, 42.2611
40.196887855, 96.390, 1778.0, 42.1663
40.223148421, 96.390, 1764.0, 42.0000
40.249408986, 96.390, 1792.0, 42.3320
40.275669551, 96.390, 1880.0, 43.3590
40.301930117, 96.390, 1945.0, 44.1022
40.328190682, 96.390, 1906.0, 43.6578
40.354451247, 96.390, 2046.0, 45.2327
40.380711813, 96.390, 2255.0, 47.4868
40.406972378, 96.390, 2331.0, 48.2804
40.433232943, 96.390, 2568.0, 50.6754
40.459493509, 96.390, 2752.0, 52.4595
40.485754074, 96.390, 2908.0, 53.9259
40.512014639, 96.390, 2922.0, 54.0555
40.538275205, 96.390, 2981.0, 54.5985
40.564535770, 96.390, 3186.0, 56.4447
40.590796336, 96.390, 3475.0, 58.9491
40.617056901, 96.390, 3403.0, 58.3352
40.643317466, 96.390, 3370.0, 58.0517
40.669578032, 96.390, 3071.0, 55.4166
40.695838597, 96.390, 2983.0, 54.6168
40.722099162, 96.390, 2657.0, 51.5461
40.748359728, 96.390, 2528.0, 50.2792
40.774620293, 96.390, 2252.0, 47.4552
40.800880858, 96.390, 2027.0, 45.0222
40.827141424, 96.390, 1868.0, 43.2204
40.853401989, 96.390, 1745.0, 41.7732
40.879662554, 96.390, 1722.0, 41.4970
40.905923120, 96.390, 1775.0, 42.1307
40.932183685, 96.390, 1671.0, 40.8779
40.958444251, 96.390, 1616.0, 40.1995
40.984704816, 96.390, 1640.0, 40.4969
41.010965381, 96.390, 1552.0, 39.3954
41.037225947, 96.390, 1533.0, 39.1535
41.063486512, 96.390, 1517.0, 38.9487
41.089747077, 96.390, 1585.0, 39.8121
41.116007643, 96.390, 1548.0, 39.3446
41.142268208, 96.390, 1597.0, 39.9625
41.168528773, 96.390, 1594.0, 39.9249
41.194789339, 96.390, 1506.0, 38.8072
41.221049904, 96.390, 1481.0, 38.4838
41.247310469, 96.390, 1527.0, 39.0768
41.273571035, 96.390, 1521.0, 39.0000
41.299831600, 96.390, 1512.0, 38.8844
41.326092165, 96.390, 1492.0, 38.6264
41.352352731, 96.390, 1454.0, 38.1314
41.378613296, 96.390, 1506.0, 38.8072
41.404873862, 96.390, 1576.0, 39.6989
41.431134427, 96.390, 1555.0, 39.4335
41.457394992, 96.390, 1566.0, 39.5727
41.483655558, 96.390, 1521.0, 39.0000
41.509916123, 96.390, 1514.0, 38.9102
41.536176688, 96.390, 1468.0, 38.3145
41.562437254, 96.390, 1487.0, 38.5616
41.588697819, 96.390, 1502.0, 38.7556
41.614958384, 96.390, 1524.0, 39.0384
41.641218950, 96.390, 1524.0, 39.0384
41.667479515, 96.390, 1430.0, 37.8153
41.693740080, 96.390, 1499.0, 38.7169
41.720000646, 96.390, 1411.0, 37.5633
41.746261211, 96.390, 1442.0, 37.9737
41.772521776, 96.390, 1441.0, 37.9605
41.798782342, 96.390, 1446.0, 38.0263
41.825042907, 96.390, 1465.0, 38.2753
41.851303473, 96.390, 1525.0, 39.0512
41.877564038, 96.390, 1458.0, 38.1838
41.903824603, 96.390, 1429.0, 37.8021
41.930085169, 96.390, 1496.0, 38.6782
41.956345734, 96.390, 1388.0, 37.2559
41.982606299, 96.390, 1430.0, 37.8153
42.008866865, 96.390, 1428.0, 37.7889
42.035127430, 96.390, 1425.0, 37.7492
42.061387995, 96.390, 1441.0, 37.9605
42.087648561, 96.390, 1391.0, 37.2961
42.113909126, 96.390, 1349.0, 36.7287
42.140169691, 96.390, 1408.0, 37.5233
42.166430257, 96.390, 1342.0, 36.6333
42.192690822, 96.390, 1410.0, 37.5500
42.218951388, 96.390, 1399.0, 37.4032
42.245211953, 96.390, 1363.0, 36.9188
42.271472518, 96.390, 1361.0, 36.8917
42.297733084, 96.390, 1436.0, 37.8946
42.323993649, 96.390, 1393.0, 37.3229
42.350254214, 96.390, 1350.0, 36.7423
42.376514780, 96.390, 1403.0, 37.4566
42.402775345, 96.390, 1315.0, 36.2629
42.429035910, 96.390, 1397.0, 37.3765
42.455296476, 96.390, 1374.0, 37.0675
42.481557041, 96.390, 1408.0, 37.5233
42.507817606, 96.390, 1368.0, 36.9865
42.534078172, 96.390, 1307.0, 36.1525
42.560338737, 96.390, 1436.0, 37.8946
42.586599302, 96.390, 1314.0, 36.2491
42.612859868, 96.390, 1400.0, 37.4166
42.639120433, 96.390, 1385.0, 37.2156
42.665380999, 96.390, 1381.0, 37.1618
42.691641564, 96.390, 1363.0, 36.9188
42.717902129, 96.390, 1357.0, 36.8375
42.744162695, 96.390, 1346.0, 36.6879
42.770423260, 96.390, 1397.0, 37.3765
42.796683825, 96.390, 1322.0, 36.3593
42.822944391, 96.390, 1333.0, 36.5103
42.849204956, 96.390, 1378.0, 37.1214
42.875465521, 96.390, 1355.0, 36.8103
42.901726087, 96.390, 1312.0, 36.2215
42.927986652, 96.390, 1369.0, 37.0000
42.954247217, 96.390, 1344.0, 36.6606
42.980507783, 96.390, 1348.0, 36.7151
43.006768348, 96.390, 1309.0, 36.1801
43.033028914, 96.390, 1305.0, 36.1248
43.059289479, 96.390, 1433.0, 37.8550
43.085550044, 96.390, 1341.0, 36.6197
43.111810610, 96.390, 1289.0, 35.9026
43.138071175, 96.390, 1342.0, 36.6333
43.164331740, 96.390, 1445.0, 38.0132
43.190592306, 96.390, 1378.0, 37.1214
43.216852871, 96.390, 1397.0, 37.3765
43.243113436, 96.390, 1406.0, 37.4967
43.269374002, 96.390, 1326.0, 36.4143
43.295634567, 96.390, 1341.0, 36.6197
43.321895132, 96.390, 1320.0, 36.3318
43.348155698, 96.390, 1331.0, 36.4829
43.374416263, 96.390, 1353.0, 36.7831
43.400676828, 96.390, 1323.0, 36.3731
43.426937394, 96.390, 1372.0, 37.0405
43.453197959, 96.390, 1411.0, 37.5633
43.479458525, 96.390, 1407.0, 37.5100
43.505719090, 96.390, 1352.0, 36.7696
43.531979655, 96.390, 1370.0, 37.0135
43.558240221, 96.390, 1351.0, 36.7560
43.584500786, 96.390, 1347.0, 36.7015
43.610761351, 96.390, 1377.0, 37.1080
43.637021917, 96.390, 1381.0, 37.1618
43.663282482, 96.390, 1368.0, 36.9865
43.689543047, 96.390, 1448.0, 38.0526
43.715803613, 96.390, 1497.0, 38.6911
43.742064178, 96.390, 1378.0, 37.1214
43.768324743, 96.390, 1438.0, 37.9210
43.794585309, 96.390, 1417.0, 37.6431
43.820845874, 96.390, 1425.0, 37.7492
43.847106440, 96.390, 1408.0, 37.5233
43.873367005, 96.390, 1475.0, 38.4057
43.899627570, 96.390, 1398.0, 37.3898
43.925888136, 96.390, 1336.0, 36.5513
43.952148701, 96.390, 1374.0, 37.0675
43.978409266, 96.390, 1394.0, 37.3363
44.004669832, 96.390, 1335.0, 36.5377
44.030930397, 96.390, 1347.0, 36.7015
44.057190962, 96.390, 1401.0, 37.4299
44.083451528, 96.390, 1363.0, 36.9188
44.109712093, 96.390, 1360.0, 36.8782
44.135972658, 96.390, 1312.0, 36.2215
44.162233224, 96.390, 1313.0, 36.2353
44.188493789, 96.390, 1329.0, 36.4555
44.214754354, 96.390, 1378.0, 37.1214
44.241014920, 96.390, 1354.0, 36.7967
44.267275485, 96.390, 1396.0, 37.3631
44.293536051, 96.390, 1351.0, 36.7560
44.319796616, 96.390, 1457.0, 38.1707
44.346057181, 96.390, 1373.0, 37.0540
44.372317747, 96.390, 1389.0, 37.2693
44.398578312, 96.390, 1419.0, 37.6696
44.424838877, 96.390, 1381.0, 37.1618
44.451099443, 96.390, 1370.0, 37.0135
44.477360008, 96.390, 1411.0, 37.5633
44.503620573, 96.390, 1294.0, 35.9722
44.529881139, 96.390, 1377.0, 37.1080
44.556141704, 96.390, 1393.0, 37.3229
44.582402269, 96.390, 1407.0, 37.5100
44.608662835, 96.390, 1375.0, 37.0810
44.634923400, 96.390, 1383.0, 37.1887
44.661183966, 96.390, 1332.0, 36.4966
44.687444531, 96.390, 1377.0, 37.1080
44.713705096, 96.390, 1385.0, 37.2156
44.739965662, 96.390, 1359.0, 36.8646
44.766226227, 96.390, 1377.0, 37.1080
44.792486792, 96.390, 1383.0, 37.1887
44.818747358, 96.390, 1375.0, 37.0810
44.845007923, 96.390, 1398.0, 37.3898
44.871268488, 96.390, 1358.0, 36.8511
44.897529054, 96.390, 1408.0, 37.5233
44.923789619, 96.390, 1314.0, 36.2491
44.950050184, 96.390, 1417.0, 37.6431
44.976310750, 96.390, 1418.0, 37.6563
45.002571315, 96.390, 1409.0, 37.5366
45.028831880, 96.390, 1384.0, 37.2022
45.055092446, 96.390, 1367.0, 36.9730
45.081353011, 96.390, 1425.0, 37.7492
45.107613577, 96.390, 1345.0, 36.6742
45.133874142, 96.390, 1376.0, 37.0945
45.160134707, 96.390, 1369.0, 37.0000
45.186395273, 96.390, 1430.0, 37.8153
45.212655838, 96.390, 1415.0, 37.6165
45.238916403, 96.390, 1446.0, 38.0263
45.265176969, 96.390, 1359.0, 36.8646
45.291437534, 96.390, 1312.0, 36.2215
45.317698099, 96.390, 1442.0, 37.9737
45.343958665, 96.390, 1465.0, 38.2753
45.370219230, 96.390, 1432.0, 37.8418
45.396479795, 96.390, 1383.0, 37.1887
45.422740361, 96.390, 1361.0, 36.8917
45.449000926, 96.390, 1435.0, 37.8814
45.475261492, 96.390, 1435.0, 37.8814
45.501522057, 96.390, 1451.0, 38.0920
45.527782622, 96.390, 1408.0, 37.5233
45.554043188, 96.390, 1410.0, 37.5500
45.580303753, 96.390, 1427.0, 37.7757
45.606564318, 96.390, 1437.0, 37.9078
45.632824884, 96.390, 1484.0, 38.5227
45.659085449, 96.390, 1455.0, 38.1445
45.685346014, 96.390, 1448.0, 38.0526
45.711606580, 96.390, 1475.0, 38.4057
45.737867145, 96.390, 1440.0, 37.9473
45.764127710, 96.390, 1496.0, 38.6782
45.790388276, 96.390, 1453.0, 38.1182
45.816648841, 96.390, 1438.0, 37.9210
45.842909406, 96.390, 1424.0, 37.7359
45.869169972, 96.390, 1456.0, 38.1576
45.895430537, 96.390, 1393.0, 37.3229
45.921691103, 96.390, 1432.0, 37.8418
45.947951668, 96.390, 1460.0, 38.2099
45.974212233, 96.390, 1377.0, 37.1080
46.000472799, 96.390, 1404.0, 37.4700
46.026733364, 96.390, 1448.0, 38.0526
46.052993929, 96.390, 1383.0, 37.1887
46.079254495, 96.390, 1412.0, 37.5766
46.105515060, 96.390, 1322.0, 36.3593
46.131775625, 96.390, 1450.0, 38.0789
46.158036191, 96.390, 1392.0, 37.3095
46.184296756, 96.390, 1387.0, 37.2424
46.210557321, 96.390, 1384.0, 37.2022
46.236817887, 96.390, 1455.0, 38.1445
46.263078452, 96.390, 1454.0, 38.1314
46.289339017, 96.390, 1398.0, 37.3898
46.315599583, 96.390, 1382.0, 37.1753
46.341860148, 96.390, 1427.0, 37.7757
46.368120714, 96.390, 1424.0, 37.7359
46.394381279, 96.390, 1437.0, 37.9078
46.420641844, 96.390, 1414.0, 37.6032
46.446902410, 96.390, 1413.0, 37.5899
46.473162975, 96.390, 1489.0, 38.5876
46.499423540, 96.390, 1372.0, 37.0405
46.525684106, 96.390, 1382.0, 37.1753
46.551944671, 96.390, 1422.0, 37.7094
46.578205236, 96.390, 1407.0, 37.5100
46.604465802, 96.390, 1386.0, 37.2290
46.630726367, 96.390, 1444.0, 38.0000
46.656986932, 96.390, 1367.0, 36.9730
46.683247498, 96.390, 1389.0, 37.2693
46.709508063, 96.390, 1352.0, 36.7696
46.735768629, 96.390, 1458.0, 38.1838
46.762029194, 96.390, 1453.0, 38.1182
46.788289759, 96.390, 1411.0, 37.5633
46.814550325, 96.390, 1373.0, 37.0540
46.840810890, 96.390, 1409.0, 37.5366
46.867071455, 96.390, 1378.0, 37.1214
46.893332021, 96.390, 1425.0, 37.7492
46.919592586, 96.390, 1442.0, 37.9737
46.945853151, 96.390, 1462.0, 38.2361
46.972113717, 96.390, 1381.0, 37.1618
46.998374282, 96.390, 1442.0, 37.9737
47.024634847, 96.390, 1467.0, 38.3014
47.050895413, 96.390, 1401.0, 37.4299
47.077155978, 96.390, 1356.0, 36.8239
47.103416543, 96.390, 1397.0, 37.3765
47.129677109, 96.390, 1508.0, 38.8330
47.155937674, 96.390, 1426.0, 37.7624
47.182198240, 96.390, 1418.0, 37.6563
47.208458805, 96.390, 1471.0, 38.3536
47.234719370, 96.390, 1429.0, 37.8021
47.260979936, 96.390, 1473.0, 38.3797
47.287240501, 96.390, 1427.0, 37.7757
47.313501066, 96.390, 1429.0, 37.8021
47.339761632, 96.390, 1421.0, 37.6962
47.366022197, 96.390, 1532.0, 39.1408
47.392282762, 96.390, 1359.0, 36.8646
47.418543328, 96.390, 1410.0, 37.5500
47.444803893, 96.390, 1359.0, 36.8646
47.471064458, 96.390, 1499.0, 38.7169
47.497325024, 96.390, 1436.0, 37.8946
47.523585589, 96.390, 1517.0, 38.9487
47.549846155, 96.390, 1447.0, 38.0395
47.576106720, 96.390, 1513.0, 38.8973
47.602367285, 96.390, 1452.0, 38.1051
47.628627851, 96.390, 1419.0, 37.6696
47.654888416, 96.390, 1461.0, 38.2230
47.681148981, 96.390, 1400.0, 37.4166
47.707409547, 96.390, 1465.0, 38.2753
47.733670112, 96.390, 1420.0, 37.6829
47.759930677, 96.390, 1466.0, 38.2884
47.786191243, 96.390, 1501.0, 38.7427
47.812451808, 96.390, 1429.0, 37.8021
47.838712373, 96.390, 1383.0, 37.1887
47.864972939, 96.390, 1504.0, 38.7814
47.891233504, 96.390, 1423.0, 37.7227
47.917494069, 96.390, 1487.0, 38.5616
47.943754635, 96.390, 1437.0, 37.9078
47.970015200, 96.390, 1440.0, 37.9473
47.996275766, 96.390, 1497.0, 38.6911
48.022536331, 96.390, 1433.0, 37.8550
48.048796896, 96.390, 1435.0, 37.8814
48.075057462, 96.390, 1521.0, 39.0000
48.101318027, 96.390, 1470.0, 38.3406
48.127578592, 96.390, 1490.0, 38.6005
48.153839158, 96.390, 1373.0, 37.0540
48.180099723, 96.390, 1437.0, 37.9078
48.206360288, 96.390, 1542.0, 39.2683
48.232620854, 96.390, 1578.0, 39.7240
48.258881419, 96.390, 1544.0, 39.2938
48.285141984, 96.390, 1449.0, 38.0657
48.311402550, 96.390, 1601.0, 40.0125
48.337663115, 96.390, 1453.0, 38.1182
48.363923681, 96.390, 1499.0, 38.7169
48.390184246, 96.390, 1576.0, 39.6989
48.416444811, 96.390, 1467.0, 38.3014
48.442705377, 96.390, 1542.0, 39.2683
48.468965942, 96.390, 1512.0, 38.8844
48.495226507, 96.390, 1509.0, 38.8458
48.521487073, 96.390, 1493.0, 38.6394
48.547747638, 96.390, 1537.0, 39.2046
48.574008203, 96.390, 1530.0, 39.1152
48.600268769, 96.390, 1550.0, 39.3700
48.626529334, 96.390, 1565.0, 39.5601
48.652789899, 96.390, 1455.0, 38.1445
48.679050465, 96.390, 1560.0, 39.4968
48.705311030, 96.390, 1517.0, 38.9487
48.731571595, 96.390, 1552.0, 39.3954
48.757832161, 96.390, 1505.0, 38.7943
48.784092726, 96.390, 1565.0, 39.5601
48.810353292, 96.390, 1562.0, 39.5221
48.836613857, 96.390, 1536.0, 39.1918
48.862874422, 96.390, 1433.0, 37.8550
48.889134988, 96.390, 1484.0, 38.5227
48.915395553, 96.390, 1510.0, 38.8587
48.941656118, 96.390, 1494.0, 38.6523
48.967916684, 96.390, 1532.0, 39.1408
48.994177249, 96.390, 1477.0, 38.4318
49.020437814, 96.390, 1516.0, 38.9358
49.046698380, 96.390, 1466.0, 38.2884
49.072958945, 96.390, 1481.0, 38.4838
49.099219510, 96.390, 1494.0, 38.6523
49.125480076, 96.390, 1498.0, 38.7040
49.151740641, 96.390, 1459.0, 38.1969
49.178001207, 96.390, 1462.0, 38.2361
49.204261772, 96.390, 1439.0, 37.9342
49.230522337, 96.390, 1464.0, 38.2623
49.256782903, 96.390, 1537.0, 39.2046
49.283043468, 96.390, 1438.0, 37.9210
49.309304033, 96.390, 1495.0, 38.6652
49.335564599, 96.390, 1477.0, 38.4318
49.361825164, 96.390, 1427.0, 37.7757
49.388085729, 96.390, 1410.0, 37.5500
49.414346295, 96.390, 1423.0, 37.7227
49.440606860, 96.390, 1437.0, 37.9078
49.466867425, 96.390, 1449.0, 38.0657
49.493127991, 96.390, 1544.0, 39.2938
49.519388556, 96.390, 1471.0, 38.3536
49.545649121, 96.390, 1478.0, 38.4448
49.571909687, 96.390, 1441.0, 37.9605
49.598170252, 96.390, 1480.0, 38.4708
49.624430818, 96.390, 1512.0, 38.8844
49.650691383, 96.390, 1396.0, 37.3631
49.676951948, 96.390, 1399.0, 37.4032
49.703212514, 96.390, 1435.0, 37.8814
49.729473079, 96.390, 1421.0, 37.6962
49.755733644, 96.390, 1400.0, 37.4166
49.781994210, 96.390, 1444.0, 38.0000
49.808254775, 96.390, 1357.0, 36.8375
49.834515340, 96.390, 1363.0, 36.9188
49.860775906, 96.390, 1371.0, 37.0270
49.887036471, 96.390, 1309.0, 36.1801
49.913297036, 96.390, 1371.0, 37.0270
49.939557602, 96.390, 1333.0, 36.5103
49.965818167, 96.390, 1378.0, 37.1214
49.992078732, 96.390, 1313.0, 36.2353
50.018339298, 96.390, 1329.0, 36.4555
50.044599863, 96.390, 1339.0, 36.5923
50.070860429, 96.390, 1376.0, 37.0945
50.097120994, 96.390, 1387.0, 37.2424
50.123381559, 96.390, 1316.0, 36.2767
50.149642125, 96.390, 1357.0, 36.8375
50.175902690, 96.390, 1398.0, 37.3898
50.202163255, 96.390, 1360.0, 36.8782
50.228423821, 96.390, 1293.0, 35.9583
50.254684386, 96.390, 1400.0, 37.4166
50.280944951, 96.390, 1414.0, 37.6032
50.307205517, 96.390, 1327.0, 36.4280
50.333466082, 96.390, 1283.0, 35.8190
50.359726647, 96.390, 1337.0, 36.5650
50.385987213, 96.390, 1295.0, 35.9861
50.412247778, 96.390, 1282.0, 35.8050
50.438508344, 96.390, 1359.0, 36.8646
50.464768909, 96.390, 1271.0, 35.6511
50.491029474, 96.390, 1192.0, 34.5254
50.517290040, 96.390, 1219.0, 34.9142
50.543550605, 96.390, 1265.0, 35.5668
50.569811170, 96.390, 1323.0, 36.3731
50.596071736, 96.390, 1255.0, 35.4260
50.622332301, 96.390, 1260.0, 35.4965
50.648592866, 96.390, 1267.0, 35.5949
50.674853432, 96.390, 1231.0, 35.0856
50.701113997, 96.390, 1239.0, 35.1994
50.727374562, 96.390, 1233.0, 35.1141
50.753635128, 96.390, 1203.0, 34.6843
50.779895693, 96.390, 1231.0, 35.0856
50.806156258, 96.390, 1224.0, 34.9857
50.832416824, 96.390, 1239.0, 35.1994
50.858677389, 96.390, 1231.0, 35.0856
50.884937955, 96.390, 1214.0, 34.8425
50.911198520, 96.390, 1231.0, 35.0856
50.937459085, 96.390, 1236.0, 35.1568
50.963719651, 96.390, 1178.0, 34.3220
50.989980216, 96.390, 1195.0, 34.5688
51.016240781, 96.390, 1136.0, 33.7046
51.042501347, 96.390, 1169.0, 34.1906
51.068761912, 96.390, 1149.0, 33.8969
51.095022477, 96.390, 1135.0, 33.6898
51.121283043, 96.390, 1193.0, 34.5398
51.147543608, 96.390, 1218.0, 34.8999
51.173804173, 96.390, 1184.0, 34.4093
51.200064739, 96.390, 1166.0, 34.1467
51.226325304, 96.390, 1158.0, 34.0294
51.252585870, 96.390, 1183.0, 34.3948
51.278846435, 96.390, 1191.0, 34.5109
51.305107000, 96.390, 1220.0, 34.9285
51.331367566, 96.390, 1147.0, 33.8674
51.357628131, 96.390, 1147.0, 33.8674
51.383888696, 96.390, 1170.0, 34.2053
51.410149262, 96.390, 1121.0, 33.4813
51.436409827, 96.390, 1180.0, 34.3511
51.462670392, 96.390, 1157.0, 34.0147
51.488930958, 96.390, 1179.0, 34.3366
51.515191523, 96.390, 1107.0, 33.2716
51.541452088, 96.390, 1132.0, 33.6452
51.567712654, 96.390, 1061.0, 32.5730
51.593973219, 96.390, 1174.0, 34.2637
51.620233784, 96.390, 1206.0, 34.7275
51.646494350, 96.390, 1120.0, 33.4664
51.672754915, 96.390, 1151.0, 33.9264
51.699015481, 96.390, 1179.0, 34.3366
51.725276046, 96.390, 1085.0, 32.9393
51.751536611, 96.390, 1131.0, 33.6303
51.777797177, 96.390, 1180.0, 34.3511
51.804057742, 96.390, 1074.0, 32.7719
51.830318307, 96.390, 1143.0, 33.8083
51.856578873, 96.390, 1117.0, 33.4215
51.882839438, 96.390, 1104.0, 33.2265
51.909100003, 96.390, 1090.0, 33.0151
51.935360569, 96.390, 1102.0, 33.1964
51.961621134, 96.390, 1080.0, 32.8634
51.987881699, 96.390, 1156.0, 34.0000
52.014142265, 96.390, 1152.0, 33.9411
52.040402830, 96.390, 1096.0, 33.1059
52.066663396, 96.390, 1084.0, 32.9242
52.092923961, 96.390, 1148.0, 33.8821
52.119184526, 96.390, 1145.0, 33.8378
52.145445092, 96.390, 1171.0, 34.2199
52.171705657, 96.390, 1116.0, 33.4066
52.197966222, 96.390, 1086.0, 32.9545
52.224226788, 96.390, 1131.0, 33.6303
52.250487353, 96.390, 1141.0, 33.7787
52.276747918, 96.390, 1151.0, 33.9264
52.303008484, 96.390, 1201.0, 34.6554
52.329269049, 96.390, 1116.0, 33.4066
52.355529614, 96.390, 1065.0, 32.6343
52.381790180, 96.390, 1078.0, 32.8329
52.408050745, 96.390, 1096.0, 33.1059
52.434311310, 96.390, 1108.0, 33.2866
52.460571876, 96.390, 1214.0, 34.8425
52.486832441, 96.390, 1095.0, 33.0908
52.513093007, 96.390, 1078.0, 32.8329
52.539353572, 96.390, 1070.0, 32.7109
52.565614137, 96.390, 1060.0, 32.5576
52.591874703, 96.390, 1063.0, 32.6037
52.618135268, 96.390, 1120.0, 33.4664
52.644395833, 96.390, 1151.0, 33.9264
52.670656399, 96.390, 1113.0, 33.3617
52.696916964, 96.390, 1035.0, 32.1714
52.723177529, 96.390, 1095.0, 33.0908
52.749438095, 96.390, 1135.0, 33.6898
52.775698660, 96.390, 1165.0, 34.1321
52.801959225, 96.390, 1141.0, 33.7787
52.828219791, 96.390, 1166.0, 34.1467
52.854480356, 96.390, 1167.0, 34.1614
52.880740922, 96.390, 1172.0, 34.2345
52.907001487, 96.390, 1214.0, 34.8425
52.933262052, 96.390, 1165.0, 34.1321
52.959522618, 96.390, 1163.0, 34.1028
52.985783183, 96.390, 1301.0, 36.0694
53.012043748, 96.390, 1332.0, 36.4966
53.038304314, 96.390, 1441.0, 37.9605
53.064564879, 96.390, 1427.0, 37.7757
53.090825444, 96.390, 1576.0, 39.6989
53.117086010, 96.390, 1666.0, 40.8167
53.143346575, 96.390, 1737.0, 41.6773
53.169607140, 96.390, 1754.0, 41.8808
53.195867706, 96.390, 1674.0, 40.9145
53.222128271, 96.390, 1589.0, 39.8623
53.248388836, 96.390, 1539.0, 39.2301
53.274649402, 96.390, 1612.0, 40.1497
53.300909967, 96.390, 1571.0, 39.6358
53.327170533, 96.390, 1490.0, 38.6005
53.353431098, 96.390, 1419.0, 37.6696
53.379691663, 96.390, 1296.0, 36.0000
53.405952229, 96.390, 1244.0, 35.2704
53.432212794, 96.390, 1171.0, 34.2199
53.458473359, 96.390, 1144.0, 33.8231
53.484733925, 96.390, 1200.0, 34.6410
53.510994490, 96.390, 1088.0, 32.9848
53.537255055, 96.390, 1104.0, 33.2265
53.563515621, 96.390, 1109.0, 33.3017
53.589776186, 96.390, 1061.0, 32.5730
53.616036751, 96.390, 995.0, 31.5436
53.642297317, 96.390, 1086.0, 32.9545
53.668557882, 96.390, 989.0, 31.4484
53.694818448, 96.390, 1040.0, 32.2490
53.721079013, 96.390, 981.0, 31.3209
53.747339578, 96.390, 1068.0, 32.6803
53.773600144, 96.390, 983.0, 31.3528
53.799860709, 96.390, 1051.0, 32.4191
53.826121274, 96.390, 979.0, 31.2890
53.852381840, 96.390, 1063.0, 32.6037
53.878642405, 96.390, 1039.0, 32.2335
53.904902970, 96.390, 983.0, 31.3528
53.931163536, 96.390, 1044.0, 32.3110
53.957424101, 96.390, 1043.0, 32.2955
53.983684666, 96.390, 1031.0, 32.1092
54.009945232, 96.390, 992.0, 31.4960
54.036205797, 96.390, 1005.0, 31.7017
54.062466362, 96.390, 1006.0, 31.7175
54.088726928, 96.390, 1003.0, 31.6702
54.114987493, 96.390, 943.0, 30.7083
54.141248059, 96.390, 1062.0, 32.5883
54.167508624, 96.390, 1049.0, 32.3883
54.193769189, 96.390, 1025.0, 32.0156
54.220029755, 96.390, 1040.0, 32.2490
54.246290320, 96.390, 1006.0, 31.7175
54.272550885, 96.390, 995.0, 31.5436
54.298811451, 96.390, 963.0, 31.0322
54.325072016, 96.390, 1039.0, 32.2335
54.351332581, 96.390, 974.0, 31.2090
54.377593147, 96.390, 958.0, 30.9516
54.403853712, 96.390, 961.0, 31.0000
54.430114277, 96.390, 949.0, 30.8058
54.456374843, 96.390, 987.0, 31.4166
54.482635408, 96.390, 960.0, 30.9839
54.508895973, 96.390, 1012.0, 31.8119
54.535156539, 96.390, 952.0, 30.8545
54.561417104, 96.390, 951.0, 30.8383
54.587677670, 96.390, 1007.0, 31.7333
54.613938235, 96.390, 957.0, 30.9354
54.640198800, 96.390, 991.0, 31.4802
54.666459366, 96.390, 939.0, 30.6431
54.692719931, 96.390, 963.0, 31.0322
54.718980496, 96.390, 952.0, 30.8545
54.745241062, 96.390, 943.0, 30.7083
54.771501627, 96.390, 965.0, 31.0644
54.797762192, 96.390, 946.0, 30.7571
54.824022758, 96.390, 1013.0, 31.8277
54.850283323, 96.390, 884.0, 29.7321
54.876543888, 96.390, 907.0, 30.1164
54.902804454, 96.390, 878.0, 29.6311
54.929065019, 96.390, 955.0, 30.9031
54.955325585, 96.390, 971.0, 31.1609
54.981586150, 96.390, 956.0, 30.9192
55.007846715, 96.390, 941.0, 30.6757
55.034107281, 96.390, 961.0, 31.0000
55.060367846, 96.390, 911.0, 30.1828
55.086628411, 96.390, 872.0, 29.5296
55.112888977, 96.390, 899.0, 29.9833
55.139149542, 96.390, 920.0, 30.3315
55.165410107, 96.390, 895.0, 29.9166
55.191670673, 96.390, 910.0, 30.1662
55.217931238, 96.390, 882.0, 29.6985
55.244191803, 96.390, 979.0, 31.2890
55.270452369, 96.390, 924.0, 30.3974
55.296712934, 96.390, 969.0, 31.1288
55.322973499, 96.390, 954.0, 30.8869
55.349234065, 96.390, 877.0, 29.6142
55.375494630, 96.390, 936.0, 30.5941
55.401755196, 96.390, 924.0, 30.3974
55.428015761, 96.390, 943.0, 30.7083
55.454276326, 96.390, 923.0, 30.3809
55.480536892, 96.390, 967.0, 31.0966
55.506797457, 96.390, 953.0, 30.8707
55.533058022, 96.390, 960.0, 30.9839
55.559318588, 96.390, 933.0, 30.5450
55.585579153, 96.390, 969.0, 31.1288
55.611839718, 96.390, 957.0, 30.9354
55.638100284, 96.390, 950.0, 30.8221
55.664360849, 96.390, 968.0, 31.1127
55.690621414, 96.390, 950.0, 30.8221
55.716881980, 96.390, 988.0, 31.4325
55.743142545, 96.390, 981.0, 31.3209
55.769403111, 96.390, 974.0, 31.2090
55.795663676, 96.390, 953.0, 30.8707
55.821924241, 96.390, 939.0, 30.6431
55.848184807, 96.390, 983.0, 31.3528
55.874445372, 96.390, 972.0, 31.1769
55.900705937, 96.390, 935.0, 30.5778
55.926966503, 96.390, 898.0, 29.9666
55.953227068, 96.390, 981.0, 31.3209
55.979487633, 96.390, 928.0, 30.4631
56.005748199, 96.390, 954.0, 30.8869
56.032008764, 96.390, 945.0, 30.7409
56.058269329, 96.390, 911.0, 30.1828
56.084529895, 96.390, 905.0, 30.0832
56.110790460, 96.390, 935.0, 30.5778
56.137051025, 96.390, 937.0, 30.6105
56.163311591, 96.390, 897.0, 29.9500
56.189572156, 96.390, 881.0, 29.6816
56.215832722, 96.390, 907.0, 30.1164
56.242093287, 96.390, 934.0, 30.5614
56.268353852, 96.390, 922.0, 30.3645
56.294614418, 96.390, 871.0, 29.5127
56.320874983, 96.390, 875.0, 29.5804
56.347135548, 96.390, 900.0, 30.0000
56.373396114, 96.390, 970.0, 31.1448
56.399656679, 96.390, 884.0, 29.7321
56.425917244, 96.390, 919.0, 30.3150
56.452177810, 96.390, 871.0, 29.5127
56.478438375, 96.390, 920.0, 30.3315
56.504698940, 96.390, 881.0, 29.6816
56.530959506, 96.390, 1011.0, 31.7962
56.557220071, 96.390, 881.0, 29.6816
56.583480637, 96.390, 894.0, 29.8998
56.609741202, 96.390, 901.0, 30.0167
56.636001767, 96.390, 825.0, 28.7228
56.662262333, 96.390, 885.0, 29.7489
56.688522898, 96.390, 904.0, 30.0666
56.714783463, 96.390, 875.0, 29.5804
56.741044029, 96.390, 853.0, 29.2062
56.767304594, 96.390, 913.0, 30.2159
56.793565159, 96.390, 876.0, 29.5973
56.819825725, 96.390, 926.0, 30.4302
56.846086290, 96.390, 880.0, 29.6648
56.872346855, 96.390, 896.0, 29.9333
56.898607421, 96.390, 857.0, 29.2746
56.924867986, 96.390, 865.0, 29.4109
56.951128551, 96.390, 876.0, 29.5973
56.977389117, 96.390, 861.0, 29.3428
57.003649682, 96.390, 927.0, 30.4467
57.029910248, 96.390, 864.0, 29.3939
57.056170813, 96.390, 931.0, 30.5123
57.082431378, 96.390, 912.0, 30.1993
57.108691944, 96.390, 953.0, 30.8707
57.134952509, 96.390, 885.0, 29.7489
57.161213074, 96.390, 883.0, 29.7153
57.187473640, 96.390, 917.0, 30.2820
57.213734205, 96.390, 855.0, 29.2404
57.239994770, 96.390, 910.0, 30.1662
57.266255336, 96.390, 984.0, 31.3688
57.292515901, 96.390, 923.0, 30.3809
57.318776466, 96.390, 883.0, 29.7153
57.345037032, 96.390, 932.0, 30.5287
57.371297597, 96.390, 917.0, 30.2820
57.397558163, 96.390, 950.0, 30.8221
57.423818728, 96.390, 929.0, 30.4795
57.450079293, 96.390, 981.0, 31.3209
57.476339859, 96.390, 956.0, 30.9192
57.502600424, 96.390, 934.0, 30.5614
57.528860989, 96.390, 957.0, 30.9354
57.555121555, 96.390, 972.0, 31.1769
57.581382120, 96.390, 963.0, 31.0322
57.607642685, 96.390, 995.0, 31.5436
57.633903251, 96.390, 954.0, 30.8869
57.660163816, 96.390, 922.0, 30.3645
57.686424381, 96.390, 958.0, 30.9516
57.712684947, 96.390, 958.0, 30.9516
57.738945512, 96.390, 918.0, 30.2985
57.765206077, 96.390, 955.0, 30.9031
57.791466643, 96.390, 949.0, 30.8058
57.817727208, 96.390, 963.0, 31.0322
57.843987774, 96.390, 895.0, 29.9166
57.870248339, 96.390, 882.0, 29.6985
57.896508904, 96.390, 873.0, 29.5466
57.922769470, 96.390, 860.0, 29.3258
57.949030035, 96.390, 895.0, 29.9166
57.975290600, 96.390, 905.0, 30.0832
58.001551166, 96.390, 895.0, 29.9166
58.027811731, 96.390, 864.0, 29.3939
58.054072296, 96.390, 839.0, 28.9655
58.080332862, 96.390, 892.0, 29.8664
58.106593427, 96.390, 933.0, 30.5450
58.132853992, 96.390, 927.0, 30.4467
58.159114558, 96.390, 968.0, 31.1127
58.185375123, 96.390, 970.0, 31.1448
58.211635689, 96.390, 881.0, 29.6816
58.237896254, 96.390, 861.0, 29.3428
58.264156819, 96.390, 905.0, 30.0832
58.290417385, 96.390, 891.0, 29.8496
58.316677950, 96.390, 907.0, 30.1164
58.342938515, 96.390, 879.0, 29.6479
58.369199081, 96.390, 924.0, 30.3974
58.395459646, 96.390, 867.0, 29.4449
58.421720211, 96.390, 862.0, 29.3598
58.447980777, 96.390, 934.0, 30.5614
58.474241342, 96.390, 920.0, 30.3315
58.500501907, 96.390, 898.0, 29.9666
58.526762473, 96.390, 871.0, 29.5127
58.553023038, 96.390, 905.0, 30.0832
58.579283603, 96.390, 891.0, 29.8496
58.605544169, 96.390, 877.0, 29.6142
58.631804734, 96.390, 924.0, 30.3974
58.658065300, 96.390, 890.0, 29.8329
58.684325865, 96.390, 892.0, 29.8664
58.710586430, 96.390, 935.0, 30.5778
58.736846996, 96.390, 901.0, 30.0167
58.763107561, 96.390, 904.0, 30.0666
58.789368126, 96.390, 922.0, 30.3645
58.815628692, 96.390, 922.0, 30.3645
58.841889257, 96.390, 923.0, 30.3809
58.868149822, 96.390, 887.0, 29.7825
58.894410388, 96.390, 892.0, 29.8664
58.920670953, 96.390, 890.0, 29.8329
58.946931518, 96.390, 870.0, 29.4958
58.973192084, 96.390, 896.0, 29.9333
58.999452649, 96.390, 945.0, 30.7409
59.025713214, 96.390, 923.0, 30.3809
59.051973780, 96.390, 911.0, 30.1828
59.078234345, 96.390, 914.0, 30.2324
59.104494911, 96.390, 967.0, 31.0966
59.130755476, 96.390, 966.0, 31.0805
59.157016041, 96.390, 921.0, 30.3480
59.183276607, 96.390, 942.0, 30.6920
59.209537172, 96.390, 930.0, 30.4959
59.235797737, 96.390, 982.0, 31.3369
59.262058303, 96.390, 980.0, 31.3050
59.288318868, 96.390, 926.0, 30.4302
59.314579433, 96.390, 924.0, 30.3974
59.340839999, 96.390, 975.0, 31.2250
59.367100564, 96.390, 924.0, 30.3974
59.393361129, 96.390, 950.0, 30.8221
59.419621695, 96.390, 951.0, 30.8383
59.445882260, 96.390, 960.0, 30.9839
59.472142826, 96.390, 993.0, 31.5119
59.498403391, 96.390, 996.0, 31.5595
59.524663956, 96.390, 970.0, 31.1448
59.550924522, 96.390, 929.0, 30.4795
59.577185087, 96.390, 936.0, 30.5941
59.603445652, 96.390, 937.0, 30.6105
59.629706218, 96.390, 931.0, 30.5123
59.655966783, 96.390, 890.0, 29.8329
59.682227348, 96.390, 954.0, 30.8869
59.708487914, 96.390, 939.0, 30.6431
59.734748479, 96.390, 945.0, 30.7409
59.761009044, 96.390, 893.0, 29.8831
59.787269610, 96.390, 963.0, 31.0322
59.813530175, 96.390, 919.0, 30.3150
59.839790740, 96.390, 952.0, 30.8545
59.866051306, 96.390, 884.0, 29.7321
59.892311871, 96.390, 896.0, 29.9333
59.918572437, 96.390, 923.0, 30.3809
59.944833002, 96.390, 936.0, 30.5941
59.971093567, 96.390, 976.0, 31.2410
59.997354133, 96.390, 965.0, 31.0644
60.023614698, 96.390, 886.0, 29.7658
60.049875263, 96.390, 946.0, 30.7571
60.076135829, 96.390, 979.0, 31.2890
60.102396394, 96.390, 929.0, 30.4795
60.128656959, 96.390, 939.0, 30.6431
60.154917525, 96.390, 917.0, 30.2820
60.181178090, 96.390, 955.0, 30.9031
60.207438655, 96.390, 904.0, 30.0666
60.233699221, 96.390, 982.0, 31.3369
60.259959786, 96.390, 996.0, 31.5595
60.286220352, 96.390, 928.0, 30.4631
60.312480917, 96.390, 955.0, 30.9031
60.338741482, 96.390, 922.0, 30.3645
60.365002048, 96.390, 951.0, 30.8383
60.391262613, 96.390, 1033.0, 32.1403
60.417523178, 96.390, 993.0, 31.5119
60.443783744, 96.390, 1032.0, 32.1248
60.470044309, 96.390, 944.0, 30.7246
60.496304874, 96.390, 942.0, 30.6920
60.522565440, 96.390, 1008.0, 31.7490
60.548826005, 96.390, 1014.0, 31.8434
60.575086570, 96.390, 1032.0, 32.1248
60.601347136, 96.390, 1050.0, 32.4037
60.627607701, 96.390, 1003.0, 31.6702
60.653868266, 96.390, 1031.0, 32.1092
60.680128832, 96.390, 1097.0, 33.1210
60.706389397, 96.390, 1026.0, 32.0312
60.732649963, 96.390, 1056.0, 32.4962
60.758910528, 96.390, 1013.0, 31.8277
60.785171093, 96.390, 1049.0, 32.3883
60.811431659, 96.390, 1050.0, 32.4037
60.837692224, 96.390, 1005.0, 31.7017
60.863952789, 96.390, 1044.0, 32.3110
60.890213355, 96.390, 1026.0, 32.0312
60.916473920, 96.390, 1095.0, 33.0908
60.942734485, 96.390, 1036.0, 32.1870
60.968995051, 96.390, 1112.0, 33.3467
60.995255616, 96.390, 1125.0, 33.5410
61.021516181, 96.390, 1063.0, 32.6037
61.047776747, 96.390, 1056.0, 32.4962
61.074037312, 96.390, 1070.0, 32.7109
61.100297878, 96.390, 1032.0, 32.1248
61.126558443, 96.390, 1063.0, 32.6037
61.152819008, 96.390, 1071.0, 32.7261
61.179079574, 96.390, 1090.0, 33.0151
61.205340139, 96.390, 1138.0, 33.7343
61.231600704, 96.390, 1105.0, 33.2415
61.257861270, 96.390, 1131.0, 33.6303
61.284121835, 96.390, 1117.0, 33.4215
61.310382400, 96.390, 1100.0, 33.1662
61.336642966, 96.390, 1112.0, 33.3467
61.362903531, 96.390, 1153.0, 33.9559
61.389164096, 96.390, 1109.0, 33.3017
61.415424662, 96.390, 1144.0, 33.8231
61.441685227, 96.390, 1077.0, 32.8177
61.467945792, 96.390, 1055.0, 32.4808
61.494206358, 96.390, 1172.0, 34.2345
61.520466923, 96.390, 1111.0, 33.3317
61.546727489, 96.390, 1114.0, 33.3766
61.572988054, 96.390, 1145.0, 33.8378
61.599248619, 96.390, 1141.0, 33.7787
61.625509185, 96.390, 1147.0, 33.8674
61.651769750, 96.390, 1084.0, 32.9242
61.678030315, 96.390, 1115.0, 33.3916
61.704290881, 96.390, 1143.0, 33.8083
61.730551446, 96.390, 1051.0, 32.4191
61.756812011, 96.390, 1149.0, 33.8969
61.783072577, 96.390, 1095.0, 33.0908
61.809333142, 96.390, 1067.0, 32.6650
61.835593707, 96.390, 1129.0, 33.6006
61.861854273, 96.390, 1095.0, 33.0908
61.888114838, 96.390, 1160.0, 34.0588
61.914375404, 96.390, 1093.0, 33.0606
61.940635969, 96.390, 1153.0, 33.9559
61.966896534, 96.390, 1145.0, 33.8378
61.993157100, 96.390, 1131.0, 33.6303
62.019417665, 96.390, 1113.0, 33.3617
62.045678230, 96.390, 1132.0, 33.6452
62.071938796, 96.390, 1105.0, 33.2415
62.098199361, 96.390, 1074.0, 32.7719
62.124459926, 96.390, 1125.0, 33.5410
62.150720492, 96.390, 1077.0, 32.8177
62.176981057, 96.390, 1092.0, 33.0454
62.203241622, 96.390, 1148.0, 33.8821
62.229502188, 96.390, 1137.0, 33.7194
62.255762753, 96.390, 1137.0, 33.7194
62.282023318, 96.390, 1104.0, 33.2265
62.308283884, 96.390, 1109.0, 33.3017
62.334544449, 96.390, 1151.0, 33.9264
62.360805015, 96.390, 1107.0, 33.2716
62.387065580, 96.390, 1163.0, 34.1028
62.413326145, 96.390, 1108.0, 33.2866
62.439586711, 96.390, 1083.0, 32.9090
62.465847276, 96.390, 1073.0, 32.7567
62.492107841, 96.390, 1090.0, 33.0151
62.518368407, 96.390, 1102.0, 33.1964
62.544628972, 96.390, 1111.0, 33.3317
62.570889537, 96.390, 1049.0, 32.3883
62.597150103, 96.390, 1143.0, 33.8083
62.623410668, 96.390, 1089.0, 33.0000
62.649671233, 96.390, 1067.0, 32.6650
62.675931799, 96.390, 1108.0, 33.2866
62.702192364, 96.390, 1103.0, 33.2114
62.728452930, 96.390, 1020.0, 31.9374
62.754713495, 96.390, 1040.0, 32.2490
62.780974060, 96.390, 1068.0, 32.6803
62.807234626, 96.390, 1094.0, 33.0757
62.833495191, 96.390, 1086.0, 32.9545
62.859755756, 96.390, 1068.0, 32.6803
62.886016322, 96.390, 1029.0, 32.0780
62.912276887, 96.390, 1012.0, 31.8119
62.938537452, 96.390, 1048.0, 32.3728
62.964798018, 96.390, 1077.0, 32.8177
62.991058583, 96.390, 1058.0, 32.5269
63.017319148, 96.390, 1122.0, 33.4963
63.043579714, 96.390, 1064.0, 32.6190
63.069840279, 96.390, 1041.0, 32.2645
63.096100844, 96.390, 1053.0, 32.4500
63.122361410, 96.390, 995.0, 31.5436
63.148621975, 96.390, 1082.0, 32.8938
63.174882541, 96.390, 1022.0, 31.9687
63.201143106, 96.390, 1012.0, 31.8119
63.227403671, 96.390, 1047.0, 32.3574
63.253664237, 96.390, 1028.0, 32.0624
63.279924802, 96.390, 985.0, 31.3847
63.306185367, 96.390, 994.0, 31.5278
63.332445933, 96.390, 1045.0, 32.3265
63.358706498, 96.390, 1048.0, 32.3728
63.384967063, 96.390, 1089.0, 33.0000
63.411227629, 96.390, 1088.0, 32.9848
63.437488194, 96.390, 1027.0, 32.0468
63.463748759, 96.390, 1063.0, 32.6037
63.490009325, 96.390, 949.0, 30.8058
63.516269890, 96.390, 1025.0, 32.0156
63.542530455, 96.390, 972.0, 31.1769
63.568791021, 96.390, 1058.0, 32.5269
63.595051586, 96.390, 1057.0, 32.5115
63.621312152, 96.390, 1099.0, 33.1512
63.647572717, 96.390, 1089.0, 33.0000
63.673833282, 96.390, 1138.0, 33.7343
63.700093848, 96.390, 1123.0, 33.5112
63.726354413, 96.390, 1194.0, 34.5543
63.752614978, 96.390, 1283.0, 35.8190
63.778875544, 96.390, 1270.0, 35.6371
63.805136109, 96.390, 1278.0, 35.7491
63.831396674, 96.390, 1228.0, 35.0428
63.857657240, 96.390, 1108.0, 33.2866
63.883917805, 96.390, 1245.0, 35.2846
63.910178370, 96.390, 1195.0, 34.5688
63.936438936, 96.390, 1155.0, 33.9853
63.962699501, 96.390, 1136.0, 33.7046
63.988960067, 96.390, 1111.0, 33.3317
64.015220632, 96.390, 1141.0, 33.7787
64.041481197, 96.390, 1102.0, 33.1964
64.067741763, 96.390, 1100.0, 33.1662
64.094002328, 96.390, 1045.0, 32.3265
64.120262893, 96.390, 1023.0, 31.9844
64.146523459, 96.390, 1049.0, 32.3883
64.172784024, 96.390, 1041.0, 32.2645
64.199044589, 96.390, 1070.0, 32.7109
64.225305155, 96.390, 1090.0, 33.0151
64.251565720, 96.390, 1099.0, 33.1512
64.277826285, 96.390, 1093.0, 33.0606
64.304086851, 96.390, 1074.0, 32.7719
64.330347416, 96.390, 1099.0, 33.1512
64.356607981, 96.390, 1108.0, 33.2866
64.382868547, 96.390, 1064.0, 32.6190
64.409129112, 96.390, 1067.0, 32.6650
64.435389678, 96.390, 1110.0, 33.3167
64.461650243, 96.390, 1090.0, 33.0151
64.487910808, 96.390, 1032.0, 32.1248
64.514171374, 96.390, 1072.0, 32.7414
64.540431939, 96.390, 1112.0, 33.3467
64.566692504, 96.390, 1032.0, 32.1248
64.592953070, 96.390, 1033.0, 32.1403
64.619213635, 96.390, 996.0, 31.5595
64.645474200, 96.390, 958.0, 30.9516
64.671734766, 96.390, 1013.0, 31.8277
64.697995331, 96.390, 990.0, 31.4643
64.724255896, 96.390, 1023.0, 31.9844
64.750516462, 96.390, 1025.0, 32.0156
64.776777027, 96.390, 998.0, 31.5911
64.803037593, 96.390, 999.0, 31.6070
64.829298158, 96.390, 937.0, 30.6105
64.855558723, 96.390, 1023.0, 31.9844
64.881819289, 96.390, 950.0, 30.8221
64.908079854, 96.390, 1008.0, 31.7490
64.934340419, 96.390, 985.0, 31.3847
64.960600985, 96.390, 933.0, 30.5450
64.986861550, 96.390, 952.0, 30.8545
