[Measurement conditions]
Sample identification,XRD_PAxial04Jan22_Act21Feb22_B2_0455M_NaOH_LS0124_1
Comment - 1,"Configuration=Stage for Flat Samples/Holders, Owner=User-1, Creation date=7/1/2020 9:53:24 AM"
Comment - 2,"Goniometer=Theta/Theta; Minimum step size 2Theta:0.0001; Minimum step size Omega:0.0001"
Comment - 3,"Sample stage=Stage for flat samples/holders"
Comment - 4,"Diffractometer system=EMPYREAN"
Comment - 5,"Measurement program=C:\Users\ibo5034\OneDrive - The Pennsylvania State University\NEUP - Reed, Titus's files\XRD\Cement\Zerobackground scan.xrdmp, Identifier={98A3B11C-88F9-4AA6-982C-73314A311EF5}"
Anode material,Cu
K-Alpha1 wavelength,1.5405980
K-Alpha2 wavelength,1.5444260
Ratio K-Alpha2/K-Alpha1,0.500
Divergence slit,Fixed,0.25
Monochromator used,NO
Generator voltage, 45
Tube current, 40
File date and time,24/Feb/2022 13:31
Unit cell,
h k l, 0 0 0
Scan axis,Gonio
Scan range,4.994599997,64.999991833
Scan step size,0.0262606
No. of points, 2285
Scan type,CONTINUOUS
Time per step,96.390
[Scan points]
Angle, TimePerStep, Intensity, ESD
5.007730280, 96.390, 6636.0, 81.4616
5.033990845, 96.390, 6343.0, 79.6430
5.060251411, 96.390, 6450.0, 80.3119
5.086511976, 96.390, 6484.0, 80.5233
5.112772541, 96.390, 6529.0, 80.8022
5.139033107, 96.390, 6374.0, 79.8373
5.165293672, 96.390, 6192.0, 78.6893
5.191554237, 96.390, 6073.0, 77.9295
5.217814803, 96.390, 6082.0, 77.9872
5.244075368, 96.390, 5975.0, 77.2981
5.270335934, 96.390, 6017.0, 77.5693
5.296596499, 96.390, 5999.0, 77.4532
5.322857064, 96.390, 5912.0, 76.8895
5.349117630, 96.390, 5937.0, 77.0519
5.375378195, 96.390, 5797.0, 76.1380
5.401638760, 96.390, 5799.0, 76.1512
5.427899326, 96.390, 5606.0, 74.8732
5.454159891, 96.390, 5786.0, 76.0658
5.480420456, 96.390, 5539.0, 74.4245
5.506681022, 96.390, 5547.0, 74.4782
5.532941587, 96.390, 5696.0, 75.4718
5.559202152, 96.390, 5551.0, 74.5050
5.585462718, 96.390, 5567.0, 74.6123
5.611723283, 96.390, 5526.0, 74.3371
5.637983849, 96.390, 5538.0, 74.4177
5.664244414, 96.390, 5393.0, 73.4370
5.690504979, 96.390, 5288.0, 72.7186
5.716765545, 96.390, 5329.0, 73.0000
5.743026110, 96.390, 5213.0, 72.2011
5.769286675, 96.390, 5272.0, 72.6085
5.795547241, 96.390, 5313.0, 72.8903
5.821807806, 96.390, 5191.0, 72.0486
5.848068371, 96.390, 5125.0, 71.5891
5.874328937, 96.390, 5280.0, 72.6636
5.900589502, 96.390, 5239.0, 72.3809
5.926850067, 96.390, 5341.0, 73.0821
5.953110633, 96.390, 5228.0, 72.3049
5.979371198, 96.390, 5104.0, 71.4423
6.005631763, 96.390, 5176.0, 71.9444
6.031892329, 96.390, 5028.0, 70.9084
6.058152894, 96.390, 4908.0, 70.0571
6.084413460, 96.390, 4948.0, 70.3420
6.110674025, 96.390, 4997.0, 70.6895
6.136934590, 96.390, 4959.0, 70.4202
6.163195156, 96.390, 4879.0, 69.8498
6.189455721, 96.390, 4872.0, 69.7997
6.215716286, 96.390, 4927.0, 70.1926
6.241976852, 96.390, 4906.0, 70.0428
6.268237417, 96.390, 4978.0, 70.5549
6.294497982, 96.390, 4886.0, 69.8999
6.320758548, 96.390, 4913.0, 70.0928
6.347019113, 96.390, 4762.0, 69.0072
6.373279678, 96.390, 4752.0, 68.9348
6.399540244, 96.390, 4735.0, 68.8113
6.425800809, 96.390, 4824.0, 69.4550
6.452061375, 96.390, 4747.0, 68.8985
6.478321940, 96.390, 4792.0, 69.2243
6.504582505, 96.390, 4788.0, 69.1954
6.530843071, 96.390, 4700.0, 68.5565
6.557103636, 96.390, 4708.0, 68.6149
6.583364201, 96.390, 4684.0, 68.4398
6.609624767, 96.390, 4659.0, 68.2569
6.635885332, 96.390, 4672.0, 68.3520
6.662145897, 96.390, 4693.0, 68.5055
6.688406463, 96.390, 4544.0, 67.4092
6.714667028, 96.390, 4572.0, 67.6166
6.740927593, 96.390, 4592.0, 67.7643
6.767188159, 96.390, 4534.0, 67.3350
6.793448724, 96.390, 4552.0, 67.4685
6.819709289, 96.390, 4507.0, 67.1342
6.845969855, 96.390, 4467.0, 66.8356
6.872230420, 96.390, 4633.0, 68.0661
6.898490986, 96.390, 4516.0, 67.2012
6.924751551, 96.390, 4602.0, 67.8380
6.951012116, 96.390, 4452.0, 66.7233
6.977272682, 96.390, 4515.0, 67.1937
7.003533247, 96.390, 4392.0, 66.2722
7.029793812, 96.390, 4468.0, 66.8431
7.056054378, 96.390, 4410.0, 66.4078
7.082314943, 96.390, 4493.0, 67.0298
7.108575508, 96.390, 4408.0, 66.3928
7.134836074, 96.390, 4455.0, 66.7458
7.161096639, 96.390, 4285.0, 65.4599
7.187357204, 96.390, 4328.0, 65.7875
7.213617770, 96.390, 4381.0, 66.1891
7.239878335, 96.390, 4321.0, 65.7343
7.266138900, 96.390, 4335.0, 65.8407
7.292399466, 96.390, 4433.0, 66.5808
7.318660031, 96.390, 4347.0, 65.9318
7.344920597, 96.390, 4351.0, 65.9621
7.371181162, 96.390, 4325.0, 65.7647
7.397441727, 96.390, 4378.0, 66.1665
7.423702293, 96.390, 4329.0, 65.7951
7.449962858, 96.390, 4213.0, 64.9076
7.476223423, 96.390, 4276.0, 65.3911
7.502483989, 96.390, 4356.0, 66.0000
7.528744554, 96.390, 4280.0, 65.4217
7.555005119, 96.390, 4203.0, 64.8305
7.581265685, 96.390, 4322.0, 65.7419
7.607526250, 96.390, 4371.0, 66.1135
7.633786815, 96.390, 4185.0, 64.6916
7.660047381, 96.390, 4363.0, 66.0530
7.686307946, 96.390, 4310.0, 65.6506
7.712568512, 96.390, 4444.0, 66.6633
7.738829077, 96.390, 4283.0, 65.4446
7.765089642, 96.390, 4387.0, 66.2344
7.791350208, 96.390, 4358.0, 66.0151
7.817610773, 96.390, 4338.0, 65.8635
7.843871338, 96.390, 4446.0, 66.6783
7.870131904, 96.390, 4430.0, 66.5582
7.896392469, 96.390, 4345.0, 65.9166
7.922653034, 96.390, 4375.0, 66.1438
7.948913600, 96.390, 4367.0, 66.0833
7.975174165, 96.390, 4389.0, 66.2495
8.001434730, 96.390, 4468.0, 66.8431
8.027695296, 96.390, 4511.0, 67.1640
8.053955861, 96.390, 4571.0, 67.6092
8.080216426, 96.390, 4568.0, 67.5870
8.106476992, 96.390, 4555.0, 67.4907
8.132737557, 96.390, 4657.0, 68.2422
8.158998123, 96.390, 4416.0, 66.4530
8.185258688, 96.390, 4710.0, 68.6294
8.211519253, 96.390, 4676.0, 68.3813
8.237779819, 96.390, 4563.0, 67.5500
8.264040384, 96.390, 4733.0, 68.7968
8.290300949, 96.390, 4677.0, 68.3886
8.316561515, 96.390, 4769.0, 69.0579
8.342822080, 96.390, 4846.0, 69.6132
8.369082645, 96.390, 4840.0, 69.5701
8.395343211, 96.390, 4812.0, 69.3686
8.421603776, 96.390, 4908.0, 70.0571
8.447864341, 96.390, 4900.0, 70.0000
8.474124907, 96.390, 5014.0, 70.8096
8.500385472, 96.390, 4947.0, 70.3349
8.526646038, 96.390, 4916.0, 70.1142
8.552906603, 96.390, 5120.0, 71.5542
8.579167168, 96.390, 5172.0, 71.9166
8.605427734, 96.390, 5099.0, 71.4073
8.631688299, 96.390, 5161.0, 71.8401
8.657948864, 96.390, 4925.0, 70.1783
8.684209430, 96.390, 5150.0, 71.7635
8.710469995, 96.390, 4932.0, 70.2282
8.736730560, 96.390, 5135.0, 71.6589
8.762991126, 96.390, 5054.0, 71.0915
8.789251691, 96.390, 4939.0, 70.2780
8.815512256, 96.390, 4888.0, 69.9142
8.841772822, 96.390, 4884.0, 69.8856
8.868033387, 96.390, 4802.0, 69.2965
8.894293952, 96.390, 4701.0, 68.5638
8.920554518, 96.390, 4814.0, 69.3830
8.946815083, 96.390, 4718.0, 68.6877
8.973075649, 96.390, 4615.0, 67.9338
8.999336214, 96.390, 4557.0, 67.5056
9.025596779, 96.390, 4571.0, 67.6092
9.051857345, 96.390, 4575.0, 67.6387
9.078117910, 96.390, 4291.0, 65.5057
9.104378475, 96.390, 4279.0, 65.4141
9.130639041, 96.390, 4281.0, 65.4294
9.156899606, 96.390, 4182.0, 64.6684
9.183160171, 96.390, 4077.0, 63.8514
9.209420737, 96.390, 4042.0, 63.5767
9.235681302, 96.390, 4052.0, 63.6553
9.261941867, 96.390, 3980.0, 63.0872
9.288202433, 96.390, 3990.0, 63.1664
9.314462998, 96.390, 3877.0, 62.2656
9.340723564, 96.390, 3810.0, 61.7252
9.366984129, 96.390, 3802.0, 61.6604
9.393244694, 96.390, 3753.0, 61.2617
9.419505260, 96.390, 3760.0, 61.3188
9.445765825, 96.390, 3697.0, 60.8030
9.472026390, 96.390, 3780.0, 61.4817
9.498286956, 96.390, 3586.0, 59.8832
9.524547521, 96.390, 3541.0, 59.5063
9.550808086, 96.390, 3527.0, 59.3886
9.577068652, 96.390, 3600.0, 60.0000
9.603329217, 96.390, 3513.0, 59.2706
9.629589782, 96.390, 3473.0, 58.9322
9.655850348, 96.390, 3465.0, 58.8643
9.682110913, 96.390, 3383.0, 58.1636
9.708371478, 96.390, 3350.0, 57.8792
9.734632044, 96.390, 3323.0, 57.6455
9.760892609, 96.390, 3316.0, 57.5847
9.787153175, 96.390, 3389.0, 58.2151
9.813413740, 96.390, 3334.0, 57.7408
9.839674305, 96.390, 3255.0, 57.0526
9.865934871, 96.390, 3416.0, 58.4466
9.892195436, 96.390, 3280.0, 57.2713
9.918456001, 96.390, 3418.0, 58.4637
9.944716567, 96.390, 3361.0, 57.9741
9.970977132, 96.390, 3403.0, 58.3352
9.997237697, 96.390, 3268.0, 57.1664
10.023498263, 96.390, 3265.0, 57.1402
10.049758828, 96.390, 3254.0, 57.0438
10.076019393, 96.390, 3254.0, 57.0438
10.102279959, 96.390, 3199.0, 56.5597
10.128540524, 96.390, 3165.0, 56.2583
10.154801090, 96.390, 3181.0, 56.4004
10.181061655, 96.390, 3218.0, 56.7274
10.207322220, 96.390, 3207.0, 56.6304
10.233582786, 96.390, 3129.0, 55.9375
10.259843351, 96.390, 3136.0, 56.0000
10.286103916, 96.390, 3095.0, 55.6327
10.312364482, 96.390, 3276.0, 57.2364
10.338625047, 96.390, 3184.0, 56.4269
10.364885612, 96.390, 3163.0, 56.2406
10.391146178, 96.390, 3159.0, 56.2050
10.417406743, 96.390, 3203.0, 56.5951
10.443667308, 96.390, 3062.0, 55.3353
10.469927874, 96.390, 3084.0, 55.5338
10.496188439, 96.390, 3134.0, 55.9821
10.522449004, 96.390, 3197.0, 56.5420
10.548709570, 96.390, 3028.0, 55.0273
10.574970135, 96.390, 3094.0, 55.6237
10.601230701, 96.390, 3045.0, 55.1815
10.627491266, 96.390, 3104.0, 55.7136
10.653751831, 96.390, 3106.0, 55.7315
10.680012397, 96.390, 3087.0, 55.5608
10.706272962, 96.390, 3008.0, 54.8452
10.732533527, 96.390, 3016.0, 54.9181
10.758794093, 96.390, 3001.0, 54.7814
10.785054658, 96.390, 3021.0, 54.9636
10.811315223, 96.390, 3023.0, 54.9818
10.837575789, 96.390, 2962.0, 54.4243
10.863836354, 96.390, 3079.0, 55.4887
10.890096919, 96.390, 3064.0, 55.3534
10.916357485, 96.390, 3064.0, 55.3534
10.942618050, 96.390, 2947.0, 54.2863
10.968878616, 96.390, 2932.0, 54.1479
10.995139181, 96.390, 2917.0, 54.0093
11.021399746, 96.390, 2940.0, 54.2218
11.047660312, 96.390, 2947.0, 54.2863
11.073920877, 96.390, 2946.0, 54.2771
11.100181442, 96.390, 2860.0, 53.4790
11.126442008, 96.390, 3026.0, 55.0091
11.152702573, 96.390, 2993.0, 54.7083
11.178963138, 96.390, 2933.0, 54.1572
11.205223704, 96.390, 2889.0, 53.7494
11.231484269, 96.390, 3024.0, 54.9909
11.257744834, 96.390, 3029.0, 55.0364
11.284005400, 96.390, 2801.0, 52.9245
11.310265965, 96.390, 2844.0, 53.3292
11.336526530, 96.390, 2882.0, 53.6843
11.362787096, 96.390, 2839.0, 53.2823
11.389047661, 96.390, 2869.0, 53.5630
11.415308227, 96.390, 2887.0, 53.7308
11.441568792, 96.390, 2827.0, 53.1695
11.467829357, 96.390, 2874.0, 53.6097
11.494089923, 96.390, 2838.0, 53.2729
11.520350488, 96.390, 2913.0, 53.9722
11.546611053, 96.390, 2992.0, 54.6992
11.572871619, 96.390, 2821.0, 53.1131
11.599132184, 96.390, 2990.0, 54.6809
11.625392749, 96.390, 2756.0, 52.4976
11.651653315, 96.390, 2824.0, 53.1413
11.677913880, 96.390, 2764.0, 52.5738
11.704174445, 96.390, 2846.0, 53.3479
11.730435011, 96.390, 2798.0, 52.8961
11.756695576, 96.390, 2800.0, 52.9150
11.782956141, 96.390, 2850.0, 53.3854
11.809216707, 96.390, 2846.0, 53.3479
11.835477272, 96.390, 2793.0, 52.8488
11.861737838, 96.390, 2758.0, 52.5167
11.887998403, 96.390, 2772.0, 52.6498
11.914258968, 96.390, 2796.0, 52.8772
11.940519534, 96.390, 2829.0, 53.1883
11.966780099, 96.390, 2718.0, 52.1344
11.993040664, 96.390, 2804.0, 52.9528
12.019301230, 96.390, 2782.0, 52.7447
12.045561795, 96.390, 2726.0, 52.2111
12.071822360, 96.390, 2694.0, 51.9038
12.098082926, 96.390, 2823.0, 53.1319
12.124343491, 96.390, 2731.0, 52.2590
12.150604056, 96.390, 2657.0, 51.5461
12.176864622, 96.390, 2805.0, 52.9623
12.203125187, 96.390, 2718.0, 52.1344
12.229385753, 96.390, 2726.0, 52.2111
12.255646318, 96.390, 2734.0, 52.2877
12.281906883, 96.390, 2724.0, 52.1920
12.308167449, 96.390, 2770.0, 52.6308
12.334428014, 96.390, 2696.0, 51.9230
12.360688579, 96.390, 2764.0, 52.5738
12.386949145, 96.390, 2798.0, 52.8961
12.413209710, 96.390, 2692.0, 51.8845
12.439470275, 96.390, 2652.0, 51.4976
12.465730841, 96.390, 2619.0, 51.1762
12.491991406, 96.390, 2714.0, 52.0961
12.518251971, 96.390, 2676.0, 51.7301
12.544512537, 96.390, 2694.0, 51.9038
12.570773102, 96.390, 2671.0, 51.6817
12.597033667, 96.390, 2607.0, 51.0588
12.623294233, 96.390, 2630.0, 51.2835
12.649554798, 96.390, 2641.0, 51.3907
12.675815364, 96.390, 2699.0, 51.9519
12.702075929, 96.390, 2690.0, 51.8652
12.728336494, 96.390, 2622.0, 51.2055
12.754597060, 96.390, 2615.0, 51.1371
12.780857625, 96.390, 2641.0, 51.3907
12.807118190, 96.390, 2584.0, 50.8331
12.833378756, 96.390, 2658.0, 51.5558
12.859639321, 96.390, 2750.0, 52.4404
12.885899886, 96.390, 2621.0, 51.1957
12.912160452, 96.390, 2661.0, 51.5849
12.938421017, 96.390, 2609.0, 51.0784
12.964681582, 96.390, 2567.0, 50.6656
12.990942148, 96.390, 2611.0, 51.0979
13.017202713, 96.390, 2672.0, 51.6914
13.043463279, 96.390, 2557.0, 50.5668
13.069723844, 96.390, 2699.0, 51.9519
13.095984409, 96.390, 2567.0, 50.6656
13.122244975, 96.390, 2715.0, 52.1057
13.148505540, 96.390, 2565.0, 50.6458
13.174766105, 96.390, 2588.0, 50.8724
13.201026671, 96.390, 2632.0, 51.3030
13.227287236, 96.390, 2530.0, 50.2991
13.253547801, 96.390, 2604.0, 51.0294
13.279808367, 96.390, 2565.0, 50.6458
13.306068932, 96.390, 2547.0, 50.4678
13.332329497, 96.390, 2567.0, 50.6656
13.358590063, 96.390, 2627.0, 51.2543
13.384850628, 96.390, 2616.0, 51.1468
13.411111193, 96.390, 2551.0, 50.5074
13.437371759, 96.390, 2469.0, 49.6890
13.463632324, 96.390, 2503.0, 50.0300
13.489892890, 96.390, 2511.0, 50.1099
13.516153455, 96.390, 2456.0, 49.5580
13.542414020, 96.390, 2480.0, 49.7996
13.568674586, 96.390, 2523.0, 50.2295
13.594935151, 96.390, 2553.0, 50.5272
13.621195716, 96.390, 2502.0, 50.0200
13.647456282, 96.390, 2454.0, 49.5379
13.673716847, 96.390, 2467.0, 49.6689
13.699977412, 96.390, 2489.0, 49.8899
13.726237978, 96.390, 2450.0, 49.4975
13.752498543, 96.390, 2515.0, 50.1498
13.778759108, 96.390, 2472.0, 49.7192
13.805019674, 96.390, 2441.0, 49.4065
13.831280239, 96.390, 2531.0, 50.3090
13.857540805, 96.390, 2546.0, 50.4579
13.883801370, 96.390, 2516.0, 50.1597
13.910061935, 96.390, 2430.0, 49.2950
13.936322501, 96.390, 2553.0, 50.5272
13.962583066, 96.390, 2393.0, 48.9183
13.988843631, 96.390, 2441.0, 49.4065
14.015104197, 96.390, 2441.0, 49.4065
14.041364762, 96.390, 2474.0, 49.7393
14.067625327, 96.390, 2470.0, 49.6991
14.093885893, 96.390, 2454.0, 49.5379
14.120146458, 96.390, 2461.0, 49.6085
14.146407023, 96.390, 2535.0, 50.3488
14.172667589, 96.390, 2540.0, 50.3984
14.198928154, 96.390, 2456.0, 49.5580
14.225188719, 96.390, 2419.0, 49.1833
14.251449285, 96.390, 2387.0, 48.8569
14.277709850, 96.390, 2337.0, 48.3425
14.303970416, 96.390, 2497.0, 49.9700
14.330230981, 96.390, 2430.0, 49.2950
14.356491546, 96.390, 2421.0, 49.2037
14.382752112, 96.390, 2394.0, 48.9285
14.409012677, 96.390, 2491.0, 49.9099
14.435273242, 96.390, 2511.0, 50.1099
14.461533808, 96.390, 2382.0, 48.8057
14.487794373, 96.390, 2491.0, 49.9099
14.514054938, 96.390, 2373.0, 48.7134
14.540315504, 96.390, 2605.0, 51.0392
14.566576069, 96.390, 2469.0, 49.6890
14.592836634, 96.390, 2453.0, 49.5278
14.619097200, 96.390, 2555.0, 50.5470
14.645357765, 96.390, 2554.0, 50.5371
14.671618331, 96.390, 2592.0, 50.9117
14.697878896, 96.390, 2582.0, 50.8134
14.724139461, 96.390, 2483.0, 49.8297
14.750400027, 96.390, 2489.0, 49.8899
14.776660592, 96.390, 2459.0, 49.5883
14.802921157, 96.390, 2472.0, 49.7192
14.829181723, 96.390, 2437.0, 49.3660
14.855442288, 96.390, 2313.0, 48.0937
14.881702853, 96.390, 2488.0, 49.8799
14.907963419, 96.390, 2511.0, 50.1099
14.934223984, 96.390, 2484.0, 49.8397
14.960484549, 96.390, 2421.0, 49.2037
14.986745115, 96.390, 2419.0, 49.1833
15.013005680, 96.390, 2485.0, 49.8498
15.039266245, 96.390, 2363.0, 48.6107
15.065526811, 96.390, 2426.0, 49.2544
15.091787376, 96.390, 2423.0, 49.2240
15.118047942, 96.390, 2377.0, 48.7545
15.144308507, 96.390, 2366.0, 48.6415
15.170569072, 96.390, 2322.0, 48.1871
15.196829638, 96.390, 2394.0, 48.9285
15.223090203, 96.390, 2320.0, 48.1664
15.249350768, 96.390, 2341.0, 48.3839
15.275611334, 96.390, 2404.0, 49.0306
15.301871899, 96.390, 2403.0, 49.0204
15.328132464, 96.390, 2346.0, 48.4355
15.354393030, 96.390, 2361.0, 48.5901
15.380653595, 96.390, 2405.0, 49.0408
15.406914160, 96.390, 2387.0, 48.8569
15.433174726, 96.390, 2356.0, 48.5386
15.459435291, 96.390, 2353.0, 48.5077
15.485695857, 96.390, 2316.0, 48.1248
15.511956422, 96.390, 2370.0, 48.6826
15.538216987, 96.390, 2242.0, 47.3498
15.564477553, 96.390, 2370.0, 48.6826
15.590738118, 96.390, 2448.0, 49.4773
15.616998683, 96.390, 2372.0, 48.7032
15.643259249, 96.390, 2402.0, 49.0102
15.669519814, 96.390, 2437.0, 49.3660
15.695780379, 96.390, 2417.0, 49.1630
15.722040945, 96.390, 2437.0, 49.3660
15.748301510, 96.390, 2189.0, 46.7868
15.774562075, 96.390, 2364.0, 48.6210
15.800822641, 96.390, 2372.0, 48.7032
15.827083206, 96.390, 2397.0, 48.9592
15.853343771, 96.390, 2449.0, 49.4874
15.879604337, 96.390, 2409.0, 49.0816
15.905864902, 96.390, 2350.0, 48.4768
15.932125468, 96.390, 2371.0, 48.6929
15.958386033, 96.390, 2282.0, 47.7703
15.984646598, 96.390, 2427.0, 49.2646
16.010907164, 96.390, 2372.0, 48.7032
16.037167729, 96.390, 2448.0, 49.4773
16.063428294, 96.390, 2383.0, 48.8160
16.089688860, 96.390, 2421.0, 49.2037
16.115949425, 96.390, 2519.0, 50.1896
16.142209990, 96.390, 2484.0, 49.8397
16.168470556, 96.390, 2384.0, 48.8262
16.194731121, 96.390, 2418.0, 49.1732
16.220991686, 96.390, 2392.0, 48.9081
16.247252252, 96.390, 2428.0, 49.2747
16.273512817, 96.390, 2384.0, 48.8262
16.299773382, 96.390, 2420.0, 49.1935
16.326033948, 96.390, 2535.0, 50.3488
16.352294513, 96.390, 2459.0, 49.5883
16.378555079, 96.390, 2437.0, 49.3660
16.404815644, 96.390, 2502.0, 50.0200
16.431076209, 96.390, 2560.0, 50.5964
16.457336775, 96.390, 2599.0, 50.9804
16.483597340, 96.390, 2667.0, 51.6430
16.509857905, 96.390, 2585.0, 50.8429
16.536118471, 96.390, 2623.0, 51.2152
16.562379036, 96.390, 2698.0, 51.9423
16.588639601, 96.390, 2669.0, 51.6624
16.614900167, 96.390, 2738.0, 52.3259
16.641160732, 96.390, 2800.0, 52.9150
16.667421297, 96.390, 2738.0, 52.3259
16.693681863, 96.390, 2748.0, 52.4214
16.719942428, 96.390, 2679.0, 51.7591
16.746202994, 96.390, 2749.0, 52.4309
16.772463559, 96.390, 2734.0, 52.2877
16.798724124, 96.390, 2773.0, 52.6593
16.824984690, 96.390, 2613.0, 51.1175
16.851245255, 96.390, 2765.0, 52.5833
16.877505820, 96.390, 2759.0, 52.5262
16.903766386, 96.390, 2810.0, 53.0094
16.930026951, 96.390, 2612.0, 51.1077
16.956287516, 96.390, 2613.0, 51.1175
16.982548082, 96.390, 2761.0, 52.5452
17.008808647, 96.390, 2575.0, 50.7445
17.035069212, 96.390, 2651.0, 51.4879
17.061329778, 96.390, 2614.0, 51.1273
17.087590343, 96.390, 2593.0, 50.9215
17.113850908, 96.390, 2716.0, 52.1153
17.140111474, 96.390, 2686.0, 51.8266
17.166372039, 96.390, 2628.0, 51.2640
17.192632605, 96.390, 2613.0, 51.1175
17.218893170, 96.390, 2604.0, 51.0294
17.245153735, 96.390, 2573.0, 50.7247
17.271414301, 96.390, 2551.0, 50.5074
17.297674866, 96.390, 2546.0, 50.4579
17.323935431, 96.390, 2527.0, 50.2693
17.350195997, 96.390, 2520.0, 50.1996
17.376456562, 96.390, 2515.0, 50.1498
17.402717127, 96.390, 2476.0, 49.7594
17.428977693, 96.390, 2596.0, 50.9510
17.455238258, 96.390, 2548.0, 50.4777
17.481498823, 96.390, 2512.0, 50.1199
17.507759389, 96.390, 2398.0, 48.9694
17.534019954, 96.390, 2434.0, 49.3356
17.560280520, 96.390, 2583.0, 50.8232
17.586541085, 96.390, 2544.0, 50.4381
17.612801650, 96.390, 2469.0, 49.6890
17.639062216, 96.390, 2373.0, 48.7134
17.665322781, 96.390, 2512.0, 50.1199
17.691583346, 96.390, 2454.0, 49.5379
17.717843912, 96.390, 2522.0, 50.2195
17.744104477, 96.390, 2437.0, 49.3660
17.770365042, 96.390, 2468.0, 49.6790
17.796625608, 96.390, 2426.0, 49.2544
17.822886173, 96.390, 2464.0, 49.6387
17.849146738, 96.390, 2340.0, 48.3735
17.875407304, 96.390, 2522.0, 50.2195
17.901667869, 96.390, 2410.0, 49.0918
17.927928434, 96.390, 2346.0, 48.4355
17.954189000, 96.390, 2462.0, 49.6185
17.980449565, 96.390, 2368.0, 48.6621
18.006710131, 96.390, 2415.0, 49.1426
18.032970696, 96.390, 2508.0, 50.0799
18.059231261, 96.390, 2441.0, 49.4065
18.085491827, 96.390, 2456.0, 49.5580
18.111752392, 96.390, 2365.0, 48.6313
18.138012957, 96.390, 2365.0, 48.6313
18.164273523, 96.390, 2436.0, 49.3559
18.190534088, 96.390, 2351.0, 48.4871
18.216794653, 96.390, 2483.0, 49.8297
18.243055219, 96.390, 2402.0, 49.0102
18.269315784, 96.390, 2262.0, 47.5605
18.295576349, 96.390, 2326.0, 48.2286
18.321836915, 96.390, 2327.0, 48.2390
18.348097480, 96.390, 2391.0, 48.8979
18.374358046, 96.390, 2329.0, 48.2597
18.400618611, 96.390, 2335.0, 48.3218
18.426879176, 96.390, 2336.0, 48.3322
18.453139742, 96.390, 2324.0, 48.2079
18.479400307, 96.390, 2327.0, 48.2390
18.505660872, 96.390, 2513.0, 50.1298
18.531921438, 96.390, 2394.0, 48.9285
18.558182003, 96.390, 2246.0, 47.3920
18.584442568, 96.390, 2406.0, 49.0510
18.610703134, 96.390, 2458.0, 49.5782
18.636963699, 96.390, 2381.0, 48.7955
18.663224264, 96.390, 2364.0, 48.6210
18.689484830, 96.390, 2336.0, 48.3322
18.715745395, 96.390, 2332.0, 48.2908
18.742005960, 96.390, 2264.0, 47.5815
18.768266526, 96.390, 2329.0, 48.2597
18.794527091, 96.390, 2394.0, 48.9285
18.820787657, 96.390, 2323.0, 48.1975
18.847048222, 96.390, 2326.0, 48.2286
18.873308787, 96.390, 2318.0, 48.1456
18.899569353, 96.390, 2399.0, 48.9796
18.925829918, 96.390, 2314.0, 48.1041
18.952090483, 96.390, 2382.0, 48.8057
18.978351049, 96.390, 2285.0, 47.8017
19.004611614, 96.390, 2427.0, 49.2646
19.030872179, 96.390, 2395.0, 48.9387
19.057132745, 96.390, 2431.0, 49.3052
19.083393310, 96.390, 2410.0, 49.0918
19.109653875, 96.390, 2418.0, 49.1732
19.135914441, 96.390, 2512.0, 50.1199
19.162175006, 96.390, 2440.0, 49.3964
19.188435572, 96.390, 2563.0, 50.6261
19.214696137, 96.390, 2453.0, 49.5278
19.240956702, 96.390, 2617.0, 51.1566
19.267217268, 96.390, 2540.0, 50.3984
19.293477833, 96.390, 2511.0, 50.1099
19.319738398, 96.390, 2439.0, 49.3862
19.345998964, 96.390, 2487.0, 49.8698
19.372259529, 96.390, 2505.0, 50.0500
19.398520094, 96.390, 2540.0, 50.3984
19.424780660, 96.390, 2504.0, 50.0400
19.451041225, 96.390, 2481.0, 49.8096
19.477301790, 96.390, 2472.0, 49.7192
19.503562356, 96.390, 2448.0, 49.4773
19.529822921, 96.390, 2529.0, 50.2892
19.556083486, 96.390, 2445.0, 49.4469
19.582344052, 96.390, 2424.0, 49.2341
19.608604617, 96.390, 2468.0, 49.6790
19.634865183, 96.390, 2464.0, 49.6387
19.661125748, 96.390, 2447.0, 49.4672
19.687386313, 96.390, 2483.0, 49.8297
19.713646879, 96.390, 2467.0, 49.6689
19.739907444, 96.390, 2574.0, 50.7346
19.766168009, 96.390, 2377.0, 48.7545
19.792428575, 96.390, 2484.0, 49.8397
19.818689140, 96.390, 2474.0, 49.7393
19.844949705, 96.390, 2494.0, 49.9400
19.871210271, 96.390, 2559.0, 50.5866
19.897470836, 96.390, 2469.0, 49.6890
19.923731401, 96.390, 2504.0, 50.0400
19.949991967, 96.390, 2445.0, 49.4469
19.976252532, 96.390, 2444.0, 49.4368
20.002513097, 96.390, 2469.0, 49.6890
20.028773663, 96.390, 2506.0, 50.0600
20.055034228, 96.390, 2547.0, 50.4678
20.081294794, 96.390, 2534.0, 50.3389
20.107555359, 96.390, 2551.0, 50.5074
20.133815924, 96.390, 2629.0, 51.2738
20.160076490, 96.390, 2641.0, 51.3907
20.186337055, 96.390, 2652.0, 51.4976
20.212597620, 96.390, 2592.0, 50.9117
20.238858186, 96.390, 2620.0, 51.1859
20.265118751, 96.390, 2739.0, 52.3355
20.291379316, 96.390, 2617.0, 51.1566
20.317639882, 96.390, 2658.0, 51.5558
20.343900447, 96.390, 2635.0, 51.3323
20.370161012, 96.390, 2642.0, 51.4004
20.396421578, 96.390, 2629.0, 51.2738
20.422682143, 96.390, 2691.0, 51.8748
20.448942709, 96.390, 2637.0, 51.3517
20.475203274, 96.390, 2550.0, 50.4975
20.501463839, 96.390, 2655.0, 51.5267
20.527724405, 96.390, 2595.0, 50.9411
20.553984970, 96.390, 2584.0, 50.8331
20.580245535, 96.390, 2592.0, 50.9117
20.606506101, 96.390, 2534.0, 50.3389
20.632766666, 96.390, 2582.0, 50.8134
20.659027231, 96.390, 2570.0, 50.6952
20.685287797, 96.390, 2649.0, 51.4684
20.711548362, 96.390, 2493.0, 49.9300
20.737808927, 96.390, 2518.0, 50.1797
20.764069493, 96.390, 2489.0, 49.8899
20.790330058, 96.390, 2594.0, 50.9313
20.816590623, 96.390, 2507.0, 50.0700
20.842851189, 96.390, 2532.0, 50.3190
20.869111754, 96.390, 2632.0, 51.3030
20.895372320, 96.390, 2646.0, 51.4393
20.921632885, 96.390, 2583.0, 50.8232
20.947893450, 96.390, 2586.0, 50.8527
20.974154016, 96.390, 2601.0, 51.0000
21.000414581, 96.390, 2519.0, 50.1896
21.026675146, 96.390, 2511.0, 50.1099
21.052935712, 96.390, 2561.0, 50.6063
21.079196277, 96.390, 2557.0, 50.5668
21.105456842, 96.390, 2531.0, 50.3090
21.131717408, 96.390, 2586.0, 50.8527
21.157977973, 96.390, 2610.0, 51.0882
21.184238538, 96.390, 2657.0, 51.5461
21.210499104, 96.390, 2737.0, 52.3163
21.236759669, 96.390, 2615.0, 51.1371
21.263020235, 96.390, 2671.0, 51.6817
21.289280800, 96.390, 2662.0, 51.5946
21.315541365, 96.390, 2694.0, 51.9038
21.341801931, 96.390, 2666.0, 51.6333
21.368062496, 96.390, 2721.0, 52.1632
21.394323061, 96.390, 2686.0, 51.8266
21.420583627, 96.390, 2855.0, 53.4322
21.446844192, 96.390, 2766.0, 52.5928
21.473104757, 96.390, 2788.0, 52.8015
21.499365323, 96.390, 2769.0, 52.6213
21.525625888, 96.390, 2686.0, 51.8266
21.551886453, 96.390, 2587.0, 50.8626
21.578147019, 96.390, 2689.0, 51.8556
21.604407584, 96.390, 2669.0, 51.6624
21.630668149, 96.390, 2734.0, 52.2877
21.656928715, 96.390, 2689.0, 51.8556
21.683189280, 96.390, 2737.0, 52.3163
21.709449846, 96.390, 2699.0, 51.9519
21.735710411, 96.390, 2641.0, 51.3907
21.761970976, 96.390, 2485.0, 49.8498
21.788231542, 96.390, 2588.0, 50.8724
21.814492107, 96.390, 2580.0, 50.7937
21.840752672, 96.390, 2525.0, 50.2494
21.867013238, 96.390, 2548.0, 50.4777
21.893273803, 96.390, 2450.0, 49.4975
21.919534368, 96.390, 2479.0, 49.7896
21.945794934, 96.390, 2506.0, 50.0600
21.972055499, 96.390, 2514.0, 50.1398
21.998316064, 96.390, 2585.0, 50.8429
22.024576630, 96.390, 2522.0, 50.2195
22.050837195, 96.390, 2575.0, 50.7445
22.077097761, 96.390, 2500.0, 50.0000
22.103358326, 96.390, 2614.0, 51.1273
22.129618891, 96.390, 2603.0, 51.0196
22.155879457, 96.390, 2514.0, 50.1398
22.182140022, 96.390, 2441.0, 49.4065
22.208400587, 96.390, 2598.0, 50.9706
22.234661153, 96.390, 2555.0, 50.5470
22.260921718, 96.390, 2649.0, 51.4684
22.287182283, 96.390, 2517.0, 50.1697
22.313442849, 96.390, 2600.0, 50.9902
22.339703414, 96.390, 2504.0, 50.0400
22.365963979, 96.390, 2515.0, 50.1498
22.392224545, 96.390, 2484.0, 49.8397
22.418485110, 96.390, 2516.0, 50.1597
22.444745675, 96.390, 2496.0, 49.9600
22.471006241, 96.390, 2466.0, 49.6588
22.497266806, 96.390, 2515.0, 50.1498
22.523527372, 96.390, 2437.0, 49.3660
22.549787937, 96.390, 2474.0, 49.7393
22.576048502, 96.390, 2580.0, 50.7937
22.602309068, 96.390, 2461.0, 49.6085
22.628569633, 96.390, 2515.0, 50.1498
22.654830198, 96.390, 2529.0, 50.2892
22.681090764, 96.390, 2458.0, 49.5782
22.707351329, 96.390, 2518.0, 50.1797
22.733611894, 96.390, 2454.0, 49.5379
22.759872460, 96.390, 2452.0, 49.5177
22.786133025, 96.390, 2493.0, 49.9300
22.812393590, 96.390, 2424.0, 49.2341
22.838654156, 96.390, 2486.0, 49.8598
22.864914721, 96.390, 2646.0, 51.4393
22.891175287, 96.390, 2538.0, 50.3786
22.917435852, 96.390, 2457.0, 49.5681
22.943696417, 96.390, 2447.0, 49.4672
22.969956983, 96.390, 2436.0, 49.3559
22.996217548, 96.390, 2422.0, 49.2138
23.022478113, 96.390, 2488.0, 49.8799
23.048738679, 96.390, 2449.0, 49.4874
23.074999244, 96.390, 2472.0, 49.7192
23.101259809, 96.390, 2465.0, 49.6488
23.127520375, 96.390, 2556.0, 50.5569
23.153780940, 96.390, 2459.0, 49.5883
23.180041505, 96.390, 2489.0, 49.8899
23.206302071, 96.390, 2362.0, 48.6004
23.232562636, 96.390, 2435.0, 49.3457
23.258823201, 96.390, 2449.0, 49.4874
23.285083767, 96.390, 2504.0, 50.0400
23.311344332, 96.390, 2441.0, 49.4065
23.337604898, 96.390, 2376.0, 48.7442
23.363865463, 96.390, 2389.0, 48.8774
23.390126028, 96.390, 2389.0, 48.8774
23.416386594, 96.390, 2477.0, 49.7695
23.442647159, 96.390, 2355.0, 48.5283
23.468907724, 96.390, 2491.0, 49.9099
23.495168290, 96.390, 2451.0, 49.5076
23.521428855, 96.390, 2428.0, 49.2747
23.547689420, 96.390, 2467.0, 49.6689
23.573949986, 96.390, 2481.0, 49.8096
23.600210551, 96.390, 2501.0, 50.0100
23.626471116, 96.390, 2460.0, 49.5984
23.652731682, 96.390, 2541.0, 50.4083
23.678992247, 96.390, 2462.0, 49.6185
23.705252813, 96.390, 2391.0, 48.8979
23.731513378, 96.390, 2409.0, 49.0816
23.757773943, 96.390, 2474.0, 49.7393
23.784034509, 96.390, 2474.0, 49.7393
23.810295074, 96.390, 2523.0, 50.2295
23.836555639, 96.390, 2529.0, 50.2892
23.862816205, 96.390, 2524.0, 50.2394
23.889076770, 96.390, 2564.0, 50.6360
23.915337335, 96.390, 2477.0, 49.7695
23.941597901, 96.390, 2421.0, 49.2037
23.967858466, 96.390, 2533.0, 50.3289
23.994119031, 96.390, 2517.0, 50.1697
24.020379597, 96.390, 2472.0, 49.7192
24.046640162, 96.390, 2353.0, 48.5077
24.072900727, 96.390, 2415.0, 49.1426
24.099161293, 96.390, 2379.0, 48.7750
24.125421858, 96.390, 2387.0, 48.8569
24.151682424, 96.390, 2535.0, 50.3488
24.177942989, 96.390, 2485.0, 49.8498
24.204203554, 96.390, 2401.0, 49.0000
24.230464120, 96.390, 2400.0, 48.9898
24.256724685, 96.390, 2430.0, 49.2950
24.282985250, 96.390, 2399.0, 48.9796
24.309245816, 96.390, 2379.0, 48.7750
24.335506381, 96.390, 2357.0, 48.5489
24.361766946, 96.390, 2393.0, 48.9183
24.388027512, 96.390, 2440.0, 49.3964
24.414288077, 96.390, 2365.0, 48.6313
24.440548642, 96.390, 2358.0, 48.5592
24.466809208, 96.390, 2421.0, 49.2037
24.493069773, 96.390, 2361.0, 48.5901
24.519330338, 96.390, 2313.0, 48.0937
24.545590904, 96.390, 2456.0, 49.5580
24.571851469, 96.390, 2369.0, 48.6724
24.598112035, 96.390, 2455.0, 49.5480
24.624372600, 96.390, 2308.0, 48.0416
24.650633165, 96.390, 2342.0, 48.3942
24.676893731, 96.390, 2324.0, 48.2079
24.703154296, 96.390, 2337.0, 48.3425
24.729414861, 96.390, 2372.0, 48.7032
24.755675427, 96.390, 2317.0, 48.1352
24.781935992, 96.390, 2363.0, 48.6107
24.808196557, 96.390, 2320.0, 48.1664
24.834457123, 96.390, 2269.0, 47.6340
24.860717688, 96.390, 2355.0, 48.5283
24.886978253, 96.390, 2292.0, 47.8748
24.913238819, 96.390, 2382.0, 48.8057
24.939499384, 96.390, 2291.0, 47.8644
24.965759950, 96.390, 2413.0, 49.1223
24.992020515, 96.390, 2253.0, 47.4658
25.018281080, 96.390, 2304.0, 48.0000
25.044541646, 96.390, 2363.0, 48.6107
25.070802211, 96.390, 2328.0, 48.2494
25.097062776, 96.390, 2213.0, 47.0425
25.123323342, 96.390, 2348.0, 48.4562
25.149583907, 96.390, 2336.0, 48.3322
25.175844472, 96.390, 2369.0, 48.6724
25.202105038, 96.390, 2232.0, 47.2440
25.228365603, 96.390, 2362.0, 48.6004
25.254626168, 96.390, 2342.0, 48.3942
25.280886734, 96.390, 2275.0, 47.6970
25.307147299, 96.390, 2422.0, 49.2138
25.333407864, 96.390, 2329.0, 48.2597
25.359668430, 96.390, 2297.0, 47.9270
25.385928995, 96.390, 2223.0, 47.1487
25.412189561, 96.390, 2320.0, 48.1664
25.438450126, 96.390, 2373.0, 48.7134
25.464710691, 96.390, 2422.0, 49.2138
25.490971257, 96.390, 2297.0, 47.9270
25.517231822, 96.390, 2377.0, 48.7545
25.543492387, 96.390, 2371.0, 48.6929
25.569752953, 96.390, 2314.0, 48.1041
25.596013518, 96.390, 2333.0, 48.3011
25.622274083, 96.390, 2305.0, 48.0104
25.648534649, 96.390, 2306.0, 48.0208
25.674795214, 96.390, 2298.0, 47.9375
25.701055779, 96.390, 2328.0, 48.2494
25.727316345, 96.390, 2303.0, 47.9896
25.753576910, 96.390, 2289.0, 47.8435
25.779837476, 96.390, 2281.0, 47.7598
25.806098041, 96.390, 2428.0, 49.2747
25.832358606, 96.390, 2395.0, 48.9387
25.858619172, 96.390, 2306.0, 48.0208
25.884879737, 96.390, 2301.0, 47.9687
25.911140302, 96.390, 2327.0, 48.2390
25.937400868, 96.390, 2299.0, 47.9479
25.963661433, 96.390, 2292.0, 47.8748
25.989921998, 96.390, 2250.0, 47.4342
26.016182564, 96.390, 2298.0, 47.9375
26.042443129, 96.390, 2271.0, 47.6550
26.068703694, 96.390, 2274.0, 47.6865
26.094964260, 96.390, 2273.0, 47.6760
26.121224825, 96.390, 2360.0, 48.5798
26.147485390, 96.390, 2247.0, 47.4025
26.173745956, 96.390, 2362.0, 48.6004
26.200006521, 96.390, 2365.0, 48.6313
26.226267087, 96.390, 2347.0, 48.4458
26.252527652, 96.390, 2339.0, 48.3632
26.278788217, 96.390, 2378.0, 48.7647
26.305048783, 96.390, 2321.0, 48.1768
26.331309348, 96.390, 2378.0, 48.7647
26.357569913, 96.390, 2304.0, 48.0000
26.383830479, 96.390, 2307.0, 48.0312
26.410091044, 96.390, 2299.0, 47.9479
26.436351609, 96.390, 2366.0, 48.6415
26.462612175, 96.390, 2341.0, 48.3839
26.488872740, 96.390, 2319.0, 48.1560
26.515133305, 96.390, 2426.0, 49.2544
26.541393871, 96.390, 2246.0, 47.3920
26.567654436, 96.390, 2385.0, 48.8365
26.593915002, 96.390, 2395.0, 48.9387
26.620175567, 96.390, 2282.0, 47.7703
26.646436132, 96.390, 2289.0, 47.8435
26.672696698, 96.390, 2446.0, 49.4571
26.698957263, 96.390, 2398.0, 48.9694
26.725217828, 96.390, 2338.0, 48.3529
26.751478394, 96.390, 2347.0, 48.4458
26.777738959, 96.390, 2350.0, 48.4768
26.803999524, 96.390, 2329.0, 48.2597
26.830260090, 96.390, 2389.0, 48.8774
26.856520655, 96.390, 2432.0, 49.3153
26.882781220, 96.390, 2377.0, 48.7545
26.909041786, 96.390, 2313.0, 48.0937
26.935302351, 96.390, 2344.0, 48.4149
26.961562916, 96.390, 2442.0, 49.4166
26.987823482, 96.390, 2401.0, 49.0000
27.014084047, 96.390, 2399.0, 48.9796
27.040344613, 96.390, 2405.0, 49.0408
27.066605178, 96.390, 2508.0, 50.0799
27.092865743, 96.390, 2440.0, 49.3964
27.119126309, 96.390, 2511.0, 50.1099
27.145386874, 96.390, 2422.0, 49.2138
27.171647439, 96.390, 2377.0, 48.7545
27.197908005, 96.390, 2526.0, 50.2593
27.224168570, 96.390, 2467.0, 49.6689
27.250429135, 96.390, 2417.0, 49.1630
27.276689701, 96.390, 2427.0, 49.2646
27.302950266, 96.390, 2404.0, 49.0306
27.329210831, 96.390, 2401.0, 49.0000
27.355471397, 96.390, 2433.0, 49.3254
27.381731962, 96.390, 2432.0, 49.3153
27.407992528, 96.390, 2496.0, 49.9600
27.434253093, 96.390, 2491.0, 49.9099
27.460513658, 96.390, 2369.0, 48.6724
27.486774224, 96.390, 2471.0, 49.7092
27.513034789, 96.390, 2499.0, 49.9900
27.539295354, 96.390, 2398.0, 48.9694
27.565555920, 96.390, 2505.0, 50.0500
27.591816485, 96.390, 2388.0, 48.8672
27.618077050, 96.390, 2537.0, 50.3686
27.644337616, 96.390, 2427.0, 49.2646
27.670598181, 96.390, 2476.0, 49.7594
27.696858746, 96.390, 2539.0, 50.3885
27.723119312, 96.390, 2583.0, 50.8232
27.749379877, 96.390, 2598.0, 50.9706
27.775640442, 96.390, 2533.0, 50.3289
27.801901008, 96.390, 2555.0, 50.5470
27.828161573, 96.390, 2603.0, 51.0196
27.854422139, 96.390, 2553.0, 50.5272
27.880682704, 96.390, 2476.0, 49.7594
27.906943269, 96.390, 2495.0, 49.9500
27.933203835, 96.390, 2596.0, 50.9510
27.959464400, 96.390, 2535.0, 50.3488
27.985724965, 96.390, 2627.0, 51.2543
28.011985531, 96.390, 2557.0, 50.5668
28.038246096, 96.390, 2486.0, 49.8598
28.064506661, 96.390, 2555.0, 50.5470
28.090767227, 96.390, 2530.0, 50.2991
28.117027792, 96.390, 2576.0, 50.7543
28.143288357, 96.390, 2477.0, 49.7695
28.169548923, 96.390, 2600.0, 50.9902
28.195809488, 96.390, 2663.0, 51.6043
28.222070054, 96.390, 2560.0, 50.5964
28.248330619, 96.390, 2572.0, 50.7149
28.274591184, 96.390, 2536.0, 50.3587
28.300851750, 96.390, 2527.0, 50.2693
28.327112315, 96.390, 2629.0, 51.2738
28.353372880, 96.390, 2635.0, 51.3323
28.379633446, 96.390, 2642.0, 51.4004
28.405894011, 96.390, 2594.0, 50.9313
28.432154576, 96.390, 2589.0, 50.8822
28.458415142, 96.390, 2499.0, 49.9900
28.484675707, 96.390, 2561.0, 50.6063
28.510936272, 96.390, 2532.0, 50.3190
28.537196838, 96.390, 2695.0, 51.9134
28.563457403, 96.390, 2590.0, 50.8920
28.589717968, 96.390, 2600.0, 50.9902
28.615978534, 96.390, 2612.0, 51.1077
28.642239099, 96.390, 2680.0, 51.7687
28.668499665, 96.390, 2644.0, 51.4198
28.694760230, 96.390, 2592.0, 50.9117
28.721020795, 96.390, 2652.0, 51.4976
28.747281361, 96.390, 2598.0, 50.9706
28.773541926, 96.390, 2612.0, 51.1077
28.799802491, 96.390, 2637.0, 51.3517
28.826063057, 96.390, 2613.0, 51.1175
28.852323622, 96.390, 2669.0, 51.6624
28.878584187, 96.390, 2499.0, 49.9900
28.904844753, 96.390, 2600.0, 50.9902
28.931105318, 96.390, 2660.0, 51.5752
28.957365883, 96.390, 2609.0, 51.0784
28.983626449, 96.390, 2603.0, 51.0196
29.009887014, 96.390, 2676.0, 51.7301
29.036147579, 96.390, 2720.0, 52.1536
29.062408145, 96.390, 2647.0, 51.4490
29.088668710, 96.390, 2599.0, 50.9804
29.114929276, 96.390, 2541.0, 50.4083
29.141189841, 96.390, 2583.0, 50.8232
29.167450406, 96.390, 2691.0, 51.8748
29.193710972, 96.390, 2706.0, 52.0192
29.219971537, 96.390, 2600.0, 50.9902
29.246232102, 96.390, 2588.0, 50.8724
29.272492668, 96.390, 2678.0, 51.7494
29.298753233, 96.390, 2631.0, 51.2933
29.325013798, 96.390, 2693.0, 51.8941
29.351274364, 96.390, 2723.0, 52.1824
29.377534929, 96.390, 2689.0, 51.8556
29.403795494, 96.390, 2773.0, 52.6593
29.430056060, 96.390, 2788.0, 52.8015
29.456316625, 96.390, 2773.0, 52.6593
29.482577191, 96.390, 2680.0, 51.7687
29.508837756, 96.390, 2792.0, 52.8394
29.535098321, 96.390, 2721.0, 52.1632
29.561358887, 96.390, 2818.0, 53.0848
29.587619452, 96.390, 2769.0, 52.6213
29.613880017, 96.390, 2859.0, 53.4696
29.640140583, 96.390, 2720.0, 52.1536
29.666401148, 96.390, 2684.0, 51.8073
29.692661713, 96.390, 2838.0, 53.2729
29.718922279, 96.390, 2849.0, 53.3760
29.745182844, 96.390, 2905.0, 53.8981
29.771443409, 96.390, 2891.0, 53.7680
29.797703975, 96.390, 2893.0, 53.7866
29.823964540, 96.390, 2797.0, 52.8867
29.850225105, 96.390, 2845.0, 53.3385
29.876485671, 96.390, 2854.0, 53.4228
29.902746236, 96.390, 2860.0, 53.4790
29.929006802, 96.390, 2835.0, 53.2447
29.955267367, 96.390, 2837.0, 53.2635
29.981527932, 96.390, 2841.0, 53.3010
30.007788498, 96.390, 2797.0, 52.8867
30.034049063, 96.390, 2845.0, 53.3385
30.060309628, 96.390, 2844.0, 53.3292
30.086570194, 96.390, 2952.0, 54.3323
30.112830759, 96.390, 2877.0, 53.6377
30.139091324, 96.390, 3016.0, 54.9181
30.165351890, 96.390, 2945.0, 54.2679
30.191612455, 96.390, 2821.0, 53.1131
30.217873020, 96.390, 2958.0, 54.3875
30.244133586, 96.390, 2978.0, 54.5711
30.270394151, 96.390, 3012.0, 54.8817
30.296654717, 96.390, 3047.0, 55.1996
30.322915282, 96.390, 2893.0, 53.7866
30.349175847, 96.390, 3083.0, 55.5248
30.375436413, 96.390, 3013.0, 54.8908
30.401696978, 96.390, 2951.0, 54.3231
30.427957543, 96.390, 2979.0, 54.5802
30.454218109, 96.390, 2830.0, 53.1977
30.480478674, 96.390, 2940.0, 54.2218
30.506739239, 96.390, 2917.0, 54.0093
30.532999805, 96.390, 2853.0, 53.4135
30.559260370, 96.390, 2897.0, 53.8238
30.585520935, 96.390, 2820.0, 53.1037
30.611781501, 96.390, 2826.0, 53.1601
30.638042066, 96.390, 2755.0, 52.4881
30.664302631, 96.390, 2772.0, 52.6498
30.690563197, 96.390, 2717.0, 52.1249
30.716823762, 96.390, 2766.0, 52.5928
30.743084328, 96.390, 2666.0, 51.6333
30.769344893, 96.390, 2679.0, 51.7591
30.795605458, 96.390, 2637.0, 51.3517
30.821866024, 96.390, 2668.0, 51.6527
30.848126589, 96.390, 2639.0, 51.3712
30.874387154, 96.390, 2689.0, 51.8556
30.900647720, 96.390, 2629.0, 51.2738
30.926908285, 96.390, 2576.0, 50.7543
30.953168850, 96.390, 2590.0, 50.8920
30.979429416, 96.390, 2676.0, 51.7301
31.005689981, 96.390, 2647.0, 51.4490
31.031950546, 96.390, 2645.0, 51.4296
31.058211112, 96.390, 2482.0, 49.8197
31.084471677, 96.390, 2537.0, 50.3686
31.110732243, 96.390, 2598.0, 50.9706
31.136992808, 96.390, 2563.0, 50.6261
31.163253373, 96.390, 2588.0, 50.8724
31.189513939, 96.390, 2514.0, 50.1398
31.215774504, 96.390, 2580.0, 50.7937
31.242035069, 96.390, 2548.0, 50.4777
31.268295635, 96.390, 2536.0, 50.3587
31.294556200, 96.390, 2546.0, 50.4579
31.320816765, 96.390, 2563.0, 50.6261
31.347077331, 96.390, 2484.0, 49.8397
31.373337896, 96.390, 2464.0, 49.6387
31.399598461, 96.390, 2497.0, 49.9700
31.425859027, 96.390, 2534.0, 50.3389
31.452119592, 96.390, 2421.0, 49.2037
31.478380157, 96.390, 2488.0, 49.8799
31.504640723, 96.390, 2378.0, 48.7647
31.530901288, 96.390, 2437.0, 49.3660
31.557161854, 96.390, 2453.0, 49.5278
31.583422419, 96.390, 2327.0, 48.2390
31.609682984, 96.390, 2348.0, 48.4562
31.635943550, 96.390, 2417.0, 49.1630
31.662204115, 96.390, 2448.0, 49.4773
31.688464680, 96.390, 2396.0, 48.9490
31.714725246, 96.390, 2381.0, 48.7955
31.740985811, 96.390, 2399.0, 48.9796
31.767246376, 96.390, 2395.0, 48.9387
31.793506942, 96.390, 2313.0, 48.0937
31.819767507, 96.390, 2385.0, 48.8365
31.846028072, 96.390, 2282.0, 47.7703
31.872288638, 96.390, 2298.0, 47.9375
31.898549203, 96.390, 2488.0, 49.8799
31.924809769, 96.390, 2390.0, 48.8876
31.951070334, 96.390, 2275.0, 47.6970
31.977330899, 96.390, 2337.0, 48.3425
32.003591465, 96.390, 2277.0, 47.7179
32.029852030, 96.390, 2284.0, 47.7912
32.056112595, 96.390, 2355.0, 48.5283
32.082373161, 96.390, 2243.0, 47.3603
32.108633726, 96.390, 2383.0, 48.8160
32.134894291, 96.390, 2272.0, 47.6655
32.161154857, 96.390, 2302.0, 47.9792
32.187415422, 96.390, 2251.0, 47.4447
32.213675987, 96.390, 2359.0, 48.5695
32.239936553, 96.390, 2282.0, 47.7703
32.266197118, 96.390, 2283.0, 47.7807
32.292457683, 96.390, 2325.0, 48.2183
32.318718249, 96.390, 2205.0, 46.9574
32.344978814, 96.390, 2323.0, 48.1975
32.371239380, 96.390, 2273.0, 47.6760
32.397499945, 96.390, 2241.0, 47.3392
32.423760510, 96.390, 2309.0, 48.0521
32.450021076, 96.390, 2250.0, 47.4342
32.476281641, 96.390, 2317.0, 48.1352
32.502542206, 96.390, 2210.0, 47.0106
32.528802772, 96.390, 2206.0, 46.9681
32.555063337, 96.390, 2238.0, 47.3075
32.581323902, 96.390, 2272.0, 47.6655
32.607584468, 96.390, 2213.0, 47.0425
32.633845033, 96.390, 2147.0, 46.3357
32.660105598, 96.390, 2232.0, 47.2440
32.686366164, 96.390, 2169.0, 46.5725
32.712626729, 96.390, 2143.0, 46.2925
32.738887295, 96.390, 2152.0, 46.3897
32.765147860, 96.390, 2100.0, 45.8258
32.791408425, 96.390, 2109.0, 45.9239
32.817668991, 96.390, 2180.0, 46.6905
32.843929556, 96.390, 2146.0, 46.3249
32.870190121, 96.390, 2168.0, 46.5618
32.896450687, 96.390, 2144.0, 46.3033
32.922711252, 96.390, 2155.0, 46.4220
32.948971817, 96.390, 2083.0, 45.6399
32.975232383, 96.390, 2208.0, 46.9894
33.001492948, 96.390, 2121.0, 46.0543
33.027753513, 96.390, 2178.0, 46.6690
33.054014079, 96.390, 2158.0, 46.4543
33.080274644, 96.390, 2080.0, 45.6070
33.106535209, 96.390, 2099.0, 45.8148
33.132795775, 96.390, 2087.0, 45.6837
33.159056340, 96.390, 2160.0, 46.4758
33.185316906, 96.390, 2109.0, 45.9239
33.211577471, 96.390, 2110.0, 45.9347
33.237838036, 96.390, 2137.0, 46.2277
33.264098602, 96.390, 2127.0, 46.1194
33.290359167, 96.390, 2137.0, 46.2277
33.316619732, 96.390, 2066.0, 45.4533
33.342880298, 96.390, 2134.0, 46.1952
33.369140863, 96.390, 2126.0, 46.1086
33.395401428, 96.390, 2088.0, 45.6946
33.421661994, 96.390, 2057.0, 45.3542
33.447922559, 96.390, 2070.0, 45.4973
33.474183124, 96.390, 2075.0, 45.5522
33.500443690, 96.390, 2110.0, 45.9347
33.526704255, 96.390, 2170.0, 46.5833
33.552964820, 96.390, 2208.0, 46.9894
33.579225386, 96.390, 2108.0, 45.9130
33.605485951, 96.390, 2075.0, 45.5522
33.631746517, 96.390, 2131.0, 46.1628
33.658007082, 96.390, 2132.0, 46.1736
33.684267647, 96.390, 2172.0, 46.6047
33.710528213, 96.390, 2088.0, 45.6946
33.736788778, 96.390, 2105.0, 45.8803
33.763049343, 96.390, 2036.0, 45.1221
33.789309909, 96.390, 2022.0, 44.9667
33.815570474, 96.390, 2096.0, 45.7821
33.841831039, 96.390, 2120.0, 46.0435
33.868091605, 96.390, 2098.0, 45.8039
33.894352170, 96.390, 2156.0, 46.4327
33.920612735, 96.390, 2136.0, 46.2169
33.946873301, 96.390, 2064.0, 45.4313
33.973133866, 96.390, 2039.0, 45.1553
33.999394432, 96.390, 2014.0, 44.8776
34.025654997, 96.390, 2069.0, 45.4863
34.051915562, 96.390, 2106.0, 45.8912
34.078176128, 96.390, 2145.0, 46.3141
34.104436693, 96.390, 2031.0, 45.0666
34.130697258, 96.390, 1980.0, 44.4972
34.156957824, 96.390, 1971.0, 44.3959
34.183218389, 96.390, 1980.0, 44.4972
34.209478954, 96.390, 1976.0, 44.4522
34.235739520, 96.390, 1966.0, 44.3396
34.262000085, 96.390, 2008.0, 44.8107
34.288260650, 96.390, 1948.0, 44.1362
34.314521216, 96.390, 2048.0, 45.2548
34.340781781, 96.390, 2030.0, 45.0555
34.367042346, 96.390, 1903.0, 43.6234
34.393302912, 96.390, 1934.0, 43.9773
34.419563477, 96.390, 1909.0, 43.6921
34.445824043, 96.390, 1955.0, 44.2154
34.472084608, 96.390, 2007.0, 44.7996
34.498345173, 96.390, 1953.0, 44.1928
34.524605739, 96.390, 1875.0, 43.3013
34.550866304, 96.390, 1925.0, 43.8748
34.577126869, 96.390, 1842.0, 42.9185
34.603387435, 96.390, 1903.0, 43.6234
34.629648000, 96.390, 1919.0, 43.8064
34.655908565, 96.390, 1929.0, 43.9204
34.682169131, 96.390, 1895.0, 43.5316
34.708429696, 96.390, 1888.0, 43.4511
34.734690261, 96.390, 1837.0, 42.8602
34.760950827, 96.390, 1814.0, 42.5911
34.787211392, 96.390, 1901.0, 43.6005
34.813471958, 96.390, 1801.0, 42.4382
34.839732523, 96.390, 1837.0, 42.8602
34.865993088, 96.390, 1873.0, 43.2782
34.892253654, 96.390, 1884.0, 43.4051
34.918514219, 96.390, 1804.0, 42.4735
34.944774784, 96.390, 1857.0, 43.0929
34.971035350, 96.390, 1835.0, 42.8369
34.997295915, 96.390, 1946.0, 44.1135
35.023556480, 96.390, 1875.0, 43.3013
35.049817046, 96.390, 1900.0, 43.5890
35.076077611, 96.390, 1811.0, 42.5558
35.102338176, 96.390, 1843.0, 42.9302
35.128598742, 96.390, 1747.0, 41.7971
35.154859307, 96.390, 1858.0, 43.1045
35.181119872, 96.390, 1860.0, 43.1277
35.207380438, 96.390, 1768.0, 42.0476
35.233641003, 96.390, 1812.0, 42.5676
35.259901569, 96.390, 1759.0, 41.9404
35.286162134, 96.390, 1740.0, 41.7133
35.312422699, 96.390, 1743.0, 41.7493
35.338683265, 96.390, 1760.0, 41.9524
35.364943830, 96.390, 1886.0, 43.4281
35.391204395, 96.390, 1756.0, 41.9047
35.417464961, 96.390, 1766.0, 42.0238
35.443725526, 96.390, 1766.0, 42.0238
35.469986091, 96.390, 1806.0, 42.4971
35.496246657, 96.390, 1801.0, 42.4382
35.522507222, 96.390, 1716.0, 41.4246
35.548767787, 96.390, 1758.0, 41.9285
35.575028353, 96.390, 1774.0, 42.1189
35.601288918, 96.390, 1807.0, 42.5088
35.627549484, 96.390, 1716.0, 41.4246
35.653810049, 96.390, 1800.0, 42.4264
35.680070614, 96.390, 1802.0, 42.4500
35.706331180, 96.390, 1774.0, 42.1189
35.732591745, 96.390, 1758.0, 41.9285
35.758852310, 96.390, 1725.0, 41.5331
35.785112876, 96.390, 1799.0, 42.4146
35.811373441, 96.390, 1789.0, 42.2966
35.837634006, 96.390, 1697.0, 41.1947
35.863894572, 96.390, 1692.0, 41.1339
35.890155137, 96.390, 1715.0, 41.4126
35.916415702, 96.390, 1686.0, 41.0609
35.942676268, 96.390, 1636.0, 40.4475
35.968936833, 96.390, 1769.0, 42.0595
35.995197398, 96.390, 1724.0, 41.5211
36.021457964, 96.390, 1708.0, 41.3280
36.047718529, 96.390, 1697.0, 41.1947
36.073979095, 96.390, 1639.0, 40.4846
36.100239660, 96.390, 1605.0, 40.0625
36.126500225, 96.390, 1623.0, 40.2865
36.152760791, 96.390, 1589.0, 39.8623
36.179021356, 96.390, 1620.0, 40.2492
36.205281921, 96.390, 1656.0, 40.6940
36.231542487, 96.390, 1602.0, 40.0250
36.257803052, 96.390, 1645.0, 40.5586
36.284063617, 96.390, 1611.0, 40.1373
36.310324183, 96.390, 1647.0, 40.5832
36.336584748, 96.390, 1589.0, 39.8623
36.362845313, 96.390, 1703.0, 41.2674
36.389105879, 96.390, 1636.0, 40.4475
36.415366444, 96.390, 1575.0, 39.6863
36.441627010, 96.390, 1616.0, 40.1995
36.467887575, 96.390, 1571.0, 39.6358
36.494148140, 96.390, 1557.0, 39.4588
36.520408706, 96.390, 1622.0, 40.2741
36.546669271, 96.390, 1646.0, 40.5709
36.572929836, 96.390, 1565.0, 39.5601
36.599190402, 96.390, 1625.0, 40.3113
36.625450967, 96.390, 1631.0, 40.3856
36.651711532, 96.390, 1568.0, 39.5980
36.677972098, 96.390, 1676.0, 40.9390
36.704232663, 96.390, 1588.0, 39.8497
36.730493228, 96.390, 1624.0, 40.2989
36.756753794, 96.390, 1638.0, 40.4722
36.783014359, 96.390, 1638.0, 40.4722
36.809274924, 96.390, 1658.0, 40.7185
36.835535490, 96.390, 1622.0, 40.2741
36.861796055, 96.390, 1636.0, 40.4475
36.888056621, 96.390, 1684.0, 41.0366
36.914317186, 96.390, 1608.0, 40.0999
36.940577751, 96.390, 1642.0, 40.5216
36.966838317, 96.390, 1652.0, 40.6448
36.993098882, 96.390, 1556.0, 39.4462
37.019359447, 96.390, 1571.0, 39.6358
37.045620013, 96.390, 1570.0, 39.6232
37.071880578, 96.390, 1605.0, 40.0625
37.098141143, 96.390, 1597.0, 39.9625
37.124401709, 96.390, 1499.0, 38.7169
37.150662274, 96.390, 1553.0, 39.4081
37.176922839, 96.390, 1562.0, 39.5221
37.203183405, 96.390, 1456.0, 38.1576
37.229443970, 96.390, 1477.0, 38.4318
37.255704535, 96.390, 1493.0, 38.6394
37.281965101, 96.390, 1547.0, 39.3319
37.308225666, 96.390, 1508.0, 38.8330
37.334486232, 96.390, 1503.0, 38.7685
37.360746797, 96.390, 1519.0, 38.9744
37.387007362, 96.390, 1459.0, 38.1969
37.413267928, 96.390, 1481.0, 38.4838
37.439528493, 96.390, 1493.0, 38.6394
37.465789058, 96.390, 1451.0, 38.0920
37.492049624, 96.390, 1447.0, 38.0395
37.518310189, 96.390, 1481.0, 38.4838
37.544570754, 96.390, 1444.0, 38.0000
37.570831320, 96.390, 1499.0, 38.7169
37.597091885, 96.390, 1458.0, 38.1838
37.623352450, 96.390, 1461.0, 38.2230
37.649613016, 96.390, 1416.0, 37.6298
37.675873581, 96.390, 1449.0, 38.0657
37.702134147, 96.390, 1348.0, 36.7151
37.728394712, 96.390, 1426.0, 37.7624
37.754655277, 96.390, 1410.0, 37.5500
37.780915843, 96.390, 1382.0, 37.1753
37.807176408, 96.390, 1438.0, 37.9210
37.833436973, 96.390, 1430.0, 37.8153
37.859697539, 96.390, 1391.0, 37.2961
37.885958104, 96.390, 1430.0, 37.8153
37.912218669, 96.390, 1401.0, 37.4299
37.938479235, 96.390, 1438.0, 37.9210
37.964739800, 96.390, 1474.0, 38.3927
37.991000365, 96.390, 1440.0, 37.9473
38.017260931, 96.390, 1455.0, 38.1445
38.043521496, 96.390, 1359.0, 36.8646
38.069782061, 96.390, 1518.0, 38.9615
38.096042627, 96.390, 1418.0, 37.6563
38.122303192, 96.390, 1376.0, 37.0945
38.148563758, 96.390, 1369.0, 37.0000
38.174824323, 96.390, 1396.0, 37.3631
38.201084888, 96.390, 1401.0, 37.4299
38.227345454, 96.390, 1356.0, 36.8239
38.253606019, 96.390, 1419.0, 37.6696
38.279866584, 96.390, 1408.0, 37.5233
38.306127150, 96.390, 1329.0, 36.4555
38.332387715, 96.390, 1378.0, 37.1214
38.358648280, 96.390, 1336.0, 36.5513
38.384908846, 96.390, 1361.0, 36.8917
38.411169411, 96.390, 1304.0, 36.1109
38.437429976, 96.390, 1388.0, 37.2559
38.463690542, 96.390, 1378.0, 37.1214
38.489951107, 96.390, 1425.0, 37.7492
38.516211673, 96.390, 1353.0, 36.7831
38.542472238, 96.390, 1412.0, 37.5766
38.568732803, 96.390, 1419.0, 37.6696
38.594993369, 96.390, 1380.0, 37.1484
38.621253934, 96.390, 1412.0, 37.5766
38.647514499, 96.390, 1429.0, 37.8021
38.673775065, 96.390, 1421.0, 37.6962
38.700035630, 96.390, 1575.0, 39.6863
38.726296195, 96.390, 1537.0, 39.2046
38.752556761, 96.390, 1507.0, 38.8201
38.778817326, 96.390, 1525.0, 39.0512
38.805077891, 96.390, 1535.0, 39.1791
38.831338457, 96.390, 1552.0, 39.3954
38.857599022, 96.390, 1567.0, 39.5854
38.883859587, 96.390, 1587.0, 39.8372
38.910120153, 96.390, 1610.0, 40.1248
38.936380718, 96.390, 1641.0, 40.5093
38.962641284, 96.390, 1613.0, 40.1622
38.988901849, 96.390, 1575.0, 39.6863
39.015162414, 96.390, 1608.0, 40.0999
39.041422980, 96.390, 1535.0, 39.1791
39.067683545, 96.390, 1578.0, 39.7240
39.093944110, 96.390, 1588.0, 39.8497
39.120204676, 96.390, 1473.0, 38.3797
39.146465241, 96.390, 1435.0, 37.8814
39.172725806, 96.390, 1474.0, 38.3927
39.198986372, 96.390, 1510.0, 38.8587
39.225246937, 96.390, 1482.0, 38.4968
39.251507502, 96.390, 1443.0, 37.9868
39.277768068, 96.390, 1483.0, 38.5097
39.304028633, 96.390, 1400.0, 37.4166
39.330289199, 96.390, 1461.0, 38.2230
39.356549764, 96.390, 1434.0, 37.8682
39.382810329, 96.390, 1374.0, 37.0675
39.409070895, 96.390, 1366.0, 36.9594
39.435331460, 96.390, 1375.0, 37.0810
39.461592025, 96.390, 1313.0, 36.2353
39.487852591, 96.390, 1358.0, 36.8511
39.514113156, 96.390, 1417.0, 37.6431
39.540373721, 96.390, 1316.0, 36.2767
39.566634287, 96.390, 1327.0, 36.4280
39.592894852, 96.390, 1346.0, 36.6879
39.619155417, 96.390, 1414.0, 37.6032
39.645415983, 96.390, 1335.0, 36.5377
39.671676548, 96.390, 1406.0, 37.4967
39.697937113, 96.390, 1351.0, 36.7560
39.724197679, 96.390, 1378.0, 37.1214
39.750458244, 96.390, 1331.0, 36.4829
39.776718810, 96.390, 1402.0, 37.4433
39.802979375, 96.390, 1401.0, 37.4299
39.829239940, 96.390, 1367.0, 36.9730
39.855500506, 96.390, 1326.0, 36.4143
39.881761071, 96.390, 1317.0, 36.2905
39.908021636, 96.390, 1338.0, 36.5787
39.934282202, 96.390, 1328.0, 36.4417
39.960542767, 96.390, 1363.0, 36.9188
39.986803332, 96.390, 1319.0, 36.3180
40.013063898, 96.390, 1396.0, 37.3631
40.039324463, 96.390, 1296.0, 36.0000
40.065585028, 96.390, 1281.0, 35.7911
40.091845594, 96.390, 1283.0, 35.8190
40.118106159, 96.390, 1327.0, 36.4280
40.144366725, 96.390, 1361.0, 36.8917
40.170627290, 96.390, 1343.0, 36.6470
40.196887855, 96.390, 1307.0, 36.1525
40.223148421, 96.390, 1310.0, 36.1939
40.249408986, 96.390, 1244.0, 35.2704
40.275669551, 96.390, 1272.0, 35.6651
40.301930117, 96.390, 1267.0, 35.5949
40.328190682, 96.390, 1309.0, 36.1801
40.354451247, 96.390, 1247.0, 35.3129
40.380711813, 96.390, 1263.0, 35.5387
40.406972378, 96.390, 1338.0, 36.5787
40.433232943, 96.390, 1293.0, 35.9583
40.459493509, 96.390, 1322.0, 36.3593
40.485754074, 96.390, 1276.0, 35.7211
40.512014639, 96.390, 1288.0, 35.8887
40.538275205, 96.390, 1346.0, 36.6879
40.564535770, 96.390, 1275.0, 35.7071
40.590796336, 96.390, 1344.0, 36.6606
40.617056901, 96.390, 1261.0, 35.5106
40.643317466, 96.390, 1277.0, 35.7351
40.669578032, 96.390, 1276.0, 35.7211
40.695838597, 96.390, 1277.0, 35.7351
40.722099162, 96.390, 1260.0, 35.4965
40.748359728, 96.390, 1208.0, 34.7563
40.774620293, 96.390, 1282.0, 35.8050
40.800880858, 96.390, 1298.0, 36.0278
40.827141424, 96.390, 1319.0, 36.3180
40.853401989, 96.390, 1263.0, 35.5387
40.879662554, 96.390, 1262.0, 35.5246
40.905923120, 96.390, 1347.0, 36.7015
40.932183685, 96.390, 1305.0, 36.1248
40.958444251, 96.390, 1243.0, 35.2562
40.984704816, 96.390, 1269.0, 35.6230
41.010965381, 96.390, 1327.0, 36.4280
41.037225947, 96.390, 1211.0, 34.7994
41.063486512, 96.390, 1297.0, 36.0139
41.089747077, 96.390, 1233.0, 35.1141
41.116007643, 96.390, 1260.0, 35.4965
41.142268208, 96.390, 1247.0, 35.3129
41.168528773, 96.390, 1213.0, 34.8281
41.194789339, 96.390, 1269.0, 35.6230
41.221049904, 96.390, 1242.0, 35.2420
41.247310469, 96.390, 1212.0, 34.8138
41.273571035, 96.390, 1224.0, 34.9857
41.299831600, 96.390, 1243.0, 35.2562
41.326092165, 96.390, 1238.0, 35.1852
41.352352731, 96.390, 1216.0, 34.8712
41.378613296, 96.390, 1209.0, 34.7707
41.404873862, 96.390, 1208.0, 34.7563
41.431134427, 96.390, 1224.0, 34.9857
41.457394992, 96.390, 1320.0, 36.3318
41.483655558, 96.390, 1187.0, 34.4529
41.509916123, 96.390, 1240.0, 35.2136
41.536176688, 96.390, 1211.0, 34.7994
41.562437254, 96.390, 1204.0, 34.6987
41.588697819, 96.390, 1235.0, 35.1426
41.614958384, 96.390, 1234.0, 35.1283
41.641218950, 96.390, 1193.0, 34.5398
41.667479515, 96.390, 1190.0, 34.4964
41.693740080, 96.390, 1239.0, 35.1994
41.720000646, 96.390, 1247.0, 35.3129
41.746261211, 96.390, 1169.0, 34.1906
41.772521776, 96.390, 1222.0, 34.9571
41.798782342, 96.390, 1193.0, 34.5398
41.825042907, 96.390, 1290.0, 35.9166
41.851303473, 96.390, 1199.0, 34.6266
41.877564038, 96.390, 1209.0, 34.7707
41.903824603, 96.390, 1237.0, 35.1710
41.930085169, 96.390, 1123.0, 33.5112
41.956345734, 96.390, 1181.0, 34.3657
41.982606299, 96.390, 1105.0, 33.2415
42.008866865, 96.390, 1160.0, 34.0588
42.035127430, 96.390, 1242.0, 35.2420
42.061387995, 96.390, 1180.0, 34.3511
42.087648561, 96.390, 1165.0, 34.1321
42.113909126, 96.390, 1175.0, 34.2783
42.140169691, 96.390, 1266.0, 35.5809
42.166430257, 96.390, 1180.0, 34.3511
42.192690822, 96.390, 1240.0, 35.2136
42.218951388, 96.390, 1196.0, 34.5832
42.245211953, 96.390, 1251.0, 35.3695
42.271472518, 96.390, 1201.0, 34.6554
42.297733084, 96.390, 1191.0, 34.5109
42.323993649, 96.390, 1264.0, 35.5528
42.350254214, 96.390, 1204.0, 34.6987
42.376514780, 96.390, 1211.0, 34.7994
42.402775345, 96.390, 1110.0, 33.3167
42.429035910, 96.390, 1157.0, 34.0147
42.455296476, 96.390, 1240.0, 35.2136
42.481557041, 96.390, 1206.0, 34.7275
42.507817606, 96.390, 1158.0, 34.0294
42.534078172, 96.390, 1195.0, 34.5688
42.560338737, 96.390, 1269.0, 35.6230
42.586599302, 96.390, 1228.0, 35.0428
42.612859868, 96.390, 1230.0, 35.0714
42.639120433, 96.390, 1218.0, 34.8999
42.665380999, 96.390, 1188.0, 34.4674
42.691641564, 96.390, 1202.0, 34.6699
42.717902129, 96.390, 1262.0, 35.5246
42.744162695, 96.390, 1180.0, 34.3511
42.770423260, 96.390, 1156.0, 34.0000
42.796683825, 96.390, 1138.0, 33.7343
42.822944391, 96.390, 1175.0, 34.2783
42.849204956, 96.390, 1142.0, 33.7935
42.875465521, 96.390, 1219.0, 34.9142
42.901726087, 96.390, 1155.0, 33.9853
42.927986652, 96.390, 1178.0, 34.3220
42.954247217, 96.390, 1123.0, 33.5112
42.980507783, 96.390, 1168.0, 34.1760
43.006768348, 96.390, 1193.0, 34.5398
43.033028914, 96.390, 1191.0, 34.5109
43.059289479, 96.390, 1182.0, 34.3802
43.085550044, 96.390, 1243.0, 35.2562
43.111810610, 96.390, 1173.0, 34.2491
43.138071175, 96.390, 1175.0, 34.2783
43.164331740, 96.390, 1164.0, 34.1174
43.190592306, 96.390, 1203.0, 34.6843
43.216852871, 96.390, 1175.0, 34.2783
43.243113436, 96.390, 1208.0, 34.7563
43.269374002, 96.390, 1174.0, 34.2637
43.295634567, 96.390, 1193.0, 34.5398
43.321895132, 96.390, 1158.0, 34.0294
43.348155698, 96.390, 1167.0, 34.1614
43.374416263, 96.390, 1173.0, 34.2491
43.400676828, 96.390, 1128.0, 33.5857
43.426937394, 96.390, 1240.0, 35.2136
43.453197959, 96.390, 1185.0, 34.4238
43.479458525, 96.390, 1172.0, 34.2345
43.505719090, 96.390, 1123.0, 33.5112
43.531979655, 96.390, 1144.0, 33.8231
43.558240221, 96.390, 1144.0, 33.8231
43.584500786, 96.390, 1185.0, 34.4238
43.610761351, 96.390, 1182.0, 34.3802
43.637021917, 96.390, 1234.0, 35.1283
43.663282482, 96.390, 1139.0, 33.7491
43.689543047, 96.390, 1121.0, 33.4813
43.715803613, 96.390, 1122.0, 33.4963
43.742064178, 96.390, 1174.0, 34.2637
43.768324743, 96.390, 1152.0, 33.9411
43.794585309, 96.390, 1167.0, 34.1614
43.820845874, 96.390, 1199.0, 34.6266
43.847106440, 96.390, 1170.0, 34.2053
43.873367005, 96.390, 1159.0, 34.0441
43.899627570, 96.390, 1139.0, 33.7491
43.925888136, 96.390, 1156.0, 34.0000
43.952148701, 96.390, 1194.0, 34.5543
43.978409266, 96.390, 1123.0, 33.5112
44.004669832, 96.390, 1192.0, 34.5254
44.030930397, 96.390, 1222.0, 34.9571
44.057190962, 96.390, 1202.0, 34.6699
44.083451528, 96.390, 1199.0, 34.6266
44.109712093, 96.390, 1254.0, 35.4119
44.135972658, 96.390, 1164.0, 34.1174
44.162233224, 96.390, 1160.0, 34.0588
44.188493789, 96.390, 1174.0, 34.2637
44.214754354, 96.390, 1179.0, 34.3366
44.241014920, 96.390, 1147.0, 33.8674
44.267275485, 96.390, 1151.0, 33.9264
44.293536051, 96.390, 1217.0, 34.8855
44.319796616, 96.390, 1169.0, 34.1906
44.346057181, 96.390, 1218.0, 34.8999
44.372317747, 96.390, 1215.0, 34.8569
44.398578312, 96.390, 1223.0, 34.9714
44.424838877, 96.390, 1107.0, 33.2716
44.451099443, 96.390, 1176.0, 34.2929
44.477360008, 96.390, 1227.0, 35.0286
44.503620573, 96.390, 1183.0, 34.3948
44.529881139, 96.390, 1244.0, 35.2704
44.556141704, 96.390, 1198.0, 34.6121
44.582402269, 96.390, 1173.0, 34.2491
44.608662835, 96.390, 1225.0, 35.0000
44.634923400, 96.390, 1224.0, 34.9857
44.661183966, 96.390, 1219.0, 34.9142
44.687444531, 96.390, 1158.0, 34.0294
44.713705096, 96.390, 1243.0, 35.2562
44.739965662, 96.390, 1206.0, 34.7275
44.766226227, 96.390, 1193.0, 34.5398
44.792486792, 96.390, 1206.0, 34.7275
44.818747358, 96.390, 1203.0, 34.6843
44.845007923, 96.390, 1225.0, 35.0000
44.871268488, 96.390, 1175.0, 34.2783
44.897529054, 96.390, 1264.0, 35.5528
44.923789619, 96.390, 1281.0, 35.7911
44.950050184, 96.390, 1225.0, 35.0000
44.976310750, 96.390, 1223.0, 34.9714
45.002571315, 96.390, 1289.0, 35.9026
45.028831880, 96.390, 1270.0, 35.6371
45.055092446, 96.390, 1268.0, 35.6090
45.081353011, 96.390, 1224.0, 34.9857
45.107613577, 96.390, 1210.0, 34.7851
45.133874142, 96.390, 1195.0, 34.5688
45.160134707, 96.390, 1288.0, 35.8887
45.186395273, 96.390, 1199.0, 34.6266
45.212655838, 96.390, 1239.0, 35.1994
45.238916403, 96.390, 1257.0, 35.4542
45.265176969, 96.390, 1226.0, 35.0143
45.291437534, 96.390, 1265.0, 35.5668
45.317698099, 96.390, 1205.0, 34.7131
45.343958665, 96.390, 1246.0, 35.2987
45.370219230, 96.390, 1159.0, 34.0441
45.396479795, 96.390, 1171.0, 34.2199
45.422740361, 96.390, 1231.0, 35.0856
45.449000926, 96.390, 1273.0, 35.6791
45.475261492, 96.390, 1191.0, 34.5109
45.501522057, 96.390, 1257.0, 35.4542
45.527782622, 96.390, 1146.0, 33.8526
45.554043188, 96.390, 1168.0, 34.1760
45.580303753, 96.390, 1246.0, 35.2987
45.606564318, 96.390, 1216.0, 34.8712
45.632824884, 96.390, 1161.0, 34.0735
45.659085449, 96.390, 1183.0, 34.3948
45.685346014, 96.390, 1180.0, 34.3511
45.711606580, 96.390, 1195.0, 34.5688
45.737867145, 96.390, 1181.0, 34.3657
45.764127710, 96.390, 1247.0, 35.3129
45.790388276, 96.390, 1105.0, 33.2415
45.816648841, 96.390, 1180.0, 34.3511
45.842909406, 96.390, 1195.0, 34.5688
45.869169972, 96.390, 1115.0, 33.3916
45.895430537, 96.390, 1133.0, 33.6601
45.921691103, 96.390, 1162.0, 34.0881
45.947951668, 96.390, 1144.0, 33.8231
45.974212233, 96.390, 1235.0, 35.1426
46.000472799, 96.390, 1146.0, 33.8526
46.026733364, 96.390, 1155.0, 33.9853
46.052993929, 96.390, 1204.0, 34.6987
46.079254495, 96.390, 1170.0, 34.2053
46.105515060, 96.390, 1177.0, 34.3074
46.131775625, 96.390, 1190.0, 34.4964
46.158036191, 96.390, 1168.0, 34.1760
46.184296756, 96.390, 1209.0, 34.7707
46.210557321, 96.390, 1234.0, 35.1283
46.236817887, 96.390, 1162.0, 34.0881
46.263078452, 96.390, 1117.0, 33.4215
46.289339017, 96.390, 1189.0, 34.4819
46.315599583, 96.390, 1204.0, 34.6987
46.341860148, 96.390, 1175.0, 34.2783
46.368120714, 96.390, 1142.0, 33.7935
46.394381279, 96.390, 1192.0, 34.5254
46.420641844, 96.390, 1079.0, 32.8481
46.446902410, 96.390, 1177.0, 34.3074
46.473162975, 96.390, 1192.0, 34.5254
46.499423540, 96.390, 1176.0, 34.2929
46.525684106, 96.390, 1140.0, 33.7639
46.551944671, 96.390, 1181.0, 34.3657
46.578205236, 96.390, 1103.0, 33.2114
46.604465802, 96.390, 1157.0, 34.0147
46.630726367, 96.390, 1198.0, 34.6121
46.656986932, 96.390, 1204.0, 34.6987
46.683247498, 96.390, 1193.0, 34.5398
46.709508063, 96.390, 1139.0, 33.7491
46.735768629, 96.390, 1154.0, 33.9706
46.762029194, 96.390, 1174.0, 34.2637
46.788289759, 96.390, 1082.0, 32.8938
46.814550325, 96.390, 1220.0, 34.9285
46.840810890, 96.390, 1140.0, 33.7639
46.867071455, 96.390, 1159.0, 34.0441
46.893332021, 96.390, 1066.0, 32.6497
46.919592586, 96.390, 1193.0, 34.5398
46.945853151, 96.390, 1121.0, 33.4813
46.972113717, 96.390, 1106.0, 33.2566
46.998374282, 96.390, 1117.0, 33.4215
47.024634847, 96.390, 1154.0, 33.9706
47.050895413, 96.390, 1157.0, 34.0147
47.077155978, 96.390, 1145.0, 33.8378
47.103416543, 96.390, 1083.0, 32.9090
47.129677109, 96.390, 1133.0, 33.6601
47.155937674, 96.390, 1096.0, 33.1059
47.182198240, 96.390, 1127.0, 33.5708
47.208458805, 96.390, 1061.0, 32.5730
47.234719370, 96.390, 1090.0, 33.0151
47.260979936, 96.390, 1126.0, 33.5559
47.287240501, 96.390, 1112.0, 33.3467
47.313501066, 96.390, 1160.0, 34.0588
47.339761632, 96.390, 1190.0, 34.4964
47.366022197, 96.390, 1124.0, 33.5261
47.392282762, 96.390, 1112.0, 33.3467
47.418543328, 96.390, 1134.0, 33.6749
47.444803893, 96.390, 1075.0, 32.7872
47.471064458, 96.390, 1087.0, 32.9697
47.497325024, 96.390, 1134.0, 33.6749
47.523585589, 96.390, 1133.0, 33.6601
47.549846155, 96.390, 1057.0, 32.5115
47.576106720, 96.390, 1086.0, 32.9545
47.602367285, 96.390, 1087.0, 32.9697
47.628627851, 96.390, 1123.0, 33.5112
47.654888416, 96.390, 1117.0, 33.4215
47.681148981, 96.390, 1153.0, 33.9559
47.707409547, 96.390, 1101.0, 33.1813
47.733670112, 96.390, 1097.0, 33.1210
47.759930677, 96.390, 1140.0, 33.7639
47.786191243, 96.390, 1092.0, 33.0454
47.812451808, 96.390, 1030.0, 32.0936
47.838712373, 96.390, 1097.0, 33.1210
47.864972939, 96.390, 1053.0, 32.4500
47.891233504, 96.390, 1119.0, 33.4515
47.917494069, 96.390, 1068.0, 32.6803
47.943754635, 96.390, 1073.0, 32.7567
47.970015200, 96.390, 1140.0, 33.7639
47.996275766, 96.390, 1114.0, 33.3766
48.022536331, 96.390, 1052.0, 32.4345
48.048796896, 96.390, 1103.0, 33.2114
48.075057462, 96.390, 1100.0, 33.1662
48.101318027, 96.390, 1092.0, 33.0454
48.127578592, 96.390, 1101.0, 33.1813
48.153839158, 96.390, 1117.0, 33.4215
48.180099723, 96.390, 1062.0, 32.5883
48.206360288, 96.390, 1084.0, 32.9242
48.232620854, 96.390, 1087.0, 32.9697
48.258881419, 96.390, 1074.0, 32.7719
48.285141984, 96.390, 1091.0, 33.0303
48.311402550, 96.390, 1052.0, 32.4345
48.337663115, 96.390, 1058.0, 32.5269
48.363923681, 96.390, 1068.0, 32.6803
48.390184246, 96.390, 1089.0, 33.0000
48.416444811, 96.390, 1055.0, 32.4808
48.442705377, 96.390, 1092.0, 33.0454
48.468965942, 96.390, 1088.0, 32.9848
48.495226507, 96.390, 1073.0, 32.7567
48.521487073, 96.390, 1053.0, 32.4500
48.547747638, 96.390, 1020.0, 31.9374
48.574008203, 96.390, 1005.0, 31.7017
48.600268769, 96.390, 1073.0, 32.7567
48.626529334, 96.390, 1044.0, 32.3110
48.652789899, 96.390, 1057.0, 32.5115
48.679050465, 96.390, 1067.0, 32.6650
48.705311030, 96.390, 1044.0, 32.3110
48.731571595, 96.390, 1006.0, 31.7175
48.757832161, 96.390, 1051.0, 32.4191
48.784092726, 96.390, 1018.0, 31.9061
48.810353292, 96.390, 1031.0, 32.1092
48.836613857, 96.390, 1025.0, 32.0156
48.862874422, 96.390, 1099.0, 33.1512
48.889134988, 96.390, 1055.0, 32.4808
48.915395553, 96.390, 1048.0, 32.3728
48.941656118, 96.390, 1026.0, 32.0312
48.967916684, 96.390, 1009.0, 31.7648
48.994177249, 96.390, 1071.0, 32.7261
49.020437814, 96.390, 1041.0, 32.2645
49.046698380, 96.390, 1001.0, 31.6386
49.072958945, 96.390, 1082.0, 32.8938
49.099219510, 96.390, 1063.0, 32.6037
49.125480076, 96.390, 1017.0, 31.8904
49.151740641, 96.390, 1026.0, 32.0312
49.178001207, 96.390, 1020.0, 31.9374
49.204261772, 96.390, 1069.0, 32.6956
49.230522337, 96.390, 1014.0, 31.8434
49.256782903, 96.390, 1004.0, 31.6860
49.283043468, 96.390, 1022.0, 31.9687
49.309304033, 96.390, 1083.0, 32.9090
49.335564599, 96.390, 1013.0, 31.8277
49.361825164, 96.390, 1011.0, 31.7962
49.388085729, 96.390, 1039.0, 32.2335
49.414346295, 96.390, 1025.0, 32.0156
49.440606860, 96.390, 970.0, 31.1448
49.466867425, 96.390, 974.0, 31.2090
49.493127991, 96.390, 1040.0, 32.2490
49.519388556, 96.390, 1019.0, 31.9218
49.545649121, 96.390, 992.0, 31.4960
49.571909687, 96.390, 1029.0, 32.0780
49.598170252, 96.390, 987.0, 31.4166
49.624430818, 96.390, 982.0, 31.3369
49.650691383, 96.390, 1000.0, 31.6228
49.676951948, 96.390, 1066.0, 32.6497
49.703212514, 96.390, 978.0, 31.2730
49.729473079, 96.390, 984.0, 31.3688
49.755733644, 96.390, 1003.0, 31.6702
49.781994210, 96.390, 980.0, 31.3050
49.808254775, 96.390, 1039.0, 32.2335
49.834515340, 96.390, 995.0, 31.5436
49.860775906, 96.390, 903.0, 30.0500
49.887036471, 96.390, 956.0, 30.9192
49.913297036, 96.390, 948.0, 30.7896
49.939557602, 96.390, 1038.0, 32.2180
49.965818167, 96.390, 939.0, 30.6431
49.992078732, 96.390, 980.0, 31.3050
50.018339298, 96.390, 1036.0, 32.1870
50.044599863, 96.390, 948.0, 30.7896
50.070860429, 96.390, 968.0, 31.1127
50.097120994, 96.390, 973.0, 31.1929
50.123381559, 96.390, 963.0, 31.0322
50.149642125, 96.390, 1006.0, 31.7175
50.175902690, 96.390, 983.0, 31.3528
50.202163255, 96.390, 1013.0, 31.8277
50.228423821, 96.390, 933.0, 30.5450
50.254684386, 96.390, 930.0, 30.4959
50.280944951, 96.390, 953.0, 30.8707
50.307205517, 96.390, 982.0, 31.3369
50.333466082, 96.390, 988.0, 31.4325
50.359726647, 96.390, 988.0, 31.4325
50.385987213, 96.390, 1048.0, 32.3728
50.412247778, 96.390, 965.0, 31.0644
50.438508344, 96.390, 958.0, 30.9516
50.464768909, 96.390, 959.0, 30.9677
50.491029474, 96.390, 943.0, 30.7083
50.517290040, 96.390, 976.0, 31.2410
50.543550605, 96.390, 938.0, 30.6268
50.569811170, 96.390, 999.0, 31.6070
50.596071736, 96.390, 920.0, 30.3315
50.622332301, 96.390, 989.0, 31.4484
50.648592866, 96.390, 917.0, 30.2820
50.674853432, 96.390, 904.0, 30.0666
50.701113997, 96.390, 971.0, 31.1609
50.727374562, 96.390, 960.0, 30.9839
50.753635128, 96.390, 979.0, 31.2890
50.779895693, 96.390, 949.0, 30.8058
50.806156258, 96.390, 912.0, 30.1993
50.832416824, 96.390, 977.0, 31.2570
50.858677389, 96.390, 936.0, 30.5941
50.884937955, 96.390, 913.0, 30.2159
50.911198520, 96.390, 934.0, 30.5614
50.937459085, 96.390, 940.0, 30.6594
50.963719651, 96.390, 1004.0, 31.6860
50.989980216, 96.390, 943.0, 30.7083
51.016240781, 96.390, 998.0, 31.5911
51.042501347, 96.390, 989.0, 31.4484
51.068761912, 96.390, 980.0, 31.3050
51.095022477, 96.390, 988.0, 31.4325
51.121283043, 96.390, 1006.0, 31.7175
51.147543608, 96.390, 913.0, 30.2159
51.173804173, 96.390, 961.0, 31.0000
51.200064739, 96.390, 923.0, 30.3809
51.226325304, 96.390, 972.0, 31.1769
51.252585870, 96.390, 953.0, 30.8707
51.278846435, 96.390, 1026.0, 32.0312
51.305107000, 96.390, 967.0, 31.0966
51.331367566, 96.390, 973.0, 31.1929
51.357628131, 96.390, 938.0, 30.6268
51.383888696, 96.390, 941.0, 30.6757
51.410149262, 96.390, 938.0, 30.6268
51.436409827, 96.390, 979.0, 31.2890
51.462670392, 96.390, 925.0, 30.4138
51.488930958, 96.390, 936.0, 30.5941
51.515191523, 96.390, 982.0, 31.3369
51.541452088, 96.390, 934.0, 30.5614
51.567712654, 96.390, 918.0, 30.2985
51.593973219, 96.390, 924.0, 30.3974
51.620233784, 96.390, 961.0, 31.0000
51.646494350, 96.390, 974.0, 31.2090
51.672754915, 96.390, 976.0, 31.2410
51.699015481, 96.390, 895.0, 29.9166
51.725276046, 96.390, 970.0, 31.1448
51.751536611, 96.390, 976.0, 31.2410
51.777797177, 96.390, 920.0, 30.3315
51.804057742, 96.390, 948.0, 30.7896
51.830318307, 96.390, 952.0, 30.8545
51.856578873, 96.390, 929.0, 30.4795
51.882839438, 96.390, 997.0, 31.5753
51.909100003, 96.390, 961.0, 31.0000
51.935360569, 96.390, 898.0, 29.9666
51.961621134, 96.390, 892.0, 29.8664
51.987881699, 96.390, 883.0, 29.7153
52.014142265, 96.390, 985.0, 31.3847
52.040402830, 96.390, 1003.0, 31.6702
52.066663396, 96.390, 890.0, 29.8329
52.092923961, 96.390, 872.0, 29.5296
52.119184526, 96.390, 907.0, 30.1164
52.145445092, 96.390, 938.0, 30.6268
52.171705657, 96.390, 909.0, 30.1496
52.197966222, 96.390, 992.0, 31.4960
52.224226788, 96.390, 858.0, 29.2916
52.250487353, 96.390, 910.0, 30.1662
52.276747918, 96.390, 912.0, 30.1993
52.303008484, 96.390, 871.0, 29.5127
52.329269049, 96.390, 894.0, 29.8998
52.355529614, 96.390, 953.0, 30.8707
52.381790180, 96.390, 950.0, 30.8221
52.408050745, 96.390, 878.0, 29.6311
52.434311310, 96.390, 923.0, 30.3809
52.460571876, 96.390, 882.0, 29.6985
52.486832441, 96.390, 864.0, 29.3939
52.513093007, 96.390, 920.0, 30.3315
52.539353572, 96.390, 933.0, 30.5450
52.565614137, 96.390, 884.0, 29.7321
52.591874703, 96.390, 918.0, 30.2985
52.618135268, 96.390, 975.0, 31.2250
52.644395833, 96.390, 908.0, 30.1330
52.670656399, 96.390, 909.0, 30.1496
52.696916964, 96.390, 890.0, 29.8329
52.723177529, 96.390, 891.0, 29.8496
52.749438095, 96.390, 911.0, 30.1828
52.775698660, 96.390, 945.0, 30.7409
52.801959225, 96.390, 858.0, 29.2916
52.828219791, 96.390, 965.0, 31.0644
52.854480356, 96.390, 915.0, 30.2490
52.880740922, 96.390, 918.0, 30.2985
52.907001487, 96.390, 893.0, 29.8831
52.933262052, 96.390, 918.0, 30.2985
52.959522618, 96.390, 868.0, 29.4618
52.985783183, 96.390, 876.0, 29.5973
53.012043748, 96.390, 894.0, 29.8998
53.038304314, 96.390, 896.0, 29.9333
53.064564879, 96.390, 883.0, 29.7153
53.090825444, 96.390, 863.0, 29.3769
53.117086010, 96.390, 909.0, 30.1496
53.143346575, 96.390, 861.0, 29.3428
53.169607140, 96.390, 918.0, 30.2985
53.195867706, 96.390, 943.0, 30.7083
53.222128271, 96.390, 883.0, 29.7153
53.248388836, 96.390, 843.0, 29.0345
53.274649402, 96.390, 852.0, 29.1890
53.300909967, 96.390, 956.0, 30.9192
53.327170533, 96.390, 846.0, 29.0861
53.353431098, 96.390, 862.0, 29.3598
53.379691663, 96.390, 913.0, 30.2159
53.405952229, 96.390, 826.0, 28.7402
53.432212794, 96.390, 861.0, 29.3428
53.458473359, 96.390, 859.0, 29.3087
53.484733925, 96.390, 892.0, 29.8664
53.510994490, 96.390, 927.0, 30.4467
53.537255055, 96.390, 847.0, 29.1033
53.563515621, 96.390, 895.0, 29.9166
53.589776186, 96.390, 927.0, 30.4467
53.616036751, 96.390, 966.0, 31.0805
53.642297317, 96.390, 861.0, 29.3428
53.668557882, 96.390, 888.0, 29.7993
53.694818448, 96.390, 892.0, 29.8664
53.721079013, 96.390, 840.0, 28.9828
53.747339578, 96.390, 877.0, 29.6142
53.773600144, 96.390, 856.0, 29.2575
53.799860709, 96.390, 929.0, 30.4795
53.826121274, 96.390, 790.0, 28.1069
53.852381840, 96.390, 910.0, 30.1662
53.878642405, 96.390, 867.0, 29.4449
53.904902970, 96.390, 902.0, 30.0333
53.931163536, 96.390, 868.0, 29.4618
53.957424101, 96.390, 925.0, 30.4138
53.983684666, 96.390, 895.0, 29.9166
54.009945232, 96.390, 929.0, 30.4795
54.036205797, 96.390, 846.0, 29.0861
54.062466362, 96.390, 881.0, 29.6816
54.088726928, 96.390, 917.0, 30.2820
54.114987493, 96.390, 868.0, 29.4618
54.141248059, 96.390, 925.0, 30.4138
54.167508624, 96.390, 880.0, 29.6648
54.193769189, 96.390, 918.0, 30.2985
54.220029755, 96.390, 909.0, 30.1496
54.246290320, 96.390, 929.0, 30.4795
54.272550885, 96.390, 912.0, 30.1993
54.298811451, 96.390, 914.0, 30.2324
54.325072016, 96.390, 921.0, 30.3480
54.351332581, 96.390, 896.0, 29.9333
54.377593147, 96.390, 889.0, 29.8161
54.403853712, 96.390, 995.0, 31.5436
54.430114277, 96.390, 880.0, 29.6648
54.456374843, 96.390, 905.0, 30.0832
54.482635408, 96.390, 940.0, 30.6594
54.508895973, 96.390, 883.0, 29.7153
54.535156539, 96.390, 899.0, 29.9833
54.561417104, 96.390, 932.0, 30.5287
54.587677670, 96.390, 876.0, 29.5973
54.613938235, 96.390, 922.0, 30.3645
54.640198800, 96.390, 970.0, 31.1448
54.666459366, 96.390, 871.0, 29.5127
54.692719931, 96.390, 926.0, 30.4302
54.718980496, 96.390, 933.0, 30.5450
54.745241062, 96.390, 892.0, 29.8664
54.771501627, 96.390, 906.0, 30.0998
54.797762192, 96.390, 942.0, 30.6920
54.824022758, 96.390, 888.0, 29.7993
54.850283323, 96.390, 957.0, 30.9354
54.876543888, 96.390, 955.0, 30.9031
54.902804454, 96.390, 949.0, 30.8058
54.929065019, 96.390, 908.0, 30.1330
54.955325585, 96.390, 928.0, 30.4631
54.981586150, 96.390, 1043.0, 32.2955
55.007846715, 96.390, 935.0, 30.5778
55.034107281, 96.390, 911.0, 30.1828
55.060367846, 96.390, 943.0, 30.7083
55.086628411, 96.390, 970.0, 31.1448
55.112888977, 96.390, 934.0, 30.5614
55.139149542, 96.390, 878.0, 29.6311
55.165410107, 96.390, 900.0, 30.0000
55.191670673, 96.390, 877.0, 29.6142
55.217931238, 96.390, 922.0, 30.3645
55.244191803, 96.390, 909.0, 30.1496
55.270452369, 96.390, 899.0, 29.9833
55.296712934, 96.390, 948.0, 30.7896
55.322973499, 96.390, 902.0, 30.0333
55.349234065, 96.390, 918.0, 30.2985
55.375494630, 96.390, 950.0, 30.8221
55.401755196, 96.390, 914.0, 30.2324
55.428015761, 96.390, 873.0, 29.5466
55.454276326, 96.390, 904.0, 30.0666
55.480536892, 96.390, 892.0, 29.8664
55.506797457, 96.390, 916.0, 30.2655
55.533058022, 96.390, 913.0, 30.2159
55.559318588, 96.390, 964.0, 31.0483
55.585579153, 96.390, 907.0, 30.1164
55.611839718, 96.390, 934.0, 30.5614
55.638100284, 96.390, 918.0, 30.2985
55.664360849, 96.390, 892.0, 29.8664
55.690621414, 96.390, 931.0, 30.5123
55.716881980, 96.390, 920.0, 30.3315
55.743142545, 96.390, 907.0, 30.1164
55.769403111, 96.390, 907.0, 30.1164
55.795663676, 96.390, 897.0, 29.9500
55.821924241, 96.390, 845.0, 29.0689
55.848184807, 96.390, 896.0, 29.9333
55.874445372, 96.390, 877.0, 29.6142
55.900705937, 96.390, 891.0, 29.8496
55.926966503, 96.390, 832.0, 28.8444
55.953227068, 96.390, 896.0, 29.9333
55.979487633, 96.390, 915.0, 30.2490
56.005748199, 96.390, 930.0, 30.4959
56.032008764, 96.390, 884.0, 29.7321
56.058269329, 96.390, 892.0, 29.8664
56.084529895, 96.390, 893.0, 29.8831
56.110790460, 96.390, 893.0, 29.8831
56.137051025, 96.390, 908.0, 30.1330
56.163311591, 96.390, 935.0, 30.5778
56.189572156, 96.390, 893.0, 29.8831
56.215832722, 96.390, 890.0, 29.8329
56.242093287, 96.390, 864.0, 29.3939
56.268353852, 96.390, 908.0, 30.1330
56.294614418, 96.390, 899.0, 29.9833
56.320874983, 96.390, 860.0, 29.3258
56.347135548, 96.390, 921.0, 30.3480
56.373396114, 96.390, 946.0, 30.7571
56.399656679, 96.390, 911.0, 30.1828
56.425917244, 96.390, 850.0, 29.1548
56.452177810, 96.390, 876.0, 29.5973
56.478438375, 96.390, 890.0, 29.8329
56.504698940, 96.390, 884.0, 29.7321
56.530959506, 96.390, 862.0, 29.3598
56.557220071, 96.390, 921.0, 30.3480
56.583480637, 96.390, 864.0, 29.3939
56.609741202, 96.390, 868.0, 29.4618
56.636001767, 96.390, 885.0, 29.7489
56.662262333, 96.390, 925.0, 30.4138
56.688522898, 96.390, 841.0, 29.0000
56.714783463, 96.390, 911.0, 30.1828
56.741044029, 96.390, 942.0, 30.6920
56.767304594, 96.390, 892.0, 29.8664
56.793565159, 96.390, 882.0, 29.6985
56.819825725, 96.390, 871.0, 29.5127
56.846086290, 96.390, 881.0, 29.6816
56.872346855, 96.390, 836.0, 28.9137
56.898607421, 96.390, 868.0, 29.4618
56.924867986, 96.390, 927.0, 30.4467
56.951128551, 96.390, 856.0, 29.2575
56.977389117, 96.390, 902.0, 30.0333
57.003649682, 96.390, 928.0, 30.4631
57.029910248, 96.390, 846.0, 29.0861
57.056170813, 96.390, 918.0, 30.2985
57.082431378, 96.390, 929.0, 30.4795
57.108691944, 96.390, 895.0, 29.9166
57.134952509, 96.390, 953.0, 30.8707
57.161213074, 96.390, 874.0, 29.5635
57.187473640, 96.390, 906.0, 30.0998
57.213734205, 96.390, 900.0, 30.0000
57.239994770, 96.390, 915.0, 30.2490
57.266255336, 96.390, 862.0, 29.3598
57.292515901, 96.390, 928.0, 30.4631
57.318776466, 96.390, 870.0, 29.4958
57.345037032, 96.390, 813.0, 28.5132
57.371297597, 96.390, 947.0, 30.7734
57.397558163, 96.390, 845.0, 29.0689
57.423818728, 96.390, 921.0, 30.3480
57.450079293, 96.390, 833.0, 28.8617
57.476339859, 96.390, 879.0, 29.6479
57.502600424, 96.390, 824.0, 28.7054
57.528860989, 96.390, 878.0, 29.6311
57.555121555, 96.390, 830.0, 28.8097
57.581382120, 96.390, 887.0, 29.7825
57.607642685, 96.390, 913.0, 30.2159
57.633903251, 96.390, 850.0, 29.1548
57.660163816, 96.390, 864.0, 29.3939
57.686424381, 96.390, 881.0, 29.6816
57.712684947, 96.390, 858.0, 29.2916
57.738945512, 96.390, 876.0, 29.5973
57.765206077, 96.390, 936.0, 30.5941
57.791466643, 96.390, 895.0, 29.9166
57.817727208, 96.390, 905.0, 30.0832
57.843987774, 96.390, 843.0, 29.0345
57.870248339, 96.390, 911.0, 30.1828
57.896508904, 96.390, 861.0, 29.3428
57.922769470, 96.390, 882.0, 29.6985
57.949030035, 96.390, 860.0, 29.3258
57.975290600, 96.390, 919.0, 30.3150
58.001551166, 96.390, 858.0, 29.2916
58.027811731, 96.390, 844.0, 29.0517
58.054072296, 96.390, 889.0, 29.8161
58.080332862, 96.390, 852.0, 29.1890
58.106593427, 96.390, 860.0, 29.3258
58.132853992, 96.390, 919.0, 30.3150
58.159114558, 96.390, 893.0, 29.8831
58.185375123, 96.390, 897.0, 29.9500
58.211635689, 96.390, 977.0, 31.2570
58.237896254, 96.390, 881.0, 29.6816
58.264156819, 96.390, 862.0, 29.3598
58.290417385, 96.390, 903.0, 30.0500
58.316677950, 96.390, 873.0, 29.5466
58.342938515, 96.390, 820.0, 28.6356
58.369199081, 96.390, 888.0, 29.7993
58.395459646, 96.390, 876.0, 29.5973
58.421720211, 96.390, 871.0, 29.5127
58.447980777, 96.390, 900.0, 30.0000
58.474241342, 96.390, 906.0, 30.0998
58.500501907, 96.390, 869.0, 29.4788
58.526762473, 96.390, 868.0, 29.4618
58.553023038, 96.390, 891.0, 29.8496
58.579283603, 96.390, 873.0, 29.5466
58.605544169, 96.390, 861.0, 29.3428
58.631804734, 96.390, 841.0, 29.0000
58.658065300, 96.390, 897.0, 29.9500
58.684325865, 96.390, 840.0, 28.9828
58.710586430, 96.390, 845.0, 29.0689
58.736846996, 96.390, 882.0, 29.6985
58.763107561, 96.390, 891.0, 29.8496
58.789368126, 96.390, 819.0, 28.6182
58.815628692, 96.390, 890.0, 29.8329
58.841889257, 96.390, 894.0, 29.8998
58.868149822, 96.390, 887.0, 29.7825
58.894410388, 96.390, 903.0, 30.0500
58.920670953, 96.390, 840.0, 28.9828
58.946931518, 96.390, 860.0, 29.3258
58.973192084, 96.390, 918.0, 30.2985
58.999452649, 96.390, 839.0, 28.9655
59.025713214, 96.390, 852.0, 29.1890
59.051973780, 96.390, 926.0, 30.4302
59.078234345, 96.390, 871.0, 29.5127
59.104494911, 96.390, 842.0, 29.0172
59.130755476, 96.390, 845.0, 29.0689
59.157016041, 96.390, 885.0, 29.7489
59.183276607, 96.390, 891.0, 29.8496
59.209537172, 96.390, 794.0, 28.1780
59.235797737, 96.390, 882.0, 29.6985
59.262058303, 96.390, 867.0, 29.4449
59.288318868, 96.390, 909.0, 30.1496
59.314579433, 96.390, 877.0, 29.6142
59.340839999, 96.390, 950.0, 30.8221
59.367100564, 96.390, 861.0, 29.3428
59.393361129, 96.390, 847.0, 29.1033
59.419621695, 96.390, 873.0, 29.5466
59.445882260, 96.390, 908.0, 30.1330
59.472142826, 96.390, 923.0, 30.3809
59.498403391, 96.390, 885.0, 29.7489
59.524663956, 96.390, 862.0, 29.3598
59.550924522, 96.390, 847.0, 29.1033
59.577185087, 96.390, 887.0, 29.7825
59.603445652, 96.390, 892.0, 29.8664
59.629706218, 96.390, 852.0, 29.1890
59.655966783, 96.390, 872.0, 29.5296
59.682227348, 96.390, 935.0, 30.5778
59.708487914, 96.390, 887.0, 29.7825
59.734748479, 96.390, 820.0, 28.6356
59.761009044, 96.390, 919.0, 30.3150
59.787269610, 96.390, 870.0, 29.4958
59.813530175, 96.390, 959.0, 30.9677
59.839790740, 96.390, 838.0, 28.9482
59.866051306, 96.390, 886.0, 29.7658
59.892311871, 96.390, 876.0, 29.5973
59.918572437, 96.390, 929.0, 30.4795
59.944833002, 96.390, 881.0, 29.6816
59.971093567, 96.390, 888.0, 29.7993
59.997354133, 96.390, 852.0, 29.1890
60.023614698, 96.390, 885.0, 29.7489
60.049875263, 96.390, 900.0, 30.0000
60.076135829, 96.390, 892.0, 29.8664
60.102396394, 96.390, 848.0, 29.1204
60.128656959, 96.390, 855.0, 29.2404
60.154917525, 96.390, 934.0, 30.5614
60.181178090, 96.390, 941.0, 30.6757
60.207438655, 96.390, 863.0, 29.3769
60.233699221, 96.390, 901.0, 30.0167
60.259959786, 96.390, 860.0, 29.3258
60.286220352, 96.390, 946.0, 30.7571
60.312480917, 96.390, 896.0, 29.9333
60.338741482, 96.390, 885.0, 29.7489
60.365002048, 96.390, 915.0, 30.2490
60.391262613, 96.390, 942.0, 30.6920
60.417523178, 96.390, 916.0, 30.2655
60.443783744, 96.390, 905.0, 30.0832
60.470044309, 96.390, 955.0, 30.9031
60.496304874, 96.390, 947.0, 30.7734
60.522565440, 96.390, 976.0, 31.2410
60.548826005, 96.390, 895.0, 29.9166
60.575086570, 96.390, 924.0, 30.3974
60.601347136, 96.390, 886.0, 29.7658
60.627607701, 96.390, 924.0, 30.3974
60.653868266, 96.390, 983.0, 31.3528
60.680128832, 96.390, 1009.0, 31.7648
60.706389397, 96.390, 960.0, 30.9839
60.732649963, 96.390, 957.0, 30.9354
60.758910528, 96.390, 990.0, 31.4643
60.785171093, 96.390, 962.0, 31.0161
60.811431659, 96.390, 924.0, 30.3974
60.837692224, 96.390, 946.0, 30.7571
60.863952789, 96.390, 953.0, 30.8707
60.890213355, 96.390, 982.0, 31.3369
60.916473920, 96.390, 979.0, 31.2890
60.942734485, 96.390, 926.0, 30.4302
60.968995051, 96.390, 945.0, 30.7409
60.995255616, 96.390, 997.0, 31.5753
61.021516181, 96.390, 963.0, 31.0322
61.047776747, 96.390, 1023.0, 31.9844
61.074037312, 96.390, 956.0, 30.9192
61.100297878, 96.390, 1025.0, 32.0156
61.126558443, 96.390, 954.0, 30.8869
61.152819008, 96.390, 1040.0, 32.2490
61.179079574, 96.390, 970.0, 31.1448
61.205340139, 96.390, 1012.0, 31.8119
61.231600704, 96.390, 972.0, 31.1769
61.257861270, 96.390, 979.0, 31.2890
61.284121835, 96.390, 940.0, 30.6594
61.310382400, 96.390, 962.0, 31.0161
61.336642966, 96.390, 963.0, 31.0322
61.362903531, 96.390, 995.0, 31.5436
61.389164096, 96.390, 967.0, 31.0966
61.415424662, 96.390, 1023.0, 31.9844
61.441685227, 96.390, 951.0, 30.8383
61.467945792, 96.390, 936.0, 30.5941
61.494206358, 96.390, 955.0, 30.9031
61.520466923, 96.390, 931.0, 30.5123
61.546727489, 96.390, 904.0, 30.0666
61.572988054, 96.390, 973.0, 31.1929
61.599248619, 96.390, 938.0, 30.6268
61.625509185, 96.390, 951.0, 30.8383
61.651769750, 96.390, 964.0, 31.0483
61.678030315, 96.390, 936.0, 30.5941
61.704290881, 96.390, 964.0, 31.0483
61.730551446, 96.390, 921.0, 30.3480
61.756812011, 96.390, 914.0, 30.2324
61.783072577, 96.390, 1003.0, 31.6702
61.809333142, 96.390, 916.0, 30.2655
61.835593707, 96.390, 917.0, 30.2820
61.861854273, 96.390, 909.0, 30.1496
61.888114838, 96.390, 945.0, 30.7409
61.914375404, 96.390, 971.0, 31.1609
61.940635969, 96.390, 878.0, 29.6311
61.966896534, 96.390, 883.0, 29.7153
61.993157100, 96.390, 941.0, 30.6757
62.019417665, 96.390, 916.0, 30.2655
62.045678230, 96.390, 888.0, 29.7993
62.071938796, 96.390, 970.0, 31.1448
62.098199361, 96.390, 877.0, 29.6142
62.124459926, 96.390, 925.0, 30.4138
62.150720492, 96.390, 934.0, 30.5614
62.176981057, 96.390, 919.0, 30.3150
62.203241622, 96.390, 893.0, 29.8831
62.229502188, 96.390, 918.0, 30.2985
62.255762753, 96.390, 913.0, 30.2159
62.282023318, 96.390, 911.0, 30.1828
62.308283884, 96.390, 962.0, 31.0161
62.334544449, 96.390, 920.0, 30.3315
62.360805015, 96.390, 926.0, 30.4302
62.387065580, 96.390, 931.0, 30.5123
62.413326145, 96.390, 944.0, 30.7246
62.439586711, 96.390, 833.0, 28.8617
62.465847276, 96.390, 894.0, 29.8998
62.492107841, 96.390, 901.0, 30.0167
62.518368407, 96.390, 889.0, 29.8161
62.544628972, 96.390, 876.0, 29.5973
62.570889537, 96.390, 870.0, 29.4958
62.597150103, 96.390, 838.0, 28.9482
62.623410668, 96.390, 820.0, 28.6356
62.649671233, 96.390, 838.0, 28.9482
62.675931799, 96.390, 884.0, 29.7321
62.702192364, 96.390, 882.0, 29.6985
62.728452930, 96.390, 860.0, 29.3258
62.754713495, 96.390, 856.0, 29.2575
62.780974060, 96.390, 872.0, 29.5296
62.807234626, 96.390, 824.0, 28.7054
62.833495191, 96.390, 830.0, 28.8097
62.859755756, 96.390, 899.0, 29.9833
62.886016322, 96.390, 841.0, 29.0000
62.912276887, 96.390, 801.0, 28.3019
62.938537452, 96.390, 889.0, 29.8161
62.964798018, 96.390, 817.0, 28.5832
62.991058583, 96.390, 847.0, 29.1033
63.017319148, 96.390, 898.0, 29.9666
63.043579714, 96.390, 855.0, 29.2404
63.069840279, 96.390, 855.0, 29.2404
63.096100844, 96.390, 812.0, 28.4956
63.122361410, 96.390, 841.0, 29.0000
63.148621975, 96.390, 856.0, 29.2575
63.174882541, 96.390, 814.0, 28.5307
63.201143106, 96.390, 850.0, 29.1548
63.227403671, 96.390, 795.0, 28.1957
63.253664237, 96.390, 923.0, 30.3809
63.279924802, 96.390, 876.0, 29.5973
63.306185367, 96.390, 885.0, 29.7489
63.332445933, 96.390, 845.0, 29.0689
63.358706498, 96.390, 792.0, 28.1425
63.384967063, 96.390, 852.0, 29.1890
63.411227629, 96.390, 834.0, 28.8791
63.437488194, 96.390, 851.0, 29.1719
63.463748759, 96.390, 864.0, 29.3939
63.490009325, 96.390, 819.0, 28.6182
63.516269890, 96.390, 841.0, 29.0000
63.542530455, 96.390, 890.0, 29.8329
63.568791021, 96.390, 805.0, 28.3725
63.595051586, 96.390, 790.0, 28.1069
63.621312152, 96.390, 853.0, 29.2062
63.647572717, 96.390, 825.0, 28.7228
63.673833282, 96.390, 844.0, 29.0517
63.700093848, 96.390, 818.0, 28.6007
63.726354413, 96.390, 863.0, 29.3769
63.752614978, 96.390, 815.0, 28.5482
63.778875544, 96.390, 795.0, 28.1957
63.805136109, 96.390, 865.0, 29.4109
63.831396674, 96.390, 832.0, 28.8444
63.857657240, 96.390, 867.0, 29.4449
63.883917805, 96.390, 894.0, 29.8998
63.910178370, 96.390, 872.0, 29.5296
63.936438936, 96.390, 830.0, 28.8097
63.962699501, 96.390, 848.0, 29.1204
63.988960067, 96.390, 790.0, 28.1069
64.015220632, 96.390, 866.0, 29.4279
64.041481197, 96.390, 826.0, 28.7402
64.067741763, 96.390, 907.0, 30.1164
64.094002328, 96.390, 832.0, 28.8444
64.120262893, 96.390, 878.0, 29.6311
64.146523459, 96.390, 877.0, 29.6142
64.172784024, 96.390, 836.0, 28.9137
64.199044589, 96.390, 779.0, 27.9106
64.225305155, 96.390, 827.0, 28.7576
64.251565720, 96.390, 852.0, 29.1890
64.277826285, 96.390, 791.0, 28.1247
64.304086851, 96.390, 796.0, 28.2135
64.330347416, 96.390, 808.0, 28.4253
64.356607981, 96.390, 839.0, 28.9655
64.382868547, 96.390, 785.0, 28.0179
64.409129112, 96.390, 789.0, 28.0891
64.435389678, 96.390, 850.0, 29.1548
64.461650243, 96.390, 739.0, 27.1846
64.487910808, 96.390, 797.0, 28.2312
64.514171374, 96.390, 831.0, 28.8271
64.540431939, 96.390, 826.0, 28.7402
64.566692504, 96.390, 805.0, 28.3725
64.592953070, 96.390, 793.0, 28.1603
64.619213635, 96.390, 815.0, 28.5482
64.645474200, 96.390, 821.0, 28.6531
64.671734766, 96.390, 843.0, 29.0345
64.697995331, 96.390, 818.0, 28.6007
64.724255896, 96.390, 794.0, 28.1780
64.750516462, 96.390, 777.0, 27.8747
64.776777027, 96.390, 793.0, 28.1603
64.803037593, 96.390, 786.0, 28.0357
64.829298158, 96.390, 826.0, 28.7402
64.855558723, 96.390, 776.0, 27.8568
64.881819289, 96.390, 758.0, 27.5318
64.908079854, 96.390, 766.0, 27.6767
64.934340419, 96.390, 785.0, 28.0179
64.960600985, 96.390, 777.0, 27.8747
64.986861550, 96.390, 736.0, 27.1293
