[Measurement conditions]
Sample identification,XRD_SiAxialnul_Act03May22_B1_0833M_NaOH_LS0152_1
Comment - 1,"Configuration=Stage for Flat Samples/Holders, Owner=User-1, Creation date=7/1/2020 9:53:24 AM"
Comment - 2,"Goniometer=Theta/Theta; Minimum step size 2Theta:0.0001; Minimum step size Omega:0.0001"
Comment - 3,"Sample stage=Stage for flat samples/holders"
Comment - 4,"Diffractometer system=EMPYREAN"
Comment - 5,"Measurement program=C:\Users\ibo5034\OneDrive - The Pennsylvania State University\NEUP\Zerobackground scan.xrdmp, Identifier={98A3B11C-88F9-4AA6-982C-73314A311EF5}"
Anode material,Cu
K-Alpha1 wavelength,1.5405980
K-Alpha2 wavelength,1.5444260
Ratio K-Alpha2/K-Alpha1,0.500
Divergence slit,Fixed,0.25
Monochromator used,NO
Generator voltage, 45
Tube current, 40
File date and time,03/Jun/2022 13:49
Unit cell,
h k l, 0 0 0
Scan axis,Gonio
Scan range,4.994599997,64.999991833
Scan step size,0.0262606
No. of points, 2285
Scan type,CONTINUOUS
Time per step,96.390
[Scan points]
Angle, TimePerStep, Intensity, ESD
5.007730280, 96.390, 4115.0, 64.1483
5.033990845, 96.390, 4107.0, 64.0859
5.060251411, 96.390, 4058.0, 63.7024
5.086511976, 96.390, 4106.0, 64.0781
5.112772541, 96.390, 4026.0, 63.4508
5.139033107, 96.390, 3976.0, 63.0555
5.165293672, 96.390, 3853.0, 62.0725
5.191554237, 96.390, 4001.0, 63.2535
5.217814803, 96.390, 3776.0, 61.4492
5.244075368, 96.390, 3897.0, 62.4260
5.270335934, 96.390, 3881.0, 62.2977
5.296596499, 96.390, 3822.0, 61.8223
5.322857064, 96.390, 3995.0, 63.2060
5.349117630, 96.390, 3780.0, 61.4817
5.375378195, 96.390, 3862.0, 62.1450
5.401638760, 96.390, 3828.0, 61.8708
5.427899326, 96.390, 3921.0, 62.6179
5.454159891, 96.390, 3798.0, 61.6279
5.480420456, 96.390, 3729.0, 61.0655
5.506681022, 96.390, 3772.0, 61.4166
5.532941587, 96.390, 3815.0, 61.7657
5.559202152, 96.390, 3719.0, 60.9836
5.585462718, 96.390, 3635.0, 60.2910
5.611723283, 96.390, 3735.0, 61.1146
5.637983849, 96.390, 3765.0, 61.3596
5.664244414, 96.390, 3640.0, 60.3324
5.690504979, 96.390, 3688.0, 60.7289
5.716765545, 96.390, 3762.0, 61.3351
5.743026110, 96.390, 3802.0, 61.6604
5.769286675, 96.390, 3576.0, 59.7997
5.795547241, 96.390, 3599.0, 59.9917
5.821807806, 96.390, 3591.0, 59.9250
5.848068371, 96.390, 3660.0, 60.4979
5.874328937, 96.390, 3619.0, 60.1581
5.900589502, 96.390, 3650.0, 60.4152
5.926850067, 96.390, 3711.0, 60.9180
5.953110633, 96.390, 3577.0, 59.8080
5.979371198, 96.390, 3447.0, 58.7112
6.005631763, 96.390, 3538.0, 59.4811
6.031892329, 96.390, 3622.0, 60.1831
6.058152894, 96.390, 3558.0, 59.6490
6.084413460, 96.390, 3520.0, 59.3296
6.110674025, 96.390, 3518.0, 59.3127
6.136934590, 96.390, 3558.0, 59.6490
6.163195156, 96.390, 3562.0, 59.6825
6.189455721, 96.390, 3421.0, 58.4893
6.215716286, 96.390, 3522.0, 59.3464
6.241976852, 96.390, 3589.0, 59.9083
6.268237417, 96.390, 3563.0, 59.6909
6.294497982, 96.390, 3493.0, 59.1016
6.320758548, 96.390, 3494.0, 59.1101
6.347019113, 96.390, 3414.0, 58.4294
6.373279678, 96.390, 3547.0, 59.5567
6.399540244, 96.390, 3501.0, 59.1692
6.425800809, 96.390, 3478.0, 58.9746
6.452061375, 96.390, 3408.0, 58.3781
6.478321940, 96.390, 3517.0, 59.3043
6.504582505, 96.390, 3464.0, 58.8558
6.530843071, 96.390, 3530.0, 59.4138
6.557103636, 96.390, 3450.0, 58.7367
6.583364201, 96.390, 3473.0, 58.9322
6.609624767, 96.390, 3517.0, 59.3043
6.635885332, 96.390, 3447.0, 58.7112
6.662145897, 96.390, 3454.0, 58.7707
6.688406463, 96.390, 3464.0, 58.8558
6.714667028, 96.390, 3267.0, 57.1577
6.740927593, 96.390, 3554.0, 59.6154
6.767188159, 96.390, 3387.0, 58.1979
6.793448724, 96.390, 3358.0, 57.9483
6.819709289, 96.390, 3406.0, 58.3609
6.845969855, 96.390, 3431.0, 58.5747
6.872230420, 96.390, 3448.0, 58.7197
6.898490986, 96.390, 3476.0, 58.9576
6.924751551, 96.390, 3415.0, 58.4380
6.951012116, 96.390, 3466.0, 58.8727
6.977272682, 96.390, 3428.0, 58.5491
7.003533247, 96.390, 3457.0, 58.7963
7.029793812, 96.390, 3434.0, 58.6003
7.056054378, 96.390, 3449.0, 58.7282
7.082314943, 96.390, 3494.0, 59.1101
7.108575508, 96.390, 3412.0, 58.4123
7.134836074, 96.390, 3439.0, 58.6430
7.161096639, 96.390, 3407.0, 58.3695
7.187357204, 96.390, 3490.0, 59.0762
7.213617770, 96.390, 3449.0, 58.7282
7.239878335, 96.390, 3456.0, 58.7878
7.266138900, 96.390, 3457.0, 58.7963
7.292399466, 96.390, 3454.0, 58.7707
7.318660031, 96.390, 3443.0, 58.6771
7.344920597, 96.390, 3453.0, 58.7622
7.371181162, 96.390, 3361.0, 57.9741
7.397441727, 96.390, 3427.0, 58.5406
7.423702293, 96.390, 3455.0, 58.7792
7.449962858, 96.390, 3436.0, 58.6174
7.476223423, 96.390, 3386.0, 58.1893
7.502483989, 96.390, 3462.0, 58.8388
7.528744554, 96.390, 3461.0, 58.8303
7.555005119, 96.390, 3471.0, 58.9152
7.581265685, 96.390, 3454.0, 58.7707
7.607526250, 96.390, 3457.0, 58.7963
7.633786815, 96.390, 3477.0, 58.9661
7.660047381, 96.390, 3450.0, 58.7367
7.686307946, 96.390, 3382.0, 58.1550
7.712568512, 96.390, 3465.0, 58.8643
7.738829077, 96.390, 3466.0, 58.8727
7.765089642, 96.390, 3491.0, 59.0847
7.791350208, 96.390, 3421.0, 58.4893
7.817610773, 96.390, 3430.0, 58.5662
7.843871338, 96.390, 3381.0, 58.1464
7.870131904, 96.390, 3486.0, 59.0424
7.896392469, 96.390, 3394.0, 58.2580
7.922653034, 96.390, 3478.0, 58.9746
7.948913600, 96.390, 3542.0, 59.5147
7.975174165, 96.390, 3454.0, 58.7707
8.001434730, 96.390, 3380.0, 58.1378
8.027695296, 96.390, 3440.0, 58.6515
8.053955861, 96.390, 3479.0, 58.9830
8.080216426, 96.390, 3507.0, 59.2199
8.106476992, 96.390, 3461.0, 58.8303
8.132737557, 96.390, 3463.0, 58.8473
8.158998123, 96.390, 3539.0, 59.4895
8.185258688, 96.390, 3524.0, 59.3633
8.211519253, 96.390, 3451.0, 58.7452
8.237779819, 96.390, 3477.0, 58.9661
8.264040384, 96.390, 3372.0, 58.0689
8.290300949, 96.390, 3489.0, 59.0678
8.316561515, 96.390, 3439.0, 58.6430
8.342822080, 96.390, 3394.0, 58.2580
8.369082645, 96.390, 3532.0, 59.4306
8.395343211, 96.390, 3411.0, 58.4038
8.421603776, 96.390, 3402.0, 58.3267
8.447864341, 96.390, 3404.0, 58.3438
8.474124907, 96.390, 3363.0, 57.9914
8.500385472, 96.390, 3452.0, 58.7537
8.526646038, 96.390, 3578.0, 59.8164
8.552906603, 96.390, 3368.0, 58.0345
8.579167168, 96.390, 3442.0, 58.6686
8.605427734, 96.390, 3434.0, 58.6003
8.631688299, 96.390, 3351.0, 57.8878
8.657948864, 96.390, 3468.0, 58.8897
8.684209430, 96.390, 3459.0, 58.8133
8.710469995, 96.390, 3369.0, 58.0431
8.736730560, 96.390, 3469.0, 58.8982
8.762991126, 96.390, 3330.0, 57.7062
8.789251691, 96.390, 3303.0, 57.4717
8.815512256, 96.390, 3314.0, 57.5674
8.841772822, 96.390, 3340.0, 57.7927
8.868033387, 96.390, 3309.0, 57.5239
8.894293952, 96.390, 3369.0, 58.0431
8.920554518, 96.390, 3292.0, 57.3760
8.946815083, 96.390, 3283.0, 57.2975
8.973075649, 96.390, 3310.0, 57.5326
8.999336214, 96.390, 3326.0, 57.6715
9.025596779, 96.390, 3345.0, 57.8360
9.051857345, 96.390, 3340.0, 57.7927
9.078117910, 96.390, 3260.0, 57.0964
9.104378475, 96.390, 3332.0, 57.7235
9.130639041, 96.390, 3239.0, 56.9122
9.156899606, 96.390, 3228.0, 56.8155
9.183160171, 96.390, 3235.0, 56.8771
9.209420737, 96.390, 3199.0, 56.5597
9.235681302, 96.390, 3203.0, 56.5951
9.261941867, 96.390, 3141.0, 56.0446
9.288202433, 96.390, 3160.0, 56.2139
9.314462998, 96.390, 3169.0, 56.2939
9.340723564, 96.390, 3210.0, 56.6569
9.366984129, 96.390, 3160.0, 56.2139
9.393244694, 96.390, 3149.0, 56.1160
9.419505260, 96.390, 3094.0, 55.6237
9.445765825, 96.390, 3070.0, 55.4076
9.472026390, 96.390, 3073.0, 55.4346
9.498286956, 96.390, 3184.0, 56.4269
9.524547521, 96.390, 3139.0, 56.0268
9.550808086, 96.390, 3097.0, 55.6507
9.577068652, 96.390, 3087.0, 55.5608
9.603329217, 96.390, 3087.0, 55.5608
9.629589782, 96.390, 3126.0, 55.9106
9.655850348, 96.390, 3043.0, 55.1634
9.682110913, 96.390, 2982.0, 54.6077
9.708371478, 96.390, 3048.0, 55.2087
9.734632044, 96.390, 3112.0, 55.7853
9.760892609, 96.390, 3056.0, 55.2811
9.787153175, 96.390, 3035.0, 55.0908
9.813413740, 96.390, 3153.0, 56.1516
9.839674305, 96.390, 2945.0, 54.2679
9.865934871, 96.390, 3048.0, 55.2087
9.892195436, 96.390, 3147.0, 56.0981
9.918456001, 96.390, 2978.0, 54.5711
9.944716567, 96.390, 3070.0, 55.4076
9.970977132, 96.390, 3085.0, 55.5428
9.997237697, 96.390, 3142.0, 56.0535
10.023498263, 96.390, 3108.0, 55.7494
10.049758828, 96.390, 3070.0, 55.4076
10.076019393, 96.390, 3032.0, 55.0636
10.102279959, 96.390, 3063.0, 55.3444
10.128540524, 96.390, 3134.0, 55.9821
10.154801090, 96.390, 2995.0, 54.7266
10.181061655, 96.390, 2977.0, 54.5619
10.207322220, 96.390, 2957.0, 54.3783
10.233582786, 96.390, 3043.0, 55.1634
10.259843351, 96.390, 3095.0, 55.6327
10.286103916, 96.390, 2966.0, 54.4610
10.312364482, 96.390, 2925.0, 54.0833
10.338625047, 96.390, 3091.0, 55.5968
10.364885612, 96.390, 3053.0, 55.2540
10.391146178, 96.390, 3133.0, 55.9732
10.417406743, 96.390, 3439.0, 58.6430
10.443667308, 96.390, 3608.0, 60.0666
10.469927874, 96.390, 3453.0, 58.7622
10.496188439, 96.390, 3217.0, 56.7186
10.522449004, 96.390, 2949.0, 54.3047
10.548709570, 96.390, 2993.0, 54.7083
10.574970135, 96.390, 2848.0, 53.3667
10.601230701, 96.390, 2920.0, 54.0370
10.627491266, 96.390, 2968.0, 54.4794
10.653751831, 96.390, 2960.0, 54.4059
10.680012397, 96.390, 2816.0, 53.0660
10.706272962, 96.390, 2873.0, 53.6004
10.732533527, 96.390, 2831.0, 53.2071
10.758794093, 96.390, 2919.0, 54.0278
10.785054658, 96.390, 2896.0, 53.8145
10.811315223, 96.390, 2945.0, 54.2679
10.837575789, 96.390, 2772.0, 52.6498
10.863836354, 96.390, 2901.0, 53.8609
10.890096919, 96.390, 3010.0, 54.8635
10.916357485, 96.390, 2984.0, 54.6260
10.942618050, 96.390, 3108.0, 55.7494
10.968878616, 96.390, 3520.0, 59.3296
10.995139181, 96.390, 3759.0, 61.3107
11.021399746, 96.390, 3526.0, 59.3801
11.047660312, 96.390, 3267.0, 57.1577
11.073920877, 96.390, 2921.0, 54.0463
11.100181442, 96.390, 2777.0, 52.6972
11.126442008, 96.390, 2766.0, 52.5928
11.152702573, 96.390, 2734.0, 52.2877
11.178963138, 96.390, 2707.0, 52.0288
11.205223704, 96.390, 2730.0, 52.2494
11.231484269, 96.390, 2847.0, 53.3573
11.257744834, 96.390, 2700.0, 51.9615
11.284005400, 96.390, 2795.0, 52.8678
11.310265965, 96.390, 2732.0, 52.2685
11.336526530, 96.390, 2742.0, 52.3641
11.362787096, 96.390, 2753.0, 52.4690
11.389047661, 96.390, 2803.0, 52.9434
11.415308227, 96.390, 2651.0, 51.4879
11.441568792, 96.390, 2740.0, 52.3450
11.467829357, 96.390, 2716.0, 52.1153
11.494089923, 96.390, 2669.0, 51.6624
11.520350488, 96.390, 2692.0, 51.8845
11.546611053, 96.390, 2734.0, 52.2877
11.572871619, 96.390, 2701.0, 51.9711
11.599132184, 96.390, 2744.0, 52.3832
11.625392749, 96.390, 2604.0, 51.0294
11.651653315, 96.390, 2525.0, 50.2494
11.677913880, 96.390, 2716.0, 52.1153
11.704174445, 96.390, 2658.0, 51.5558
11.730435011, 96.390, 2583.0, 50.8232
11.756695576, 96.390, 2578.0, 50.7740
11.782956141, 96.390, 2604.0, 51.0294
11.809216707, 96.390, 2632.0, 51.3030
11.835477272, 96.390, 2677.0, 51.7397
11.861737838, 96.390, 2556.0, 50.5569
11.887998403, 96.390, 2606.0, 51.0490
11.914258968, 96.390, 2628.0, 51.2640
11.940519534, 96.390, 2645.0, 51.4296
11.966780099, 96.390, 2482.0, 49.8197
11.993040664, 96.390, 2612.0, 51.1077
12.019301230, 96.390, 2604.0, 51.0294
12.045561795, 96.390, 2526.0, 50.2593
12.071822360, 96.390, 2523.0, 50.2295
12.098082926, 96.390, 2511.0, 50.1099
12.124343491, 96.390, 2471.0, 49.7092
12.150604056, 96.390, 2562.0, 50.6162
12.176864622, 96.390, 2498.0, 49.9800
12.203125187, 96.390, 2573.0, 50.7247
12.229385753, 96.390, 2558.0, 50.5767
12.255646318, 96.390, 2551.0, 50.5074
12.281906883, 96.390, 2444.0, 49.4368
12.308167449, 96.390, 2463.0, 49.6286
12.334428014, 96.390, 2538.0, 50.3786
12.360688579, 96.390, 2491.0, 49.9099
12.386949145, 96.390, 2385.0, 48.8365
12.413209710, 96.390, 2519.0, 50.1896
12.439470275, 96.390, 2468.0, 49.6790
12.465730841, 96.390, 2523.0, 50.2295
12.491991406, 96.390, 2524.0, 50.2394
12.518251971, 96.390, 2501.0, 50.0100
12.544512537, 96.390, 2542.0, 50.4183
12.570773102, 96.390, 2421.0, 49.2037
12.597033667, 96.390, 2363.0, 48.6107
12.623294233, 96.390, 2306.0, 48.0208
12.649554798, 96.390, 2348.0, 48.4562
12.675815364, 96.390, 2493.0, 49.9300
12.702075929, 96.390, 2463.0, 49.6286
12.728336494, 96.390, 2447.0, 49.4672
12.754597060, 96.390, 2330.0, 48.2701
12.780857625, 96.390, 2409.0, 49.0816
12.807118190, 96.390, 2419.0, 49.1833
12.833378756, 96.390, 2397.0, 48.9592
12.859639321, 96.390, 2305.0, 48.0104
12.885899886, 96.390, 2504.0, 50.0400
12.912160452, 96.390, 2407.0, 49.0612
12.938421017, 96.390, 2452.0, 49.5177
12.964681582, 96.390, 2363.0, 48.6107
12.990942148, 96.390, 2378.0, 48.7647
13.017202713, 96.390, 2397.0, 48.9592
13.043463279, 96.390, 2420.0, 49.1935
13.069723844, 96.390, 2422.0, 49.2138
13.095984409, 96.390, 2242.0, 47.3498
13.122244975, 96.390, 2343.0, 48.4045
13.148505540, 96.390, 2389.0, 48.8774
13.174766105, 96.390, 2406.0, 49.0510
13.201026671, 96.390, 2322.0, 48.1871
13.227287236, 96.390, 2404.0, 49.0306
13.253547801, 96.390, 2260.0, 47.5395
13.279808367, 96.390, 2384.0, 48.8262
13.306068932, 96.390, 2382.0, 48.8057
13.332329497, 96.390, 2399.0, 48.9796
13.358590063, 96.390, 2368.0, 48.6621
13.384850628, 96.390, 2268.0, 47.6235
13.411111193, 96.390, 2348.0, 48.4562
13.437371759, 96.390, 2336.0, 48.3322
13.463632324, 96.390, 2316.0, 48.1248
13.489892890, 96.390, 2405.0, 49.0408
13.516153455, 96.390, 2414.0, 49.1325
13.542414020, 96.390, 2387.0, 48.8569
13.568674586, 96.390, 2357.0, 48.5489
13.594935151, 96.390, 2428.0, 49.2747
13.621195716, 96.390, 2385.0, 48.8365
13.647456282, 96.390, 2446.0, 49.4571
13.673716847, 96.390, 2547.0, 50.4678
13.699977412, 96.390, 2635.0, 51.3323
13.726237978, 96.390, 2699.0, 51.9519
13.752498543, 96.390, 2916.0, 54.0000
13.778759108, 96.390, 3287.0, 57.3324
13.805019674, 96.390, 3314.0, 57.5674
13.831280239, 96.390, 3076.0, 55.4617
13.857540805, 96.390, 2522.0, 50.2195
13.883801370, 96.390, 2342.0, 48.3942
13.910061935, 96.390, 2395.0, 48.9387
13.936322501, 96.390, 2364.0, 48.6210
13.962583066, 96.390, 2386.0, 48.8467
13.988843631, 96.390, 2320.0, 48.1664
14.015104197, 96.390, 2311.0, 48.0729
14.041364762, 96.390, 2317.0, 48.1352
14.067625327, 96.390, 2457.0, 49.5681
14.093885893, 96.390, 2498.0, 49.9800
14.120146458, 96.390, 2397.0, 48.9592
14.146407023, 96.390, 2445.0, 49.4469
14.172667589, 96.390, 2607.0, 51.0588
14.198928154, 96.390, 2797.0, 52.8867
14.225188719, 96.390, 3322.0, 57.6368
14.251449285, 96.390, 4197.0, 64.7843
14.277709850, 96.390, 6234.0, 78.9557
14.303970416, 96.390, 6457.0, 80.3555
14.330230981, 96.390, 4440.0, 66.6333
14.356491546, 96.390, 2733.0, 52.2781
14.382752112, 96.390, 2316.0, 48.1248
14.409012677, 96.390, 2356.0, 48.5386
14.435273242, 96.390, 2399.0, 48.9796
14.461533808, 96.390, 2351.0, 48.4871
14.487794373, 96.390, 2378.0, 48.7647
14.514054938, 96.390, 2376.0, 48.7442
14.540315504, 96.390, 2483.0, 49.8297
14.566576069, 96.390, 2373.0, 48.7134
14.592836634, 96.390, 2235.0, 47.2758
14.619097200, 96.390, 2234.0, 47.2652
14.645357765, 96.390, 2277.0, 47.7179
14.671618331, 96.390, 2263.0, 47.5710
14.697878896, 96.390, 2226.0, 47.1805
14.724139461, 96.390, 2187.0, 46.7654
14.750400027, 96.390, 2171.0, 46.5940
14.776660592, 96.390, 2173.0, 46.6154
14.802921157, 96.390, 2198.0, 46.8828
14.829181723, 96.390, 2183.0, 46.7226
14.855442288, 96.390, 2278.0, 47.7284
14.881702853, 96.390, 2334.0, 48.3115
14.907963419, 96.390, 2215.0, 47.0638
14.934223984, 96.390, 2236.0, 47.2864
14.960484549, 96.390, 2203.0, 46.9361
14.986745115, 96.390, 2187.0, 46.7654
15.013005680, 96.390, 2183.0, 46.7226
15.039266245, 96.390, 2281.0, 47.7598
15.065526811, 96.390, 2226.0, 47.1805
15.091787376, 96.390, 2178.0, 46.6690
15.118047942, 96.390, 2209.0, 47.0000
15.144308507, 96.390, 2299.0, 47.9479
15.170569072, 96.390, 2427.0, 49.2646
15.196829638, 96.390, 2386.0, 48.8467
15.223090203, 96.390, 2354.0, 48.5180
15.249350768, 96.390, 2321.0, 48.1768
15.275611334, 96.390, 2451.0, 49.5076
15.301871899, 96.390, 2215.0, 47.0638
15.328132464, 96.390, 2286.0, 47.8121
15.354393030, 96.390, 2246.0, 47.3920
15.380653595, 96.390, 2275.0, 47.6970
15.406914160, 96.390, 2245.0, 47.3814
15.433174726, 96.390, 2260.0, 47.5395
15.459435291, 96.390, 2277.0, 47.7179
15.485695857, 96.390, 2226.0, 47.1805
15.511956422, 96.390, 2151.0, 46.3789
15.538216987, 96.390, 2261.0, 47.5500
15.564477553, 96.390, 2263.0, 47.5710
15.590738118, 96.390, 2292.0, 47.8748
15.616998683, 96.390, 2254.0, 47.4763
15.643259249, 96.390, 2303.0, 47.9896
15.669519814, 96.390, 2236.0, 47.2864
15.695780379, 96.390, 2251.0, 47.4447
15.722040945, 96.390, 2330.0, 48.2701
15.748301510, 96.390, 2217.0, 47.0850
15.774562075, 96.390, 2203.0, 46.9361
15.800822641, 96.390, 2300.0, 47.9583
15.827083206, 96.390, 2369.0, 48.6724
15.853343771, 96.390, 2240.0, 47.3286
15.879604337, 96.390, 2278.0, 47.7284
15.905864902, 96.390, 2336.0, 48.3322
15.932125468, 96.390, 2245.0, 47.3814
15.958386033, 96.390, 2250.0, 47.4342
15.984646598, 96.390, 2372.0, 48.7032
16.010907164, 96.390, 2340.0, 48.3735
16.037167729, 96.390, 2334.0, 48.3115
16.063428294, 96.390, 2351.0, 48.4871
16.089688860, 96.390, 2320.0, 48.1664
16.115949425, 96.390, 2213.0, 47.0425
16.142209990, 96.390, 2205.0, 46.9574
16.168470556, 96.390, 2274.0, 47.6865
16.194731121, 96.390, 2285.0, 47.8017
16.220991686, 96.390, 2247.0, 47.4025
16.247252252, 96.390, 2441.0, 49.4065
16.273512817, 96.390, 2291.0, 47.8644
16.299773382, 96.390, 2468.0, 49.6790
16.326033948, 96.390, 2407.0, 49.0612
16.352294513, 96.390, 2400.0, 48.9898
16.378555079, 96.390, 2422.0, 49.2138
16.404815644, 96.390, 2289.0, 47.8435
16.431076209, 96.390, 2284.0, 47.7912
16.457336775, 96.390, 2325.0, 48.2183
16.483597340, 96.390, 2271.0, 47.6550
16.509857905, 96.390, 2291.0, 47.8644
16.536118471, 96.390, 2304.0, 48.0000
16.562379036, 96.390, 2369.0, 48.6724
16.588639601, 96.390, 2260.0, 47.5395
16.614900167, 96.390, 2286.0, 47.8121
16.641160732, 96.390, 2218.0, 47.0956
16.667421297, 96.390, 2320.0, 48.1664
16.693681863, 96.390, 2304.0, 48.0000
16.719942428, 96.390, 2267.0, 47.6130
16.746202994, 96.390, 2272.0, 47.6655
16.772463559, 96.390, 2439.0, 49.3862
16.798724124, 96.390, 2233.0, 47.2546
16.824984690, 96.390, 2296.0, 47.9166
16.851245255, 96.390, 2380.0, 48.7852
16.877505820, 96.390, 2358.0, 48.5592
16.903766386, 96.390, 2419.0, 49.1833
16.930026951, 96.390, 2560.0, 50.5964
16.956287516, 96.390, 2501.0, 50.0100
16.982548082, 96.390, 2395.0, 48.9387
17.008808647, 96.390, 2373.0, 48.7134
17.035069212, 96.390, 2231.0, 47.2335
17.061329778, 96.390, 2200.0, 46.9042
17.087590343, 96.390, 2310.0, 48.0625
17.113850908, 96.390, 2271.0, 47.6550
17.140111474, 96.390, 2355.0, 48.5283
17.166372039, 96.390, 2174.0, 46.6262
17.192632605, 96.390, 2278.0, 47.7284
17.218893170, 96.390, 2208.0, 46.9894
17.245153735, 96.390, 2259.0, 47.5289
17.271414301, 96.390, 2419.0, 49.1833
17.297674866, 96.390, 2402.0, 49.0102
17.323935431, 96.390, 2435.0, 49.3457
17.350195997, 96.390, 2462.0, 49.6185
17.376456562, 96.390, 2539.0, 50.3885
17.402717127, 96.390, 2630.0, 51.2835
17.428977693, 96.390, 2557.0, 50.5668
17.455238258, 96.390, 2453.0, 49.5278
17.481498823, 96.390, 2413.0, 49.1223
17.507759389, 96.390, 2308.0, 48.0416
17.534019954, 96.390, 2255.0, 47.4868
17.560280520, 96.390, 2229.0, 47.2123
17.586541085, 96.390, 2117.0, 46.0109
17.612801650, 96.390, 2262.0, 47.5605
17.639062216, 96.390, 2190.0, 46.7974
17.665322781, 96.390, 2214.0, 47.0532
17.691583346, 96.390, 2174.0, 46.6262
17.717843912, 96.390, 2257.0, 47.5079
17.744104477, 96.390, 2075.0, 45.5522
17.770365042, 96.390, 2196.0, 46.8615
17.796625608, 96.390, 2196.0, 46.8615
17.822886173, 96.390, 2153.0, 46.4004
17.849146738, 96.390, 2186.0, 46.7547
17.875407304, 96.390, 2110.0, 45.9347
17.901667869, 96.390, 2139.0, 46.2493
17.927928434, 96.390, 2101.0, 45.8367
17.954189000, 96.390, 2137.0, 46.2277
17.980449565, 96.390, 2135.0, 46.2061
18.006710131, 96.390, 2155.0, 46.4220
18.032970696, 96.390, 2226.0, 47.1805
18.059231261, 96.390, 2241.0, 47.3392
18.085491827, 96.390, 2370.0, 48.6826
18.111752392, 96.390, 2388.0, 48.8672
18.138012957, 96.390, 2364.0, 48.6210
18.164273523, 96.390, 2403.0, 49.0204
18.190534088, 96.390, 2281.0, 47.7598
18.216794653, 96.390, 2421.0, 49.2037
18.243055219, 96.390, 2591.0, 50.9019
18.269315784, 96.390, 2620.0, 51.1859
18.295576349, 96.390, 2850.0, 53.3854
18.321836915, 96.390, 2689.0, 51.8556
18.348097480, 96.390, 2551.0, 50.5074
18.374358046, 96.390, 2499.0, 49.9900
18.400618611, 96.390, 2603.0, 51.0196
18.426879176, 96.390, 2742.0, 52.3641
18.453139742, 96.390, 2874.0, 53.6097
18.479400307, 96.390, 2611.0, 51.0979
18.505660872, 96.390, 2445.0, 49.4469
18.531921438, 96.390, 2146.0, 46.3249
18.558182003, 96.390, 2132.0, 46.1736
18.584442568, 96.390, 2083.0, 45.6399
18.610703134, 96.390, 2181.0, 46.7012
18.636963699, 96.390, 2132.0, 46.1736
18.663224264, 96.390, 2084.0, 45.6508
18.689484830, 96.390, 2121.0, 46.0543
18.715745395, 96.390, 2091.0, 45.7275
18.742005960, 96.390, 2115.0, 45.9891
18.768266526, 96.390, 2221.0, 47.1275
18.794527091, 96.390, 2248.0, 47.4131
18.820787657, 96.390, 2211.0, 47.0213
18.847048222, 96.390, 2351.0, 48.4871
18.873308787, 96.390, 2396.0, 48.9490
18.899569353, 96.390, 2332.0, 48.2908
18.925829918, 96.390, 2594.0, 50.9313
18.952090483, 96.390, 2677.0, 51.7397
18.978351049, 96.390, 2726.0, 52.2111
19.004611614, 96.390, 2793.0, 52.8488
19.030872179, 96.390, 2589.0, 50.8822
19.057132745, 96.390, 2342.0, 48.3942
19.083393310, 96.390, 2207.0, 46.9787
19.109653875, 96.390, 2183.0, 46.7226
19.135914441, 96.390, 2334.0, 48.3115
19.162175006, 96.390, 2231.0, 47.2335
19.188435572, 96.390, 2191.0, 46.8081
19.214696137, 96.390, 2199.0, 46.8935
19.240956702, 96.390, 2182.0, 46.7119
19.267217268, 96.390, 2148.0, 46.3465
19.293477833, 96.390, 2234.0, 47.2652
19.319738398, 96.390, 2266.0, 47.6025
19.345998964, 96.390, 2236.0, 47.2864
19.372259529, 96.390, 2274.0, 47.6865
19.398520094, 96.390, 2336.0, 48.3322
19.424780660, 96.390, 2353.0, 48.5077
19.451041225, 96.390, 2546.0, 50.4579
19.477301790, 96.390, 2607.0, 51.0588
19.503562356, 96.390, 2697.0, 51.9326
19.529822921, 96.390, 2467.0, 49.6689
19.556083486, 96.390, 2388.0, 48.8672
19.582344052, 96.390, 2366.0, 48.6415
19.608604617, 96.390, 2227.0, 47.1911
19.634865183, 96.390, 2448.0, 49.4773
19.661125748, 96.390, 2445.0, 49.4469
19.687386313, 96.390, 2552.0, 50.5173
19.713646879, 96.390, 2675.0, 51.7204
19.739907444, 96.390, 2954.0, 54.3507
19.766168009, 96.390, 3289.0, 57.3498
19.792428575, 96.390, 3357.0, 57.9396
19.818689140, 96.390, 2881.0, 53.6749
19.844949705, 96.390, 2623.0, 51.2152
19.871210271, 96.390, 2445.0, 49.4469
19.897470836, 96.390, 2308.0, 48.0416
19.923731401, 96.390, 2273.0, 47.6760
19.949991967, 96.390, 2352.0, 48.4974
19.976252532, 96.390, 2398.0, 48.9694
20.002513097, 96.390, 2447.0, 49.4672
20.028773663, 96.390, 2319.0, 48.1560
20.055034228, 96.390, 2345.0, 48.4252
20.081294794, 96.390, 2268.0, 47.6235
20.107555359, 96.390, 2248.0, 47.4131
20.133815924, 96.390, 2229.0, 47.2123
20.160076490, 96.390, 2233.0, 47.2546
20.186337055, 96.390, 2378.0, 48.7647
20.212597620, 96.390, 2295.0, 47.9062
20.238858186, 96.390, 2372.0, 48.7032
20.265118751, 96.390, 2546.0, 50.4579
20.291379316, 96.390, 2479.0, 49.7896
20.317639882, 96.390, 2605.0, 51.0392
20.343900447, 96.390, 2782.0, 52.7447
20.370161012, 96.390, 3062.0, 55.3353
20.396421578, 96.390, 3606.0, 60.0500
20.422682143, 96.390, 4126.0, 64.2339
20.448942709, 96.390, 4080.0, 63.8749
20.475203274, 96.390, 3296.0, 57.4108
20.501463839, 96.390, 3169.0, 56.2939
20.527724405, 96.390, 2679.0, 51.7591
20.553984970, 96.390, 2702.0, 51.9808
20.580245535, 96.390, 2904.0, 53.8888
20.606506101, 96.390, 3185.0, 56.4358
20.632766666, 96.390, 2992.0, 54.6992
20.659027231, 96.390, 2900.0, 53.8516
20.685287797, 96.390, 2794.0, 52.8583
20.711548362, 96.390, 2601.0, 51.0000
20.737808927, 96.390, 2621.0, 51.1957
20.764069493, 96.390, 2454.0, 49.5379
20.790330058, 96.390, 2465.0, 49.6488
20.816590623, 96.390, 2447.0, 49.4672
20.842851189, 96.390, 2321.0, 48.1768
20.869111754, 96.390, 2333.0, 48.3011
20.895372320, 96.390, 2274.0, 47.6865
20.921632885, 96.390, 2429.0, 49.2849
20.947893450, 96.390, 2400.0, 48.9898
20.974154016, 96.390, 2646.0, 51.4393
21.000414581, 96.390, 2562.0, 50.6162
21.026675146, 96.390, 2574.0, 50.7346
21.052935712, 96.390, 2414.0, 49.1325
21.079196277, 96.390, 2386.0, 48.8467
21.105456842, 96.390, 2365.0, 48.6313
21.131717408, 96.390, 2335.0, 48.3218
21.157977973, 96.390, 2367.0, 48.6518
21.184238538, 96.390, 2365.0, 48.6313
21.210499104, 96.390, 2419.0, 49.1833
21.236759669, 96.390, 2312.0, 48.0833
21.263020235, 96.390, 2401.0, 49.0000
21.289280800, 96.390, 2434.0, 49.3356
21.315541365, 96.390, 2453.0, 49.5278
21.341801931, 96.390, 2384.0, 48.8262
21.368062496, 96.390, 2320.0, 48.1664
21.394323061, 96.390, 2401.0, 49.0000
21.420583627, 96.390, 2306.0, 48.0208
21.446844192, 96.390, 2345.0, 48.4252
21.473104757, 96.390, 2239.0, 47.3181
21.499365323, 96.390, 2449.0, 49.4874
21.525625888, 96.390, 2278.0, 47.7284
21.551886453, 96.390, 2351.0, 48.4871
21.578147019, 96.390, 2446.0, 49.4571
21.604407584, 96.390, 2448.0, 49.4773
21.630668149, 96.390, 2524.0, 50.2394
21.656928715, 96.390, 2597.0, 50.9608
21.683189280, 96.390, 2579.0, 50.7839
21.709449846, 96.390, 2793.0, 52.8488
21.735710411, 96.390, 2943.0, 54.2494
21.761970976, 96.390, 2697.0, 51.9326
21.788231542, 96.390, 2533.0, 50.3289
21.814492107, 96.390, 2417.0, 49.1630
21.840752672, 96.390, 2299.0, 47.9479
21.867013238, 96.390, 2364.0, 48.6210
21.893273803, 96.390, 2404.0, 49.0306
21.919534368, 96.390, 2357.0, 48.5489
21.945794934, 96.390, 2330.0, 48.2701
21.972055499, 96.390, 2383.0, 48.8160
21.998316064, 96.390, 2367.0, 48.6518
22.024576630, 96.390, 2355.0, 48.5283
22.050837195, 96.390, 2397.0, 48.9592
22.077097761, 96.390, 2502.0, 50.0200
22.103358326, 96.390, 2442.0, 49.4166
22.129618891, 96.390, 2450.0, 49.4975
22.155879457, 96.390, 2404.0, 49.0306
22.182140022, 96.390, 2423.0, 49.2240
22.208400587, 96.390, 2545.0, 50.4480
22.234661153, 96.390, 2395.0, 48.9387
22.260921718, 96.390, 2441.0, 49.4065
22.287182283, 96.390, 2424.0, 49.2341
22.313442849, 96.390, 2466.0, 49.6588
22.339703414, 96.390, 2466.0, 49.6588
22.365963979, 96.390, 2557.0, 50.5668
22.392224545, 96.390, 2496.0, 49.9600
22.418485110, 96.390, 2424.0, 49.2341
22.444745675, 96.390, 2522.0, 50.2195
22.471006241, 96.390, 2469.0, 49.6890
22.497266806, 96.390, 2453.0, 49.5278
22.523527372, 96.390, 2516.0, 50.1597
22.549787937, 96.390, 2610.0, 51.0882
22.576048502, 96.390, 2615.0, 51.1371
22.602309068, 96.390, 2614.0, 51.1273
22.628569633, 96.390, 2586.0, 50.8527
22.654830198, 96.390, 2434.0, 49.3356
22.681090764, 96.390, 2454.0, 49.5379
22.707351329, 96.390, 2493.0, 49.9300
22.733611894, 96.390, 2439.0, 49.3862
22.759872460, 96.390, 2451.0, 49.5076
22.786133025, 96.390, 2609.0, 51.0784
22.812393590, 96.390, 2609.0, 51.0784
22.838654156, 96.390, 2699.0, 51.9519
22.864914721, 96.390, 2713.0, 52.0865
22.891175287, 96.390, 2638.0, 51.3615
22.917435852, 96.390, 2613.0, 51.1175
22.943696417, 96.390, 2566.0, 50.6557
22.969956983, 96.390, 2535.0, 50.3488
22.996217548, 96.390, 2535.0, 50.3488
23.022478113, 96.390, 2585.0, 50.8429
23.048738679, 96.390, 2652.0, 51.4976
23.074999244, 96.390, 2712.0, 52.0769
23.101259809, 96.390, 2589.0, 50.8822
23.127520375, 96.390, 2556.0, 50.5569
23.153780940, 96.390, 2805.0, 52.9623
23.180041505, 96.390, 2722.0, 52.1728
23.206302071, 96.390, 2670.0, 51.6720
23.232562636, 96.390, 2674.0, 51.7107
23.258823201, 96.390, 2704.0, 52.0000
23.285083767, 96.390, 2595.0, 50.9411
23.311344332, 96.390, 2488.0, 49.8799
23.337604898, 96.390, 2570.0, 50.6952
23.363865463, 96.390, 2678.0, 51.7494
23.390126028, 96.390, 2729.0, 52.2398
23.416386594, 96.390, 2746.0, 52.4023
23.442647159, 96.390, 2889.0, 53.7494
23.468907724, 96.390, 3051.0, 55.2359
23.495168290, 96.390, 3818.0, 61.7900
23.521428855, 96.390, 4058.0, 63.7024
23.547689420, 96.390, 3549.0, 59.5735
23.573949986, 96.390, 3355.0, 57.9224
23.600210551, 96.390, 2827.0, 53.1695
23.626471116, 96.390, 2578.0, 50.7740
23.652731682, 96.390, 2593.0, 50.9215
23.678992247, 96.390, 2677.0, 51.7397
23.705252813, 96.390, 2517.0, 50.1697
23.731513378, 96.390, 2605.0, 51.0392
23.757773943, 96.390, 2509.0, 50.0899
23.784034509, 96.390, 2540.0, 50.3984
23.810295074, 96.390, 2490.0, 49.8999
23.836555639, 96.390, 2612.0, 51.1077
23.862816205, 96.390, 2447.0, 49.4672
23.889076770, 96.390, 2538.0, 50.3786
23.915337335, 96.390, 2453.0, 49.5278
23.941597901, 96.390, 2593.0, 50.9215
23.967858466, 96.390, 2498.0, 49.9800
23.994119031, 96.390, 2494.0, 49.9400
24.020379597, 96.390, 2575.0, 50.7445
24.046640162, 96.390, 2613.0, 51.1175
24.072900727, 96.390, 2749.0, 52.4309
24.099161293, 96.390, 2803.0, 52.9434
24.125421858, 96.390, 2771.0, 52.6403
24.151682424, 96.390, 2914.0, 53.9815
24.177942989, 96.390, 3076.0, 55.4617
24.204203554, 96.390, 3132.0, 55.9643
24.230464120, 96.390, 3368.0, 58.0345
24.256724685, 96.390, 3503.0, 59.1861
24.282985250, 96.390, 3435.0, 58.6089
24.309245816, 96.390, 3220.0, 56.7450
24.335506381, 96.390, 3123.0, 55.8838
24.361766946, 96.390, 2751.0, 52.4500
24.388027512, 96.390, 2660.0, 51.5752
24.414288077, 96.390, 2518.0, 50.1797
24.440548642, 96.390, 2601.0, 51.0000
24.466809208, 96.390, 2595.0, 50.9411
24.493069773, 96.390, 2650.0, 51.4782
24.519330338, 96.390, 2923.0, 54.0648
24.545590904, 96.390, 3214.0, 56.6922
24.571851469, 96.390, 3369.0, 58.0431
24.598112035, 96.390, 2997.0, 54.7449
24.624372600, 96.390, 2900.0, 53.8516
24.650633165, 96.390, 2793.0, 52.8488
24.676893731, 96.390, 2593.0, 50.9215
24.703154296, 96.390, 2476.0, 49.7594
24.729414861, 96.390, 2468.0, 49.6790
24.755675427, 96.390, 2517.0, 50.1697
24.781935992, 96.390, 2476.0, 49.7594
24.808196557, 96.390, 2462.0, 49.6185
24.834457123, 96.390, 2466.0, 49.6588
24.860717688, 96.390, 2542.0, 50.4183
24.886978253, 96.390, 2419.0, 49.1833
24.913238819, 96.390, 2406.0, 49.0510
24.939499384, 96.390, 2454.0, 49.5379
24.965759950, 96.390, 2487.0, 49.8698
24.992020515, 96.390, 2527.0, 50.2693
25.018281080, 96.390, 2558.0, 50.5767
25.044541646, 96.390, 2514.0, 50.1398
25.070802211, 96.390, 2495.0, 49.9500
25.097062776, 96.390, 2385.0, 48.8365
25.123323342, 96.390, 2452.0, 49.5177
25.149583907, 96.390, 2438.0, 49.3761
25.175844472, 96.390, 2558.0, 50.5767
25.202105038, 96.390, 2391.0, 48.8979
25.228365603, 96.390, 2410.0, 49.0918
25.254626168, 96.390, 2455.0, 49.5480
25.280886734, 96.390, 2543.0, 50.4282
25.307147299, 96.390, 2552.0, 50.5173
25.333407864, 96.390, 2551.0, 50.5074
25.359668430, 96.390, 2705.0, 52.0096
25.385928995, 96.390, 2678.0, 51.7494
25.412189561, 96.390, 2902.0, 53.8702
25.438450126, 96.390, 2779.0, 52.7162
25.464710691, 96.390, 2664.0, 51.6140
25.490971257, 96.390, 2541.0, 50.4083
25.517231822, 96.390, 2480.0, 49.7996
25.543492387, 96.390, 2340.0, 48.3735
25.569752953, 96.390, 2553.0, 50.5272
25.596013518, 96.390, 2343.0, 48.4045
25.622274083, 96.390, 2392.0, 48.9081
25.648534649, 96.390, 2380.0, 48.7852
25.674795214, 96.390, 2427.0, 49.2646
25.701055779, 96.390, 2449.0, 49.4874
25.727316345, 96.390, 2325.0, 48.2183
25.753576910, 96.390, 2452.0, 49.5177
25.779837476, 96.390, 2433.0, 49.3254
25.806098041, 96.390, 2584.0, 50.8331
25.832358606, 96.390, 2923.0, 54.0648
25.858619172, 96.390, 3523.0, 59.3549
25.884879737, 96.390, 2807.0, 52.9811
25.911140302, 96.390, 2756.0, 52.4976
25.937400868, 96.390, 2691.0, 51.8748
25.963661433, 96.390, 2487.0, 49.8698
25.989921998, 96.390, 2445.0, 49.4469
26.016182564, 96.390, 2398.0, 48.9694
26.042443129, 96.390, 2414.0, 49.1325
26.068703694, 96.390, 2292.0, 47.8748
26.094964260, 96.390, 2330.0, 48.2701
26.121224825, 96.390, 2264.0, 47.5815
26.147485390, 96.390, 2357.0, 48.5489
26.173745956, 96.390, 2345.0, 48.4252
26.200006521, 96.390, 2260.0, 47.5395
26.226267087, 96.390, 2284.0, 47.7912
26.252527652, 96.390, 2268.0, 47.6235
26.278788217, 96.390, 2361.0, 48.5901
26.305048783, 96.390, 2323.0, 48.1975
26.331309348, 96.390, 2367.0, 48.6518
26.357569913, 96.390, 2302.0, 47.9792
26.383830479, 96.390, 2407.0, 49.0612
26.410091044, 96.390, 2352.0, 48.4974
26.436351609, 96.390, 2208.0, 46.9894
26.462612175, 96.390, 2311.0, 48.0729
26.488872740, 96.390, 2355.0, 48.5283
26.515133305, 96.390, 2252.0, 47.4552
26.541393871, 96.390, 2330.0, 48.2701
26.567654436, 96.390, 2320.0, 48.1664
26.593915002, 96.390, 2254.0, 47.4763
26.620175567, 96.390, 2281.0, 47.7598
26.646436132, 96.390, 2302.0, 47.9792
26.672696698, 96.390, 2481.0, 49.8096
26.698957263, 96.390, 2346.0, 48.4355
26.725217828, 96.390, 2352.0, 48.4974
26.751478394, 96.390, 2459.0, 49.5883
26.777738959, 96.390, 2363.0, 48.6107
26.803999524, 96.390, 2430.0, 49.2950
26.830260090, 96.390, 2433.0, 49.3254
26.856520655, 96.390, 2486.0, 49.8598
26.882781220, 96.390, 2436.0, 49.3559
26.909041786, 96.390, 2445.0, 49.4469
26.935302351, 96.390, 2494.0, 49.9400
26.961562916, 96.390, 2489.0, 49.8899
26.987823482, 96.390, 2496.0, 49.9600
27.014084047, 96.390, 2562.0, 50.6162
27.040344613, 96.390, 2471.0, 49.7092
27.066605178, 96.390, 2357.0, 48.5489
27.092865743, 96.390, 2570.0, 50.6952
27.119126309, 96.390, 2446.0, 49.4571
27.145386874, 96.390, 2578.0, 50.7740
27.171647439, 96.390, 2617.0, 51.1566
27.197908005, 96.390, 2570.0, 50.6952
27.224168570, 96.390, 2656.0, 51.5364
27.250429135, 96.390, 2658.0, 51.5558
27.276689701, 96.390, 2620.0, 51.1859
27.302950266, 96.390, 2534.0, 50.3389
27.329210831, 96.390, 2568.0, 50.6754
27.355471397, 96.390, 2519.0, 50.1896
27.381731962, 96.390, 2444.0, 49.4368
27.407992528, 96.390, 2541.0, 50.4083
27.434253093, 96.390, 2389.0, 48.8774
27.460513658, 96.390, 2309.0, 48.0521
27.486774224, 96.390, 2311.0, 48.0729
27.513034789, 96.390, 2353.0, 48.5077
27.539295354, 96.390, 2305.0, 48.0104
27.565555920, 96.390, 2313.0, 48.0937
27.591816485, 96.390, 2381.0, 48.7955
27.618077050, 96.390, 2435.0, 49.3457
27.644337616, 96.390, 2525.0, 50.2494
27.670598181, 96.390, 2514.0, 50.1398
27.696858746, 96.390, 2608.0, 51.0686
27.723119312, 96.390, 2453.0, 49.5278
27.749379877, 96.390, 2471.0, 49.7092
27.775640442, 96.390, 2506.0, 50.0600
27.801901008, 96.390, 2394.0, 48.9285
27.828161573, 96.390, 2432.0, 49.3153
27.854422139, 96.390, 2408.0, 49.0714
27.880682704, 96.390, 2312.0, 48.0833
27.906943269, 96.390, 2423.0, 49.2240
27.933203835, 96.390, 2300.0, 47.9583
27.959464400, 96.390, 2175.0, 46.6369
27.985724965, 96.390, 2220.0, 47.1169
28.011985531, 96.390, 2304.0, 48.0000
28.038246096, 96.390, 2266.0, 47.6025
28.064506661, 96.390, 2280.0, 47.7493
28.090767227, 96.390, 2411.0, 49.1019
28.117027792, 96.390, 2375.0, 48.7340
28.143288357, 96.390, 2271.0, 47.6550
28.169548923, 96.390, 2367.0, 48.6518
28.195809488, 96.390, 2223.0, 47.1487
28.222070054, 96.390, 2386.0, 48.8467
28.248330619, 96.390, 2477.0, 49.7695
28.274591184, 96.390, 2558.0, 50.5767
28.300851750, 96.390, 2517.0, 50.1697
28.327112315, 96.390, 2377.0, 48.7545
28.353372880, 96.390, 2322.0, 48.1871
28.379633446, 96.390, 2350.0, 48.4768
28.405894011, 96.390, 2372.0, 48.7032
28.432154576, 96.390, 2481.0, 49.8096
28.458415142, 96.390, 2417.0, 49.1630
28.484675707, 96.390, 2374.0, 48.7237
28.510936272, 96.390, 2386.0, 48.8467
28.537196838, 96.390, 2348.0, 48.4562
28.563457403, 96.390, 2370.0, 48.6826
28.589717968, 96.390, 2278.0, 47.7284
28.615978534, 96.390, 2209.0, 47.0000
28.642239099, 96.390, 2258.0, 47.5184
28.668499665, 96.390, 2237.0, 47.2969
28.694760230, 96.390, 2262.0, 47.5605
28.721020795, 96.390, 2257.0, 47.5079
28.747281361, 96.390, 2226.0, 47.1805
28.773541926, 96.390, 2260.0, 47.5395
28.799802491, 96.390, 2325.0, 48.2183
28.826063057, 96.390, 2353.0, 48.5077
28.852323622, 96.390, 2309.0, 48.0521
28.878584187, 96.390, 2337.0, 48.3425
28.904844753, 96.390, 2298.0, 47.9375
28.931105318, 96.390, 2365.0, 48.6313
28.957365883, 96.390, 2267.0, 47.6130
28.983626449, 96.390, 2279.0, 47.7389
29.009887014, 96.390, 2325.0, 48.2183
29.036147579, 96.390, 2372.0, 48.7032
29.062408145, 96.390, 2233.0, 47.2546
29.088668710, 96.390, 2318.0, 48.1456
29.114929276, 96.390, 2496.0, 49.9600
29.141189841, 96.390, 2340.0, 48.3735
29.167450406, 96.390, 2406.0, 49.0510
29.193710972, 96.390, 2359.0, 48.5695
29.219971537, 96.390, 2417.0, 49.1630
29.246232102, 96.390, 2333.0, 48.3011
29.272492668, 96.390, 2346.0, 48.4355
29.298753233, 96.390, 2312.0, 48.0833
29.325013798, 96.390, 2430.0, 49.2950
29.351274364, 96.390, 2409.0, 49.0816
29.377534929, 96.390, 2476.0, 49.7594
29.403795494, 96.390, 2372.0, 48.7032
29.430056060, 96.390, 2352.0, 48.4974
29.456316625, 96.390, 2343.0, 48.4045
29.482577191, 96.390, 2419.0, 49.1833
29.508837756, 96.390, 2363.0, 48.6107
29.535098321, 96.390, 2273.0, 47.6760
29.561358887, 96.390, 2223.0, 47.1487
29.587619452, 96.390, 2372.0, 48.7032
29.613880017, 96.390, 2370.0, 48.6826
29.640140583, 96.390, 2416.0, 49.1528
29.666401148, 96.390, 2331.0, 48.2804
29.692661713, 96.390, 2289.0, 47.8435
29.718922279, 96.390, 2321.0, 48.1768
29.745182844, 96.390, 2307.0, 48.0312
29.771443409, 96.390, 2217.0, 47.0850
29.797703975, 96.390, 2097.0, 45.7930
29.823964540, 96.390, 2182.0, 46.7119
29.850225105, 96.390, 2273.0, 47.6760
29.876485671, 96.390, 2216.0, 47.0744
29.902746236, 96.390, 2239.0, 47.3181
29.929006802, 96.390, 2113.0, 45.9674
29.955267367, 96.390, 2149.0, 46.3573
29.981527932, 96.390, 2072.0, 45.5192
30.007788498, 96.390, 2176.0, 46.6476
30.034049063, 96.390, 2120.0, 46.0435
30.060309628, 96.390, 2111.0, 45.9456
30.086570194, 96.390, 2174.0, 46.6262
30.112830759, 96.390, 2253.0, 47.4658
30.139091324, 96.390, 2162.0, 46.4973
30.165351890, 96.390, 2191.0, 46.8081
30.191612455, 96.390, 2117.0, 46.0109
30.217873020, 96.390, 2199.0, 46.8935
30.244133586, 96.390, 2112.0, 45.9565
30.270394151, 96.390, 2101.0, 45.8367
30.296654717, 96.390, 2129.0, 46.1411
30.322915282, 96.390, 2076.0, 45.5631
30.349175847, 96.390, 2140.0, 46.2601
30.375436413, 96.390, 2197.0, 46.8722
30.401696978, 96.390, 2308.0, 48.0416
30.427957543, 96.390, 2320.0, 48.1664
30.454218109, 96.390, 2507.0, 50.0700
30.480478674, 96.390, 2549.0, 50.4876
30.506739239, 96.390, 2700.0, 51.9615
30.532999805, 96.390, 2656.0, 51.5364
30.559260370, 96.390, 2438.0, 49.3761
30.585520935, 96.390, 2594.0, 50.9313
30.611781501, 96.390, 2603.0, 51.0196
30.638042066, 96.390, 2932.0, 54.1479
30.664302631, 96.390, 4139.0, 64.3351
30.690563197, 96.390, 3729.0, 61.0655
30.716823762, 96.390, 3149.0, 56.1160
30.743084328, 96.390, 3383.0, 58.1636
30.769344893, 96.390, 3059.0, 55.3082
30.795605458, 96.390, 2616.0, 51.1468
30.821866024, 96.390, 2524.0, 50.2394
30.848126589, 96.390, 2300.0, 47.9583
30.874387154, 96.390, 2294.0, 47.8957
30.900647720, 96.390, 2302.0, 47.9792
30.926908285, 96.390, 2371.0, 48.6929
30.953168850, 96.390, 2683.0, 51.7977
30.979429416, 96.390, 2645.0, 51.4296
31.005689981, 96.390, 2602.0, 51.0098
31.031950546, 96.390, 2662.0, 51.5946
31.058211112, 96.390, 2428.0, 49.2747
31.084471677, 96.390, 2326.0, 48.2286
31.110732243, 96.390, 2357.0, 48.5489
31.136992808, 96.390, 2164.0, 46.5188
31.163253373, 96.390, 2180.0, 46.6905
31.189513939, 96.390, 2204.0, 46.9468
31.215774504, 96.390, 2238.0, 47.3075
31.242035069, 96.390, 2318.0, 48.1456
31.268295635, 96.390, 2219.0, 47.1063
31.294556200, 96.390, 2341.0, 48.3839
31.320816765, 96.390, 2390.0, 48.8876
31.347077331, 96.390, 2329.0, 48.2597
31.373337896, 96.390, 2504.0, 50.0400
31.399598461, 96.390, 2393.0, 48.9183
31.425859027, 96.390, 2314.0, 48.1041
31.452119592, 96.390, 2387.0, 48.8569
31.478380157, 96.390, 2323.0, 48.1975
31.504640723, 96.390, 2259.0, 47.5289
31.530901288, 96.390, 2339.0, 48.3632
31.557161854, 96.390, 2371.0, 48.6929
31.583422419, 96.390, 2371.0, 48.6929
31.609682984, 96.390, 2433.0, 49.3254
31.635943550, 96.390, 2536.0, 50.3587
31.662204115, 96.390, 2611.0, 51.0979
31.688464680, 96.390, 2952.0, 54.3323
31.714725246, 96.390, 3945.0, 62.8092
31.740985811, 96.390, 4362.0, 66.0454
31.767246376, 96.390, 2894.0, 53.7959
31.793506942, 96.390, 2933.0, 54.1572
31.819767507, 96.390, 3214.0, 56.6922
31.846028072, 96.390, 2527.0, 50.2693
31.872288638, 96.390, 2393.0, 48.9183
31.898549203, 96.390, 2431.0, 49.3052
31.924809769, 96.390, 2555.0, 50.5470
31.951070334, 96.390, 2664.0, 51.6140
31.977330899, 96.390, 2460.0, 49.5984
32.003591465, 96.390, 2566.0, 50.6557
32.029852030, 96.390, 2474.0, 49.7393
32.056112595, 96.390, 2381.0, 48.7955
32.082373161, 96.390, 2308.0, 48.0416
32.108633726, 96.390, 2284.0, 47.7912
32.134894291, 96.390, 2296.0, 47.9166
32.161154857, 96.390, 2134.0, 46.1952
32.187415422, 96.390, 2079.0, 45.5961
32.213675987, 96.390, 2152.0, 46.3897
32.239936553, 96.390, 2006.0, 44.7884
32.266197118, 96.390, 2095.0, 45.7712
32.292457683, 96.390, 2184.0, 46.7333
32.318718249, 96.390, 2179.0, 46.6798
32.344978814, 96.390, 2203.0, 46.9361
32.371239380, 96.390, 2188.0, 46.7761
32.397499945, 96.390, 2009.0, 44.8219
32.423760510, 96.390, 2002.0, 44.7437
32.450021076, 96.390, 1986.0, 44.5646
32.476281641, 96.390, 1945.0, 44.1022
32.502542206, 96.390, 1995.0, 44.6654
32.528802772, 96.390, 1840.0, 42.8952
32.555063337, 96.390, 1982.0, 44.5197
32.581323902, 96.390, 1967.0, 44.3509
32.607584468, 96.390, 1942.0, 44.0681
32.633845033, 96.390, 2231.0, 47.2335
32.660105598, 96.390, 2219.0, 47.1063
32.686366164, 96.390, 2193.0, 46.8295
32.712626729, 96.390, 2031.0, 45.0666
32.738887295, 96.390, 2116.0, 46.0000
32.765147860, 96.390, 2083.0, 45.6399
32.791408425, 96.390, 2018.0, 44.9222
32.817668991, 96.390, 1973.0, 44.4185
32.843929556, 96.390, 2037.0, 45.1331
32.870190121, 96.390, 2086.0, 45.6727
32.896450687, 96.390, 2041.0, 45.1774
32.922711252, 96.390, 2326.0, 48.2286
32.948971817, 96.390, 2481.0, 49.8096
32.975232383, 96.390, 2318.0, 48.1456
33.001492948, 96.390, 2442.0, 49.4166
33.027753513, 96.390, 2750.0, 52.4404
33.054014079, 96.390, 2505.0, 50.0500
33.080274644, 96.390, 2366.0, 48.6415
33.106535209, 96.390, 2564.0, 50.6360
33.132795775, 96.390, 2713.0, 52.0865
33.159056340, 96.390, 2732.0, 52.2685
33.185316906, 96.390, 2325.0, 48.2183
33.211577471, 96.390, 2510.0, 50.0999
33.237838036, 96.390, 2473.0, 49.7293
33.264098602, 96.390, 2336.0, 48.3322
33.290359167, 96.390, 2366.0, 48.6415
33.316619732, 96.390, 2389.0, 48.8774
33.342880298, 96.390, 2955.0, 54.3599
33.369140863, 96.390, 2800.0, 52.9150
33.395401428, 96.390, 2892.0, 53.7773
33.421661994, 96.390, 4718.0, 68.6877
33.447922559, 96.390, 9845.0, 99.2220
33.474183124, 96.390, 6791.0, 82.4075
33.500443690, 96.390, 3872.0, 62.2254
33.526704255, 96.390, 5524.0, 74.3236
33.552964820, 96.390, 5217.0, 72.2288
33.579225386, 96.390, 2751.0, 52.4500
33.605485951, 96.390, 2147.0, 46.3357
33.631746517, 96.390, 1989.0, 44.5982
33.658007082, 96.390, 1918.0, 43.7950
33.684267647, 96.390, 1879.0, 43.3474
33.710528213, 96.390, 1879.0, 43.3474
33.736788778, 96.390, 1942.0, 44.0681
33.763049343, 96.390, 1872.0, 43.2666
33.789309909, 96.390, 1928.0, 43.9090
33.815570474, 96.390, 2006.0, 44.7884
33.841831039, 96.390, 2217.0, 47.0850
33.868091605, 96.390, 2634.0, 51.3225
33.894352170, 96.390, 2373.0, 48.7134
33.920612735, 96.390, 2394.0, 48.9285
33.946873301, 96.390, 2736.0, 52.3068
33.973133866, 96.390, 2891.0, 53.7680
33.999394432, 96.390, 2337.0, 48.3425
34.025654997, 96.390, 2355.0, 48.5283
34.051915562, 96.390, 2368.0, 48.6621
34.078176128, 96.390, 2108.0, 45.9130
34.104436693, 96.390, 1965.0, 44.3283
34.130697258, 96.390, 1907.0, 43.6692
34.156957824, 96.390, 1833.0, 42.8135
34.183218389, 96.390, 1978.0, 44.4747
34.209478954, 96.390, 2054.0, 45.3211
34.235739520, 96.390, 2039.0, 45.1553
34.262000085, 96.390, 2260.0, 47.5395
34.288260650, 96.390, 2415.0, 49.1426
34.314521216, 96.390, 2635.0, 51.3323
34.340781781, 96.390, 2541.0, 50.4083
34.367042346, 96.390, 2358.0, 48.5592
34.393302912, 96.390, 2367.0, 48.6518
34.419563477, 96.390, 2444.0, 49.4368
34.445824043, 96.390, 2136.0, 46.2169
34.472084608, 96.390, 2292.0, 47.8748
34.498345173, 96.390, 2133.0, 46.1844
34.524605739, 96.390, 2303.0, 47.9896
34.550866304, 96.390, 2278.0, 47.7284
34.577126869, 96.390, 2360.0, 48.5798
34.603387435, 96.390, 2453.0, 49.5278
34.629648000, 96.390, 2300.0, 47.9583
34.655908565, 96.390, 2392.0, 48.9081
34.682169131, 96.390, 2486.0, 49.8598
34.708429696, 96.390, 2321.0, 48.1768
34.734690261, 96.390, 2304.0, 48.0000
34.760950827, 96.390, 2325.0, 48.2183
34.787211392, 96.390, 2210.0, 47.0106
34.813471958, 96.390, 2193.0, 46.8295
34.839732523, 96.390, 2226.0, 47.1805
34.865993088, 96.390, 2201.0, 46.9148
34.892253654, 96.390, 2255.0, 47.4868
34.918514219, 96.390, 2360.0, 48.5798
34.944774784, 96.390, 2535.0, 50.3488
34.971035350, 96.390, 2627.0, 51.2543
34.997295915, 96.390, 2877.0, 53.6377
35.023556480, 96.390, 3158.0, 56.1961
35.049817046, 96.390, 2936.0, 54.1849
35.076077611, 96.390, 2503.0, 50.0300
35.102338176, 96.390, 2654.0, 51.5170
35.128598742, 96.390, 2577.0, 50.7642
35.154859307, 96.390, 2344.0, 48.4149
35.181119872, 96.390, 2411.0, 49.1019
35.207380438, 96.390, 2476.0, 49.7594
35.233641003, 96.390, 2475.0, 49.7494
35.259901569, 96.390, 2225.0, 47.1699
35.286162134, 96.390, 2305.0, 48.0104
35.312422699, 96.390, 2164.0, 46.5188
35.338683265, 96.390, 2168.0, 46.5618
35.364943830, 96.390, 2035.0, 45.1110
35.391204395, 96.390, 1996.0, 44.6766
35.417464961, 96.390, 1995.0, 44.6654
35.443725526, 96.390, 1910.0, 43.7035
35.469986091, 96.390, 2016.0, 44.8999
35.496246657, 96.390, 2046.0, 45.2327
35.522507222, 96.390, 2037.0, 45.1331
35.548767787, 96.390, 2162.0, 46.4973
35.575028353, 96.390, 2010.0, 44.8330
35.601288918, 96.390, 1955.0, 44.2154
35.627549484, 96.390, 2011.0, 44.8442
35.653810049, 96.390, 2031.0, 45.0666
35.680070614, 96.390, 2043.0, 45.1996
35.706331180, 96.390, 2142.0, 46.2817
35.732591745, 96.390, 1971.0, 44.3959
35.758852310, 96.390, 1937.0, 44.0114
35.785112876, 96.390, 1986.0, 44.5646
35.811373441, 96.390, 2091.0, 45.7275
35.837634006, 96.390, 2081.0, 45.6180
35.863894572, 96.390, 1989.0, 44.5982
35.890155137, 96.390, 1990.0, 44.6094
35.916415702, 96.390, 2124.0, 46.0869
35.942676268, 96.390, 2155.0, 46.4220
35.968936833, 96.390, 2371.0, 48.6929
35.995197398, 96.390, 2253.0, 47.4658
36.021457964, 96.390, 2107.0, 45.9021
36.047718529, 96.390, 1991.0, 44.6206
36.073979095, 96.390, 2140.0, 46.2601
36.100239660, 96.390, 2035.0, 45.1110
36.126500225, 96.390, 1891.0, 43.4856
36.152760791, 96.390, 1798.0, 42.4028
36.179021356, 96.390, 1860.0, 43.1277
36.205281921, 96.390, 1893.0, 43.5086
36.231542487, 96.390, 1938.0, 44.0227
36.257803052, 96.390, 1885.0, 43.4166
36.284063617, 96.390, 1928.0, 43.9090
36.310324183, 96.390, 1920.0, 43.8178
36.336584748, 96.390, 2166.0, 46.5403
36.362845313, 96.390, 2195.0, 46.8508
36.389105879, 96.390, 1972.0, 44.4072
36.415366444, 96.390, 1912.0, 43.7264
36.441627010, 96.390, 1954.0, 44.2041
36.467887575, 96.390, 1915.0, 43.7607
36.494148140, 96.390, 1845.0, 42.9535
36.520408706, 96.390, 1631.0, 40.3856
36.546669271, 96.390, 1636.0, 40.4475
36.572929836, 96.390, 1751.0, 41.8450
36.599190402, 96.390, 1741.0, 41.7253
36.625450967, 96.390, 1736.0, 41.6653
36.651711532, 96.390, 1780.0, 42.1900
36.677972098, 96.390, 1821.0, 42.6732
36.704232663, 96.390, 1814.0, 42.5911
36.730493228, 96.390, 1718.0, 41.4488
36.756753794, 96.390, 1710.0, 41.3521
36.783014359, 96.390, 1739.0, 41.7013
36.809274924, 96.390, 1587.0, 39.8372
36.835535490, 96.390, 1535.0, 39.1791
36.861796055, 96.390, 1528.0, 39.0896
36.888056621, 96.390, 1611.0, 40.1373
36.914317186, 96.390, 1580.0, 39.7492
36.940577751, 96.390, 1625.0, 40.3113
36.966838317, 96.390, 1525.0, 39.0512
36.993098882, 96.390, 1544.0, 39.2938
37.019359447, 96.390, 1601.0, 40.0125
37.045620013, 96.390, 1629.0, 40.3609
37.071880578, 96.390, 1542.0, 39.2683
37.098141143, 96.390, 1659.0, 40.7308
37.124401709, 96.390, 1648.0, 40.5956
37.150662274, 96.390, 1532.0, 39.1408
37.176922839, 96.390, 1541.0, 39.2556
37.203183405, 96.390, 1596.0, 39.9500
37.229443970, 96.390, 1553.0, 39.4081
37.255704535, 96.390, 1621.0, 40.2616
37.281965101, 96.390, 1518.0, 38.9615
37.308225666, 96.390, 1543.0, 39.2810
37.334486232, 96.390, 1496.0, 38.6782
37.360746797, 96.390, 1550.0, 39.3700
37.387007362, 96.390, 1630.0, 40.3733
37.413267928, 96.390, 1708.0, 41.3280
37.439528493, 96.390, 1654.0, 40.6694
37.465789058, 96.390, 1535.0, 39.1791
37.492049624, 96.390, 1629.0, 40.3609
37.518310189, 96.390, 1544.0, 39.2938
37.544570754, 96.390, 1546.0, 39.3192
37.570831320, 96.390, 1546.0, 39.3192
37.597091885, 96.390, 1581.0, 39.7618
37.623352450, 96.390, 1615.0, 40.1871
37.649613016, 96.390, 1559.0, 39.4842
37.675873581, 96.390, 1560.0, 39.4968
37.702134147, 96.390, 1508.0, 38.8330
37.728394712, 96.390, 1629.0, 40.3609
37.754655277, 96.390, 1577.0, 39.7115
37.780915843, 96.390, 1702.0, 41.2553
37.807176408, 96.390, 1886.0, 43.4281
37.833436973, 96.390, 2075.0, 45.5522
37.859697539, 96.390, 1990.0, 44.6094
37.885958104, 96.390, 1907.0, 43.6692
37.912218669, 96.390, 1857.0, 43.0929
37.938479235, 96.390, 1766.0, 42.0238
37.964739800, 96.390, 1646.0, 40.5709
37.991000365, 96.390, 1583.0, 39.7869
38.017260931, 96.390, 1624.0, 40.2989
38.043521496, 96.390, 1580.0, 39.7492
38.069782061, 96.390, 1534.0, 39.1663
38.096042627, 96.390, 1539.0, 39.2301
38.122303192, 96.390, 1673.0, 40.9023
38.148563758, 96.390, 1776.0, 42.1426
38.174824323, 96.390, 2211.0, 47.0213
38.201084888, 96.390, 1963.0, 44.3058
38.227345454, 96.390, 1830.0, 42.7785
38.253606019, 96.390, 1918.0, 43.7950
38.279866584, 96.390, 2109.0, 45.9239
38.306127150, 96.390, 2015.0, 44.8888
38.332387715, 96.390, 1672.0, 40.8901
38.358648280, 96.390, 1648.0, 40.5956
38.384908846, 96.390, 1642.0, 40.5216
38.411169411, 96.390, 1627.0, 40.3361
38.437429976, 96.390, 1522.0, 39.0128
38.463690542, 96.390, 1561.0, 39.5095
38.489951107, 96.390, 1496.0, 38.6782
38.516211673, 96.390, 1449.0, 38.0657
38.542472238, 96.390, 1519.0, 38.9744
38.568732803, 96.390, 1453.0, 38.1182
38.594993369, 96.390, 1432.0, 37.8418
38.621253934, 96.390, 1433.0, 37.8550
38.647514499, 96.390, 1405.0, 37.4833
38.673775065, 96.390, 1446.0, 38.0263
38.700035630, 96.390, 1478.0, 38.4448
38.726296195, 96.390, 1504.0, 38.7814
38.752556761, 96.390, 1413.0, 37.5899
38.778817326, 96.390, 1435.0, 37.8814
38.805077891, 96.390, 1489.0, 38.5876
38.831338457, 96.390, 1380.0, 37.1484
38.857599022, 96.390, 1446.0, 38.0263
38.883859587, 96.390, 1466.0, 38.2884
38.910120153, 96.390, 1403.0, 37.4566
38.936380718, 96.390, 1412.0, 37.5766
38.962641284, 96.390, 1410.0, 37.5500
38.988901849, 96.390, 1516.0, 38.9358
39.015162414, 96.390, 1522.0, 39.0128
39.041422980, 96.390, 1386.0, 37.2290
39.067683545, 96.390, 1542.0, 39.2683
39.093944110, 96.390, 1495.0, 38.6652
39.120204676, 96.390, 1418.0, 37.6563
39.146465241, 96.390, 1644.0, 40.5463
39.172725806, 96.390, 1786.0, 42.2611
39.198986372, 96.390, 2244.0, 47.3709
39.225246937, 96.390, 2310.0, 48.0625
39.251507502, 96.390, 2337.0, 48.3425
39.277768068, 96.390, 1911.0, 43.7150
39.304028633, 96.390, 1873.0, 43.2782
39.330289199, 96.390, 1896.0, 43.5431
39.356549764, 96.390, 1827.0, 42.7434
39.382810329, 96.390, 1481.0, 38.4838
39.409070895, 96.390, 1462.0, 38.2361
39.435331460, 96.390, 1413.0, 37.5899
39.461592025, 96.390, 1455.0, 38.1445
39.487852591, 96.390, 1380.0, 37.1484
39.514113156, 96.390, 1395.0, 37.3497
39.540373721, 96.390, 1418.0, 37.6563
39.566634287, 96.390, 1461.0, 38.2230
39.592894852, 96.390, 1409.0, 37.5366
39.619155417, 96.390, 1386.0, 37.2290
39.645415983, 96.390, 1414.0, 37.6032
39.671676548, 96.390, 1463.0, 38.2492
39.697937113, 96.390, 1485.0, 38.5357
39.724197679, 96.390, 1435.0, 37.8814
39.750458244, 96.390, 1537.0, 39.2046
39.776718810, 96.390, 1709.0, 41.3401
39.802979375, 96.390, 1722.0, 41.4970
39.829239940, 96.390, 1594.0, 39.9249
39.855500506, 96.390, 1411.0, 37.5633
39.881761071, 96.390, 1545.0, 39.3065
39.908021636, 96.390, 1576.0, 39.6989
39.934282202, 96.390, 1504.0, 38.7814
39.960542767, 96.390, 1392.0, 37.3095
39.986803332, 96.390, 1313.0, 36.2353
40.013063898, 96.390, 1280.0, 35.7771
40.039324463, 96.390, 1409.0, 37.5366
40.065585028, 96.390, 1363.0, 36.9188
40.091845594, 96.390, 1502.0, 38.7556
40.118106159, 96.390, 1562.0, 39.5221
40.144366725, 96.390, 1554.0, 39.4208
40.170627290, 96.390, 1600.0, 40.0000
40.196887855, 96.390, 1531.0, 39.1280
40.223148421, 96.390, 1575.0, 39.6863
40.249408986, 96.390, 1419.0, 37.6696
40.275669551, 96.390, 1426.0, 37.7624
40.301930117, 96.390, 1392.0, 37.3095
40.328190682, 96.390, 1394.0, 37.3363
40.354451247, 96.390, 1252.0, 35.3836
40.380711813, 96.390, 1337.0, 36.5650
40.406972378, 96.390, 1333.0, 36.5103
40.433232943, 96.390, 1282.0, 35.8050
40.459493509, 96.390, 1265.0, 35.5668
40.485754074, 96.390, 1295.0, 35.9861
40.512014639, 96.390, 1266.0, 35.5809
40.538275205, 96.390, 1247.0, 35.3129
40.564535770, 96.390, 1356.0, 36.8239
40.590796336, 96.390, 1334.0, 36.5240
40.617056901, 96.390, 1322.0, 36.3593
40.643317466, 96.390, 1327.0, 36.4280
40.669578032, 96.390, 1322.0, 36.3593
40.695838597, 96.390, 1350.0, 36.7423
40.722099162, 96.390, 1322.0, 36.3593
40.748359728, 96.390, 1400.0, 37.4166
40.774620293, 96.390, 1254.0, 35.4119
40.800880858, 96.390, 1234.0, 35.1283
40.827141424, 96.390, 1263.0, 35.5387
40.853401989, 96.390, 1200.0, 34.6410
40.879662554, 96.390, 1235.0, 35.1426
40.905923120, 96.390, 1224.0, 34.9857
40.932183685, 96.390, 1201.0, 34.6554
40.958444251, 96.390, 1349.0, 36.7287
40.984704816, 96.390, 1315.0, 36.2629
41.010965381, 96.390, 1274.0, 35.6931
41.037225947, 96.390, 1265.0, 35.5668
41.063486512, 96.390, 1360.0, 36.8782
41.089747077, 96.390, 1263.0, 35.5387
41.116007643, 96.390, 1365.0, 36.9459
41.142268208, 96.390, 1286.0, 35.8608
41.168528773, 96.390, 1247.0, 35.3129
41.194789339, 96.390, 1228.0, 35.0428
41.221049904, 96.390, 1302.0, 36.0832
41.247310469, 96.390, 1248.0, 35.3270
41.273571035, 96.390, 1343.0, 36.6470
41.299831600, 96.390, 1352.0, 36.7696
41.326092165, 96.390, 1461.0, 38.2230
41.352352731, 96.390, 1429.0, 37.8021
41.378613296, 96.390, 1355.0, 36.8103
41.404873862, 96.390, 1302.0, 36.0832
41.431134427, 96.390, 1335.0, 36.5377
41.457394992, 96.390, 1372.0, 37.0405
41.483655558, 96.390, 1249.0, 35.3412
41.509916123, 96.390, 1332.0, 36.4966
41.536176688, 96.390, 1265.0, 35.5668
41.562437254, 96.390, 1264.0, 35.5528
41.588697819, 96.390, 1247.0, 35.3129
41.614958384, 96.390, 1235.0, 35.1426
41.641218950, 96.390, 1213.0, 34.8281
41.667479515, 96.390, 1208.0, 34.7563
41.693740080, 96.390, 1217.0, 34.8855
41.720000646, 96.390, 1283.0, 35.8190
41.746261211, 96.390, 1155.0, 33.9853
41.772521776, 96.390, 1178.0, 34.3220
41.798782342, 96.390, 1217.0, 34.8855
41.825042907, 96.390, 1182.0, 34.3802
41.851303473, 96.390, 1167.0, 34.1614
41.877564038, 96.390, 1235.0, 35.1426
41.903824603, 96.390, 1167.0, 34.1614
41.930085169, 96.390, 1234.0, 35.1283
41.956345734, 96.390, 1264.0, 35.5528
41.982606299, 96.390, 1162.0, 34.0881
42.008866865, 96.390, 1164.0, 34.1174
42.035127430, 96.390, 1268.0, 35.6090
42.061387995, 96.390, 1333.0, 36.5103
42.087648561, 96.390, 1372.0, 37.0405
42.113909126, 96.390, 1414.0, 37.6032
42.140169691, 96.390, 1670.0, 40.8656
42.166430257, 96.390, 1621.0, 40.2616
42.192690822, 96.390, 1636.0, 40.4475
42.218951388, 96.390, 1474.0, 38.3927
42.245211953, 96.390, 1590.0, 39.8748
42.271472518, 96.390, 1604.0, 40.0500
42.297733084, 96.390, 1500.0, 38.7298
42.323993649, 96.390, 1409.0, 37.5366
42.350254214, 96.390, 1270.0, 35.6371
42.376514780, 96.390, 1311.0, 36.2077
42.402775345, 96.390, 1260.0, 35.4965
42.429035910, 96.390, 1209.0, 34.7707
42.455296476, 96.390, 1232.0, 35.0999
42.481557041, 96.390, 1220.0, 34.9285
42.507817606, 96.390, 1162.0, 34.0881
42.534078172, 96.390, 1238.0, 35.1852
42.560338737, 96.390, 1222.0, 34.9571
42.586599302, 96.390, 1252.0, 35.3836
42.612859868, 96.390, 1225.0, 35.0000
42.639120433, 96.390, 1235.0, 35.1426
42.665380999, 96.390, 1306.0, 36.1386
42.691641564, 96.390, 1299.0, 36.0416
42.717902129, 96.390, 1367.0, 36.9730
42.744162695, 96.390, 1454.0, 38.1314
42.770423260, 96.390, 1346.0, 36.6879
42.796683825, 96.390, 1240.0, 35.2136
42.822944391, 96.390, 1279.0, 35.7631
42.849204956, 96.390, 1364.0, 36.9324
42.875465521, 96.390, 1268.0, 35.6090
42.901726087, 96.390, 1247.0, 35.3129
42.927986652, 96.390, 1181.0, 34.3657
42.954247217, 96.390, 1155.0, 33.9853
42.980507783, 96.390, 1190.0, 34.4964
43.006768348, 96.390, 1179.0, 34.3366
43.033028914, 96.390, 1270.0, 35.6371
43.059289479, 96.390, 1152.0, 33.9411
43.085550044, 96.390, 1211.0, 34.7994
43.111810610, 96.390, 1193.0, 34.5398
43.138071175, 96.390, 1220.0, 34.9285
43.164331740, 96.390, 1133.0, 33.6601
43.190592306, 96.390, 1148.0, 33.8821
43.216852871, 96.390, 1142.0, 33.7935
43.243113436, 96.390, 1134.0, 33.6749
43.269374002, 96.390, 1244.0, 35.2704
43.295634567, 96.390, 1221.0, 34.9428
43.321895132, 96.390, 1224.0, 34.9857
43.348155698, 96.390, 1160.0, 34.0588
43.374416263, 96.390, 1193.0, 34.5398
43.400676828, 96.390, 1157.0, 34.0147
43.426937394, 96.390, 1179.0, 34.3366
43.453197959, 96.390, 1271.0, 35.6511
43.479458525, 96.390, 1198.0, 34.6121
43.505719090, 96.390, 1197.0, 34.5977
43.531979655, 96.390, 1182.0, 34.3802
43.558240221, 96.390, 1219.0, 34.9142
43.584500786, 96.390, 1215.0, 34.8569
43.610761351, 96.390, 1173.0, 34.2491
43.637021917, 96.390, 1173.0, 34.2491
43.663282482, 96.390, 1200.0, 34.6410
43.689543047, 96.390, 1210.0, 34.7851
43.715803613, 96.390, 1186.0, 34.4384
43.742064178, 96.390, 1218.0, 34.8999
43.768324743, 96.390, 1254.0, 35.4119
43.794585309, 96.390, 1180.0, 34.3511
43.820845874, 96.390, 1242.0, 35.2420
43.847106440, 96.390, 1205.0, 34.7131
43.873367005, 96.390, 1163.0, 34.1028
43.899627570, 96.390, 1185.0, 34.4238
43.925888136, 96.390, 1187.0, 34.4529
43.952148701, 96.390, 1213.0, 34.8281
43.978409266, 96.390, 1202.0, 34.6699
44.004669832, 96.390, 1173.0, 34.2491
44.030930397, 96.390, 1191.0, 34.5109
44.057190962, 96.390, 1249.0, 35.3412
44.083451528, 96.390, 1161.0, 34.0735
44.109712093, 96.390, 1205.0, 34.7131
44.135972658, 96.390, 1265.0, 35.5668
44.162233224, 96.390, 1188.0, 34.4674
44.188493789, 96.390, 1295.0, 35.9861
44.214754354, 96.390, 1284.0, 35.8329
44.241014920, 96.390, 1339.0, 36.5923
44.267275485, 96.390, 1418.0, 37.6563
44.293536051, 96.390, 1286.0, 35.8608
44.319796616, 96.390, 1267.0, 35.5949
44.346057181, 96.390, 1293.0, 35.9583
44.372317747, 96.390, 1339.0, 36.5923
44.398578312, 96.390, 1274.0, 35.6931
44.424838877, 96.390, 1287.0, 35.8748
44.451099443, 96.390, 1152.0, 33.9411
44.477360008, 96.390, 1157.0, 34.0147
44.503620573, 96.390, 1255.0, 35.4260
44.529881139, 96.390, 1147.0, 33.8674
44.556141704, 96.390, 1235.0, 35.1426
44.582402269, 96.390, 1226.0, 35.0143
44.608662835, 96.390, 1166.0, 34.1467
44.634923400, 96.390, 1210.0, 34.7851
44.661183966, 96.390, 1187.0, 34.4529
44.687444531, 96.390, 1384.0, 37.2022
44.713705096, 96.390, 1335.0, 36.5377
44.739965662, 96.390, 1449.0, 38.0657
44.766226227, 96.390, 1369.0, 37.0000
44.792486792, 96.390, 1352.0, 36.7696
44.818747358, 96.390, 1466.0, 38.2884
44.845007923, 96.390, 1322.0, 36.3593
44.871268488, 96.390, 1335.0, 36.5377
44.897529054, 96.390, 1317.0, 36.2905
44.923789619, 96.390, 1288.0, 35.8887
44.950050184, 96.390, 1222.0, 34.9571
44.976310750, 96.390, 1231.0, 35.0856
45.002571315, 96.390, 1213.0, 34.8281
45.028831880, 96.390, 1264.0, 35.5528
45.055092446, 96.390, 1283.0, 35.8190
45.081353011, 96.390, 1227.0, 35.0286
45.107613577, 96.390, 1542.0, 39.2683
45.133874142, 96.390, 2200.0, 46.9042
45.160134707, 96.390, 1770.0, 42.0714
45.186395273, 96.390, 1381.0, 37.1618
45.212655838, 96.390, 1374.0, 37.0675
45.238916403, 96.390, 1659.0, 40.7308
45.265176969, 96.390, 1750.0, 41.8330
45.291437534, 96.390, 1386.0, 37.2290
45.317698099, 96.390, 1257.0, 35.4542
45.343958665, 96.390, 1261.0, 35.5106
45.370219230, 96.390, 1241.0, 35.2278
45.396479795, 96.390, 1318.0, 36.3043
45.422740361, 96.390, 1248.0, 35.3270
45.449000926, 96.390, 1296.0, 36.0000
45.475261492, 96.390, 1218.0, 34.8999
45.501522057, 96.390, 1195.0, 34.5688
45.527782622, 96.390, 1219.0, 34.9142
45.554043188, 96.390, 1291.0, 35.9305
45.580303753, 96.390, 1354.0, 36.7967
45.606564318, 96.390, 1380.0, 37.1484
45.632824884, 96.390, 1343.0, 36.6470
45.659085449, 96.390, 1384.0, 37.2022
45.685346014, 96.390, 1380.0, 37.1484
45.711606580, 96.390, 1202.0, 34.6699
45.737867145, 96.390, 1313.0, 36.2353
45.764127710, 96.390, 1295.0, 35.9861
45.790388276, 96.390, 1365.0, 36.9459
45.816648841, 96.390, 1310.0, 36.1939
45.842909406, 96.390, 1205.0, 34.7131
45.869169972, 96.390, 1219.0, 34.9142
45.895430537, 96.390, 1220.0, 34.9285
45.921691103, 96.390, 1196.0, 34.5832
45.947951668, 96.390, 1255.0, 35.4260
45.974212233, 96.390, 1247.0, 35.3129
46.000472799, 96.390, 1246.0, 35.2987
46.026733364, 96.390, 1197.0, 34.5977
46.052993929, 96.390, 1253.0, 35.3977
46.079254495, 96.390, 1391.0, 37.2961
46.105515060, 96.390, 1477.0, 38.4318
46.131775625, 96.390, 1569.0, 39.6106
46.158036191, 96.390, 1585.0, 39.8121
46.184296756, 96.390, 1744.0, 41.7612
46.210557321, 96.390, 1835.0, 42.8369
46.236817887, 96.390, 1799.0, 42.4146
46.263078452, 96.390, 1696.0, 41.1825
46.289339017, 96.390, 1723.0, 41.5090
46.315599583, 96.390, 1822.0, 42.6849
46.341860148, 96.390, 1735.0, 41.6533
46.368120714, 96.390, 1701.0, 41.2432
46.394381279, 96.390, 1626.0, 40.3237
46.420641844, 96.390, 1647.0, 40.5832
46.446902410, 96.390, 1574.0, 39.6737
46.473162975, 96.390, 1487.0, 38.5616
46.499423540, 96.390, 1493.0, 38.6394
46.525684106, 96.390, 1369.0, 37.0000
46.551944671, 96.390, 1410.0, 37.5500
46.578205236, 96.390, 1359.0, 36.8646
46.604465802, 96.390, 1359.0, 36.8646
46.630726367, 96.390, 1553.0, 39.4081
46.656986932, 96.390, 1657.0, 40.7063
46.683247498, 96.390, 1605.0, 40.0625
46.709508063, 96.390, 1555.0, 39.4335
46.735768629, 96.390, 1522.0, 39.0128
46.762029194, 96.390, 1414.0, 37.6032
46.788289759, 96.390, 1461.0, 38.2230
46.814550325, 96.390, 1347.0, 36.7015
46.840810890, 96.390, 1285.0, 35.8469
46.867071455, 96.390, 1244.0, 35.2704
46.893332021, 96.390, 1174.0, 34.2637
46.919592586, 96.390, 1141.0, 33.7787
46.945853151, 96.390, 1168.0, 34.1760
46.972113717, 96.390, 1189.0, 34.4819
46.998374282, 96.390, 1181.0, 34.3657
47.024634847, 96.390, 1140.0, 33.7639
47.050895413, 96.390, 1226.0, 35.0143
47.077155978, 96.390, 1148.0, 33.8821
47.103416543, 96.390, 1158.0, 34.0294
47.129677109, 96.390, 1157.0, 34.0147
47.155937674, 96.390, 1259.0, 35.4824
47.182198240, 96.390, 1169.0, 34.1906
47.208458805, 96.390, 1230.0, 35.0714
47.234719370, 96.390, 1130.0, 33.6155
47.260979936, 96.390, 1187.0, 34.4529
47.287240501, 96.390, 1269.0, 35.6230
47.313501066, 96.390, 1132.0, 33.6452
47.339761632, 96.390, 1220.0, 34.9285
47.366022197, 96.390, 1159.0, 34.0441
47.392282762, 96.390, 1204.0, 34.6987
47.418543328, 96.390, 1151.0, 33.9264
47.444803893, 96.390, 1154.0, 33.9706
47.471064458, 96.390, 1198.0, 34.6121
47.497325024, 96.390, 1179.0, 34.3366
47.523585589, 96.390, 1181.0, 34.3657
47.549846155, 96.390, 1214.0, 34.8425
47.576106720, 96.390, 1164.0, 34.1174
47.602367285, 96.390, 1121.0, 33.4813
47.628627851, 96.390, 1159.0, 34.0441
47.654888416, 96.390, 1127.0, 33.5708
47.681148981, 96.390, 1104.0, 33.2265
47.707409547, 96.390, 1130.0, 33.6155
47.733670112, 96.390, 1121.0, 33.4813
47.759930677, 96.390, 1106.0, 33.2566
47.786191243, 96.390, 1134.0, 33.6749
47.812451808, 96.390, 1143.0, 33.8083
47.838712373, 96.390, 1145.0, 33.8378
47.864972939, 96.390, 1231.0, 35.0856
47.891233504, 96.390, 1233.0, 35.1141
47.917494069, 96.390, 1223.0, 34.9714
47.943754635, 96.390, 1157.0, 34.0147
47.970015200, 96.390, 1076.0, 32.8024
47.996275766, 96.390, 1184.0, 34.4093
48.022536331, 96.390, 1159.0, 34.0441
48.048796896, 96.390, 1193.0, 34.5398
48.075057462, 96.390, 1185.0, 34.4238
48.101318027, 96.390, 1270.0, 35.6371
48.127578592, 96.390, 1387.0, 37.2424
48.153839158, 96.390, 1258.0, 35.4683
48.180099723, 96.390, 1181.0, 34.3657
48.206360288, 96.390, 1173.0, 34.2491
48.232620854, 96.390, 1174.0, 34.2637
48.258881419, 96.390, 1185.0, 34.4238
48.285141984, 96.390, 1227.0, 35.0286
48.311402550, 96.390, 1109.0, 33.3017
48.337663115, 96.390, 1118.0, 33.4365
48.363923681, 96.390, 1129.0, 33.6006
48.390184246, 96.390, 1129.0, 33.6006
48.416444811, 96.390, 1193.0, 34.5398
48.442705377, 96.390, 1304.0, 36.1109
48.468965942, 96.390, 1282.0, 35.8050
48.495226507, 96.390, 1235.0, 35.1426
48.521487073, 96.390, 1251.0, 35.3695
48.547747638, 96.390, 1163.0, 34.1028
48.574008203, 96.390, 1199.0, 34.6266
48.600268769, 96.390, 1273.0, 35.6791
48.626529334, 96.390, 1148.0, 33.8821
48.652789899, 96.390, 1148.0, 33.8821
48.679050465, 96.390, 1128.0, 33.5857
48.705311030, 96.390, 1119.0, 33.4515
48.731571595, 96.390, 1177.0, 34.3074
48.757832161, 96.390, 1098.0, 33.1361
48.784092726, 96.390, 1142.0, 33.7935
48.810353292, 96.390, 1150.0, 33.9116
48.836613857, 96.390, 1105.0, 33.2415
48.862874422, 96.390, 1123.0, 33.5112
48.889134988, 96.390, 1075.0, 32.7872
48.915395553, 96.390, 1112.0, 33.3467
48.941656118, 96.390, 1104.0, 33.2265
48.967916684, 96.390, 1125.0, 33.5410
48.994177249, 96.390, 1098.0, 33.1361
49.020437814, 96.390, 1084.0, 32.9242
49.046698380, 96.390, 1091.0, 33.0303
49.072958945, 96.390, 1101.0, 33.1813
49.099219510, 96.390, 1122.0, 33.4963
49.125480076, 96.390, 1101.0, 33.1813
49.151740641, 96.390, 1154.0, 33.9706
49.178001207, 96.390, 1235.0, 35.1426
49.204261772, 96.390, 1109.0, 33.3017
49.230522337, 96.390, 1155.0, 33.9853
49.256782903, 96.390, 1068.0, 32.6803
49.283043468, 96.390, 1097.0, 33.1210
49.309304033, 96.390, 1118.0, 33.4365
49.335564599, 96.390, 1084.0, 32.9242
49.361825164, 96.390, 1093.0, 33.0606
49.388085729, 96.390, 1176.0, 34.2929
49.414346295, 96.390, 1187.0, 34.4529
49.440606860, 96.390, 1134.0, 33.6749
49.466867425, 96.390, 1095.0, 33.0908
49.493127991, 96.390, 1078.0, 32.8329
49.519388556, 96.390, 1070.0, 32.7109
49.545649121, 96.390, 1085.0, 32.9393
49.571909687, 96.390, 1201.0, 34.6554
49.598170252, 96.390, 1213.0, 34.8281
49.624430818, 96.390, 1400.0, 37.4166
49.650691383, 96.390, 1457.0, 38.1707
49.676951948, 96.390, 1385.0, 37.2156
49.703212514, 96.390, 1489.0, 38.5876
49.729473079, 96.390, 1355.0, 36.8103
49.755733644, 96.390, 1313.0, 36.2353
49.781994210, 96.390, 1401.0, 37.4299
49.808254775, 96.390, 1282.0, 35.8050
49.834515340, 96.390, 1234.0, 35.1283
49.860775906, 96.390, 1195.0, 34.5688
49.887036471, 96.390, 1101.0, 33.1813
49.913297036, 96.390, 1028.0, 32.0624
49.939557602, 96.390, 1050.0, 32.4037
49.965818167, 96.390, 1046.0, 32.3419
49.992078732, 96.390, 1021.0, 31.9531
50.018339298, 96.390, 1007.0, 31.7333
50.044599863, 96.390, 954.0, 30.8869
50.070860429, 96.390, 996.0, 31.5595
50.097120994, 96.390, 1019.0, 31.9218
50.123381559, 96.390, 928.0, 30.4631
50.149642125, 96.390, 990.0, 31.4643
50.175902690, 96.390, 1046.0, 32.3419
50.202163255, 96.390, 1032.0, 32.1248
50.228423821, 96.390, 1083.0, 32.9090
50.254684386, 96.390, 1099.0, 33.1512
50.280944951, 96.390, 1091.0, 33.0303
50.307205517, 96.390, 1031.0, 32.1092
50.333466082, 96.390, 1034.0, 32.1559
50.359726647, 96.390, 1084.0, 32.9242
50.385987213, 96.390, 1081.0, 32.8786
50.412247778, 96.390, 1083.0, 32.9090
50.438508344, 96.390, 1080.0, 32.8634
50.464768909, 96.390, 1001.0, 31.6386
50.491029474, 96.390, 1058.0, 32.5269
50.517290040, 96.390, 1016.0, 31.8748
50.543550605, 96.390, 1032.0, 32.1248
50.569811170, 96.390, 1056.0, 32.4962
50.596071736, 96.390, 1041.0, 32.2645
50.622332301, 96.390, 984.0, 31.3688
50.648592866, 96.390, 992.0, 31.4960
50.674853432, 96.390, 962.0, 31.0161
50.701113997, 96.390, 1029.0, 32.0780
50.727374562, 96.390, 994.0, 31.5278
50.753635128, 96.390, 931.0, 30.5123
50.779895693, 96.390, 1000.0, 31.6228
50.806156258, 96.390, 1014.0, 31.8434
50.832416824, 96.390, 1012.0, 31.8119
50.858677389, 96.390, 996.0, 31.5595
50.884937955, 96.390, 1004.0, 31.6860
50.911198520, 96.390, 999.0, 31.6070
50.937459085, 96.390, 1014.0, 31.8434
50.963719651, 96.390, 1034.0, 32.1559
50.989980216, 96.390, 1097.0, 33.1210
51.016240781, 96.390, 1237.0, 35.1710
51.042501347, 96.390, 1322.0, 36.3593
51.068761912, 96.390, 1202.0, 34.6699
51.095022477, 96.390, 1090.0, 33.0151
51.121283043, 96.390, 1067.0, 32.6650
51.147543608, 96.390, 1058.0, 32.5269
51.173804173, 96.390, 1246.0, 35.2987
51.200064739, 96.390, 1163.0, 34.1028
51.226325304, 96.390, 1055.0, 32.4808
51.252585870, 96.390, 998.0, 31.5911
51.278846435, 96.390, 997.0, 31.5753
51.305107000, 96.390, 994.0, 31.5278
51.331367566, 96.390, 1010.0, 31.7805
51.357628131, 96.390, 1044.0, 32.3110
51.383888696, 96.390, 1013.0, 31.8277
51.410149262, 96.390, 1105.0, 33.2415
51.436409827, 96.390, 1330.0, 36.4692
51.462670392, 96.390, 1133.0, 33.6601
51.488930958, 96.390, 1007.0, 31.7333
51.515191523, 96.390, 1036.0, 32.1870
51.541452088, 96.390, 1032.0, 32.1248
51.567712654, 96.390, 1093.0, 33.0606
51.593973219, 96.390, 1069.0, 32.6956
51.620233784, 96.390, 971.0, 31.1609
51.646494350, 96.390, 927.0, 30.4467
51.672754915, 96.390, 968.0, 31.1127
51.699015481, 96.390, 1026.0, 32.0312
51.725276046, 96.390, 946.0, 30.7571
51.751536611, 96.390, 988.0, 31.4325
51.777797177, 96.390, 917.0, 30.2820
51.804057742, 96.390, 953.0, 30.8707
51.830318307, 96.390, 1020.0, 31.9374
51.856578873, 96.390, 988.0, 31.4325
51.882839438, 96.390, 982.0, 31.3369
51.909100003, 96.390, 966.0, 31.0805
51.935360569, 96.390, 935.0, 30.5778
51.961621134, 96.390, 987.0, 31.4166
51.987881699, 96.390, 1008.0, 31.7490
52.014142265, 96.390, 919.0, 30.3150
52.040402830, 96.390, 944.0, 30.7246
52.066663396, 96.390, 935.0, 30.5778
52.092923961, 96.390, 988.0, 31.4325
52.119184526, 96.390, 989.0, 31.4484
52.145445092, 96.390, 1023.0, 31.9844
52.171705657, 96.390, 997.0, 31.5753
52.197966222, 96.390, 1006.0, 31.7175
52.224226788, 96.390, 963.0, 31.0322
52.250487353, 96.390, 1056.0, 32.4962
52.276747918, 96.390, 1085.0, 32.9393
52.303008484, 96.390, 1075.0, 32.7872
52.329269049, 96.390, 1160.0, 34.0588
52.355529614, 96.390, 1258.0, 35.4683
52.381790180, 96.390, 1228.0, 35.0428
52.408050745, 96.390, 1105.0, 33.2415
52.434311310, 96.390, 1170.0, 34.2053
52.460571876, 96.390, 1128.0, 33.5857
52.486832441, 96.390, 1071.0, 32.7261
52.513093007, 96.390, 1119.0, 33.4515
52.539353572, 96.390, 1117.0, 33.4215
52.565614137, 96.390, 1080.0, 32.8634
52.591874703, 96.390, 1114.0, 33.3766
52.618135268, 96.390, 1028.0, 32.0624
52.644395833, 96.390, 977.0, 31.2570
52.670656399, 96.390, 1006.0, 31.7175
52.696916964, 96.390, 1070.0, 32.7109
52.723177529, 96.390, 1067.0, 32.6650
52.749438095, 96.390, 1058.0, 32.5269
52.775698660, 96.390, 1082.0, 32.8938
52.801959225, 96.390, 961.0, 31.0000
52.828219791, 96.390, 1052.0, 32.4345
52.854480356, 96.390, 1053.0, 32.4500
52.880740922, 96.390, 1117.0, 33.4215
52.907001487, 96.390, 1148.0, 33.8821
52.933262052, 96.390, 1114.0, 33.3766
52.959522618, 96.390, 1087.0, 32.9697
52.985783183, 96.390, 992.0, 31.4960
53.012043748, 96.390, 973.0, 31.1929
53.038304314, 96.390, 1065.0, 32.6343
53.064564879, 96.390, 1123.0, 33.5112
53.090825444, 96.390, 1139.0, 33.7491
53.117086010, 96.390, 1097.0, 33.1210
53.143346575, 96.390, 1322.0, 36.3593
53.169607140, 96.390, 1524.0, 39.0384
53.195867706, 96.390, 1272.0, 35.6651
53.222128271, 96.390, 1146.0, 33.8526
53.248388836, 96.390, 1035.0, 32.1714
53.274649402, 96.390, 1062.0, 32.5883
53.300909967, 96.390, 1210.0, 34.7851
53.327170533, 96.390, 1237.0, 35.1710
53.353431098, 96.390, 1001.0, 31.6386
53.379691663, 96.390, 1031.0, 32.1092
53.405952229, 96.390, 991.0, 31.4802
53.432212794, 96.390, 961.0, 31.0000
53.458473359, 96.390, 897.0, 29.9500
53.484733925, 96.390, 1017.0, 31.8904
53.510994490, 96.390, 974.0, 31.2090
53.537255055, 96.390, 893.0, 29.8831
53.563515621, 96.390, 972.0, 31.1769
53.589776186, 96.390, 888.0, 29.7993
53.616036751, 96.390, 873.0, 29.5466
53.642297317, 96.390, 891.0, 29.8496
53.668557882, 96.390, 933.0, 30.5450
53.694818448, 96.390, 864.0, 29.3939
53.721079013, 96.390, 907.0, 30.1164
53.747339578, 96.390, 986.0, 31.4006
53.773600144, 96.390, 922.0, 30.3645
53.799860709, 96.390, 908.0, 30.1330
53.826121274, 96.390, 982.0, 31.3369
53.852381840, 96.390, 990.0, 31.4643
53.878642405, 96.390, 1030.0, 32.0936
53.904902970, 96.390, 985.0, 31.3847
53.931163536, 96.390, 951.0, 30.8383
53.957424101, 96.390, 1023.0, 31.9844
53.983684666, 96.390, 1000.0, 31.6228
54.009945232, 96.390, 1046.0, 32.3419
54.036205797, 96.390, 1055.0, 32.4808
54.062466362, 96.390, 1029.0, 32.0780
54.088726928, 96.390, 1136.0, 33.7046
54.114987493, 96.390, 1167.0, 34.1614
54.141248059, 96.390, 1139.0, 33.7491
54.167508624, 96.390, 1123.0, 33.5112
54.193769189, 96.390, 1007.0, 31.7333
54.220029755, 96.390, 969.0, 31.1288
54.246290320, 96.390, 1050.0, 32.4037
54.272550885, 96.390, 1069.0, 32.6956
54.298811451, 96.390, 1044.0, 32.3110
54.325072016, 96.390, 1014.0, 31.8434
54.351332581, 96.390, 938.0, 30.6268
54.377593147, 96.390, 969.0, 31.1288
54.403853712, 96.390, 981.0, 31.3209
54.430114277, 96.390, 909.0, 30.1496
54.456374843, 96.390, 880.0, 29.6648
54.482635408, 96.390, 907.0, 30.1164
54.508895973, 96.390, 918.0, 30.2985
54.535156539, 96.390, 976.0, 31.2410
54.561417104, 96.390, 959.0, 30.9677
54.587677670, 96.390, 940.0, 30.6594
54.613938235, 96.390, 1003.0, 31.6702
54.640198800, 96.390, 951.0, 30.8383
54.666459366, 96.390, 902.0, 30.0333
54.692719931, 96.390, 919.0, 30.3150
54.718980496, 96.390, 944.0, 30.7246
54.745241062, 96.390, 914.0, 30.2324
54.771501627, 96.390, 896.0, 29.9333
54.797762192, 96.390, 953.0, 30.8707
54.824022758, 96.390, 893.0, 29.8831
54.850283323, 96.390, 938.0, 30.6268
54.876543888, 96.390, 852.0, 29.1890
54.902804454, 96.390, 909.0, 30.1496
54.929065019, 96.390, 914.0, 30.2324
54.955325585, 96.390, 936.0, 30.5941
54.981586150, 96.390, 948.0, 30.7896
55.007846715, 96.390, 990.0, 31.4643
55.034107281, 96.390, 928.0, 30.4631
55.060367846, 96.390, 1059.0, 32.5423
55.086628411, 96.390, 1231.0, 35.0856
55.112888977, 96.390, 1420.0, 37.6829
55.139149542, 96.390, 1200.0, 34.6410
55.165410107, 96.390, 959.0, 30.9677
55.191670673, 96.390, 945.0, 30.7409
55.217931238, 96.390, 919.0, 30.3150
55.244191803, 96.390, 1045.0, 32.3265
55.270452369, 96.390, 1112.0, 33.3467
55.296712934, 96.390, 966.0, 31.0805
55.322973499, 96.390, 935.0, 30.5778
55.349234065, 96.390, 878.0, 29.6311
55.375494630, 96.390, 880.0, 29.6648
55.401755196, 96.390, 925.0, 30.4138
55.428015761, 96.390, 908.0, 30.1330
55.454276326, 96.390, 923.0, 30.3809
55.480536892, 96.390, 872.0, 29.5296
55.506797457, 96.390, 895.0, 29.9166
55.533058022, 96.390, 844.0, 29.0517
55.559318588, 96.390, 923.0, 30.3809
55.585579153, 96.390, 886.0, 29.7658
55.611839718, 96.390, 821.0, 28.6531
55.638100284, 96.390, 909.0, 30.1496
55.664360849, 96.390, 837.0, 28.9310
55.690621414, 96.390, 854.0, 29.2233
55.716881980, 96.390, 871.0, 29.5127
55.743142545, 96.390, 872.0, 29.5296
55.769403111, 96.390, 841.0, 29.0000
55.795663676, 96.390, 911.0, 30.1828
55.821924241, 96.390, 850.0, 29.1548
55.848184807, 96.390, 818.0, 28.6007
55.874445372, 96.390, 871.0, 29.5127
55.900705937, 96.390, 854.0, 29.2233
55.926966503, 96.390, 882.0, 29.6985
55.953227068, 96.390, 859.0, 29.3087
55.979487633, 96.390, 860.0, 29.3258
56.005748199, 96.390, 844.0, 29.0517
56.032008764, 96.390, 871.0, 29.5127
56.058269329, 96.390, 886.0, 29.7658
56.084529895, 96.390, 852.0, 29.1890
56.110790460, 96.390, 881.0, 29.6816
56.137051025, 96.390, 843.0, 29.0345
56.163311591, 96.390, 909.0, 30.1496
56.189572156, 96.390, 909.0, 30.1496
56.215832722, 96.390, 857.0, 29.2746
56.242093287, 96.390, 905.0, 30.0832
56.268353852, 96.390, 847.0, 29.1033
56.294614418, 96.390, 921.0, 30.3480
56.320874983, 96.390, 933.0, 30.5450
56.347135548, 96.390, 839.0, 28.9655
56.373396114, 96.390, 838.0, 28.9482
56.399656679, 96.390, 876.0, 29.5973
56.425917244, 96.390, 791.0, 28.1247
56.452177810, 96.390, 861.0, 29.3428
56.478438375, 96.390, 834.0, 28.8791
56.504698940, 96.390, 843.0, 29.0345
56.530959506, 96.390, 823.0, 28.6880
56.557220071, 96.390, 892.0, 29.8664
56.583480637, 96.390, 878.0, 29.6311
56.609741202, 96.390, 802.0, 28.3196
56.636001767, 96.390, 881.0, 29.6816
56.662262333, 96.390, 885.0, 29.7489
56.688522898, 96.390, 859.0, 29.3087
56.714783463, 96.390, 826.0, 28.7402
56.741044029, 96.390, 841.0, 29.0000
56.767304594, 96.390, 833.0, 28.8617
56.793565159, 96.390, 870.0, 29.4958
56.819825725, 96.390, 855.0, 29.2404
56.846086290, 96.390, 793.0, 28.1603
56.872346855, 96.390, 790.0, 28.1069
56.898607421, 96.390, 896.0, 29.9333
56.924867986, 96.390, 823.0, 28.6880
56.951128551, 96.390, 795.0, 28.1957
56.977389117, 96.390, 863.0, 29.3769
57.003649682, 96.390, 765.0, 27.6586
57.029910248, 96.390, 801.0, 28.3019
57.056170813, 96.390, 872.0, 29.5296
57.082431378, 96.390, 827.0, 28.7576
57.108691944, 96.390, 844.0, 29.0517
57.134952509, 96.390, 832.0, 28.8444
57.161213074, 96.390, 789.0, 28.0891
57.187473640, 96.390, 886.0, 29.7658
57.213734205, 96.390, 847.0, 29.1033
57.239994770, 96.390, 875.0, 29.5804
57.266255336, 96.390, 889.0, 29.8161
57.292515901, 96.390, 882.0, 29.6985
57.318776466, 96.390, 1070.0, 32.7109
57.345037032, 96.390, 1155.0, 33.9853
57.371297597, 96.390, 987.0, 31.4166
57.397558163, 96.390, 929.0, 30.4795
57.423818728, 96.390, 1008.0, 31.7490
57.450079293, 96.390, 995.0, 31.5436
57.476339859, 96.390, 1247.0, 35.3129
57.502600424, 96.390, 1156.0, 34.0000
57.528860989, 96.390, 956.0, 30.9192
57.555121555, 96.390, 902.0, 30.0333
57.581382120, 96.390, 872.0, 29.5296
57.607642685, 96.390, 971.0, 31.1609
57.633903251, 96.390, 1053.0, 32.4500
57.660163816, 96.390, 941.0, 30.6757
57.686424381, 96.390, 1034.0, 32.1559
57.712684947, 96.390, 1081.0, 32.8786
57.738945512, 96.390, 1018.0, 31.9061
57.765206077, 96.390, 957.0, 30.9354
57.791466643, 96.390, 925.0, 30.4138
57.817727208, 96.390, 960.0, 30.9839
57.843987774, 96.390, 1037.0, 32.2025
57.870248339, 96.390, 1007.0, 31.7333
57.896508904, 96.390, 1037.0, 32.2025
57.922769470, 96.390, 913.0, 30.2159
57.949030035, 96.390, 943.0, 30.7083
57.975290600, 96.390, 833.0, 28.8617
58.001551166, 96.390, 870.0, 29.4958
58.027811731, 96.390, 900.0, 30.0000
58.054072296, 96.390, 915.0, 30.2490
58.080332862, 96.390, 878.0, 29.6311
58.106593427, 96.390, 858.0, 29.2916
58.132853992, 96.390, 864.0, 29.3939
58.159114558, 96.390, 860.0, 29.3258
58.185375123, 96.390, 879.0, 29.6479
58.211635689, 96.390, 825.0, 28.7228
58.237896254, 96.390, 865.0, 29.4109
58.264156819, 96.390, 843.0, 29.0345
58.290417385, 96.390, 801.0, 28.3019
58.316677950, 96.390, 835.0, 28.8964
58.342938515, 96.390, 849.0, 29.1376
58.369199081, 96.390, 830.0, 28.8097
58.395459646, 96.390, 827.0, 28.7576
58.421720211, 96.390, 781.0, 27.9464
58.447980777, 96.390, 784.0, 28.0000
58.474241342, 96.390, 893.0, 29.8831
58.500501907, 96.390, 807.0, 28.4077
58.526762473, 96.390, 846.0, 29.0861
58.553023038, 96.390, 813.0, 28.5132
58.579283603, 96.390, 835.0, 28.8964
58.605544169, 96.390, 794.0, 28.1780
58.631804734, 96.390, 818.0, 28.6007
58.658065300, 96.390, 791.0, 28.1247
58.684325865, 96.390, 835.0, 28.8964
58.710586430, 96.390, 848.0, 29.1204
58.736846996, 96.390, 828.0, 28.7750
58.763107561, 96.390, 863.0, 29.3769
58.789368126, 96.390, 762.0, 27.6043
58.815628692, 96.390, 781.0, 27.9464
58.841889257, 96.390, 787.0, 28.0535
58.868149822, 96.390, 761.0, 27.5862
58.894410388, 96.390, 821.0, 28.6531
58.920670953, 96.390, 821.0, 28.6531
58.946931518, 96.390, 843.0, 29.0345
58.973192084, 96.390, 816.0, 28.5657
58.999452649, 96.390, 851.0, 29.1719
59.025713214, 96.390, 851.0, 29.1719
59.051973780, 96.390, 813.0, 28.5132
59.078234345, 96.390, 838.0, 28.9482
59.104494911, 96.390, 804.0, 28.3549
59.130755476, 96.390, 780.0, 27.9285
59.157016041, 96.390, 776.0, 27.8568
59.183276607, 96.390, 872.0, 29.5296
59.209537172, 96.390, 884.0, 29.7321
59.235797737, 96.390, 849.0, 29.1376
59.262058303, 96.390, 857.0, 29.2746
59.288318868, 96.390, 919.0, 30.3150
59.314579433, 96.390, 902.0, 30.0333
59.340839999, 96.390, 937.0, 30.6105
59.367100564, 96.390, 901.0, 30.0167
59.393361129, 96.390, 917.0, 30.2820
59.419621695, 96.390, 844.0, 29.0517
59.445882260, 96.390, 861.0, 29.3428
59.472142826, 96.390, 793.0, 28.1603
59.498403391, 96.390, 833.0, 28.8617
59.524663956, 96.390, 928.0, 30.4631
59.550924522, 96.390, 908.0, 30.1330
59.577185087, 96.390, 832.0, 28.8444
59.603445652, 96.390, 793.0, 28.1603
59.629706218, 96.390, 838.0, 28.9482
59.655966783, 96.390, 870.0, 29.4958
59.682227348, 96.390, 838.0, 28.9482
59.708487914, 96.390, 837.0, 28.9310
59.734748479, 96.390, 848.0, 29.1204
59.761009044, 96.390, 861.0, 29.3428
59.787269610, 96.390, 871.0, 29.5127
59.813530175, 96.390, 795.0, 28.1957
59.839790740, 96.390, 847.0, 29.1033
59.866051306, 96.390, 865.0, 29.4109
59.892311871, 96.390, 800.0, 28.2843
59.918572437, 96.390, 883.0, 29.7153
59.944833002, 96.390, 826.0, 28.7402
59.971093567, 96.390, 835.0, 28.8964
59.997354133, 96.390, 888.0, 29.7993
60.023614698, 96.390, 861.0, 29.3428
60.049875263, 96.390, 872.0, 29.5296
60.076135829, 96.390, 902.0, 30.0333
60.102396394, 96.390, 900.0, 30.0000
60.128656959, 96.390, 872.0, 29.5296
60.154917525, 96.390, 814.0, 28.5307
60.181178090, 96.390, 917.0, 30.2820
60.207438655, 96.390, 867.0, 29.4449
60.233699221, 96.390, 861.0, 29.3428
60.259959786, 96.390, 892.0, 29.8664
60.286220352, 96.390, 908.0, 30.1330
60.312480917, 96.390, 912.0, 30.1993
60.338741482, 96.390, 885.0, 29.7489
60.365002048, 96.390, 914.0, 30.2324
60.391262613, 96.390, 979.0, 31.2890
60.417523178, 96.390, 1013.0, 31.8277
60.443783744, 96.390, 944.0, 30.7246
60.470044309, 96.390, 983.0, 31.3528
60.496304874, 96.390, 1025.0, 32.0156
60.522565440, 96.390, 961.0, 31.0000
60.548826005, 96.390, 1063.0, 32.6037
60.575086570, 96.390, 1079.0, 32.8481
60.601347136, 96.390, 1086.0, 32.9545
60.627607701, 96.390, 1083.0, 32.9090
60.653868266, 96.390, 1118.0, 33.4365
60.680128832, 96.390, 1149.0, 33.8969
60.706389397, 96.390, 1122.0, 33.4963
60.732649963, 96.390, 1123.0, 33.5112
60.758910528, 96.390, 1172.0, 34.2345
60.785171093, 96.390, 1146.0, 33.8526
60.811431659, 96.390, 1171.0, 34.2199
60.837692224, 96.390, 1215.0, 34.8569
60.863952789, 96.390, 1203.0, 34.6843
60.890213355, 96.390, 1262.0, 35.5246
60.916473920, 96.390, 1272.0, 35.6651
60.942734485, 96.390, 1265.0, 35.5668
60.968995051, 96.390, 1211.0, 34.7994
60.995255616, 96.390, 1315.0, 36.2629
61.021516181, 96.390, 1216.0, 34.8712
61.047776747, 96.390, 1294.0, 35.9722
61.074037312, 96.390, 1285.0, 35.8469
61.100297878, 96.390, 1333.0, 36.5103
61.126558443, 96.390, 1309.0, 36.1801
61.152819008, 96.390, 1356.0, 36.8239
61.179079574, 96.390, 1361.0, 36.8917
61.205340139, 96.390, 1482.0, 38.4968
61.231600704, 96.390, 1398.0, 37.3898
61.257861270, 96.390, 1239.0, 35.1994
61.284121835, 96.390, 1228.0, 35.0428
61.310382400, 96.390, 1206.0, 34.7275
61.336642966, 96.390, 1177.0, 34.3074
61.362903531, 96.390, 1219.0, 34.9142
61.389164096, 96.390, 1281.0, 35.7911
61.415424662, 96.390, 1183.0, 34.3948
61.441685227, 96.390, 1145.0, 33.8378
61.467945792, 96.390, 1155.0, 33.9853
61.494206358, 96.390, 1110.0, 33.3167
61.520466923, 96.390, 1043.0, 32.2955
61.546727489, 96.390, 1153.0, 33.9559
61.572988054, 96.390, 1178.0, 34.3220
61.599248619, 96.390, 1104.0, 33.2265
61.625509185, 96.390, 1150.0, 33.9116
61.651769750, 96.390, 1101.0, 33.1813
61.678030315, 96.390, 1075.0, 32.7872
61.704290881, 96.390, 1063.0, 32.6037
61.730551446, 96.390, 1067.0, 32.6650
61.756812011, 96.390, 1102.0, 33.1964
61.783072577, 96.390, 1093.0, 33.0606
61.809333142, 96.390, 1019.0, 31.9218
61.835593707, 96.390, 1028.0, 32.0624
61.861854273, 96.390, 939.0, 30.6431
61.888114838, 96.390, 996.0, 31.5595
61.914375404, 96.390, 973.0, 31.1929
61.940635969, 96.390, 1031.0, 32.1092
61.966896534, 96.390, 1018.0, 31.9061
61.993157100, 96.390, 1026.0, 32.0312
62.019417665, 96.390, 990.0, 31.4643
62.045678230, 96.390, 961.0, 31.0000
62.071938796, 96.390, 1019.0, 31.9218
62.098199361, 96.390, 953.0, 30.8707
62.124459926, 96.390, 944.0, 30.7246
62.150720492, 96.390, 955.0, 30.9031
62.176981057, 96.390, 966.0, 31.0805
62.203241622, 96.390, 1016.0, 31.8748
62.229502188, 96.390, 983.0, 31.3528
62.255762753, 96.390, 985.0, 31.3847
62.282023318, 96.390, 892.0, 29.8664
62.308283884, 96.390, 943.0, 30.7083
62.334544449, 96.390, 965.0, 31.0644
62.360805015, 96.390, 943.0, 30.7083
62.387065580, 96.390, 972.0, 31.1769
62.413326145, 96.390, 915.0, 30.2490
62.439586711, 96.390, 873.0, 29.5466
62.465847276, 96.390, 935.0, 30.5778
62.492107841, 96.390, 904.0, 30.0666
62.518368407, 96.390, 896.0, 29.9333
62.544628972, 96.390, 849.0, 29.1376
62.570889537, 96.390, 868.0, 29.4618
62.597150103, 96.390, 906.0, 30.0998
62.623410668, 96.390, 898.0, 29.9666
62.649671233, 96.390, 851.0, 29.1719
62.675931799, 96.390, 862.0, 29.3598
62.702192364, 96.390, 840.0, 28.9828
62.728452930, 96.390, 841.0, 29.0000
62.754713495, 96.390, 836.0, 28.9137
62.780974060, 96.390, 848.0, 29.1204
62.807234626, 96.390, 873.0, 29.5466
62.833495191, 96.390, 820.0, 28.6356
62.859755756, 96.390, 830.0, 28.8097
62.886016322, 96.390, 820.0, 28.6356
62.912276887, 96.390, 834.0, 28.8791
62.938537452, 96.390, 819.0, 28.6182
62.964798018, 96.390, 758.0, 27.5318
62.991058583, 96.390, 853.0, 29.2062
63.017319148, 96.390, 841.0, 29.0000
63.043579714, 96.390, 813.0, 28.5132
63.069840279, 96.390, 813.0, 28.5132
63.096100844, 96.390, 776.0, 27.8568
63.122361410, 96.390, 779.0, 27.9106
63.148621975, 96.390, 791.0, 28.1247
63.174882541, 96.390, 750.0, 27.3861
63.201143106, 96.390, 742.0, 27.2397
63.227403671, 96.390, 761.0, 27.5862
63.253664237, 96.390, 828.0, 28.7750
63.279924802, 96.390, 819.0, 28.6182
63.306185367, 96.390, 770.0, 27.7489
63.332445933, 96.390, 779.0, 27.9106
63.358706498, 96.390, 824.0, 28.7054
63.384967063, 96.390, 775.0, 27.8388
63.411227629, 96.390, 740.0, 27.2029
63.437488194, 96.390, 749.0, 27.3679
63.463748759, 96.390, 826.0, 28.7402
63.490009325, 96.390, 785.0, 28.0179
63.516269890, 96.390, 755.0, 27.4773
63.542530455, 96.390, 800.0, 28.2843
63.568791021, 96.390, 786.0, 28.0357
63.595051586, 96.390, 750.0, 27.3861
63.621312152, 96.390, 819.0, 28.6182
63.647572717, 96.390, 827.0, 28.7576
63.673833282, 96.390, 795.0, 28.1957
63.700093848, 96.390, 776.0, 27.8568
63.726354413, 96.390, 729.0, 27.0000
63.752614978, 96.390, 722.0, 26.8701
63.778875544, 96.390, 763.0, 27.6225
63.805136109, 96.390, 808.0, 28.4253
63.831396674, 96.390, 768.0, 27.7128
63.857657240, 96.390, 781.0, 27.9464
63.883917805, 96.390, 809.0, 28.4429
63.910178370, 96.390, 846.0, 29.0861
63.936438936, 96.390, 895.0, 29.9166
63.962699501, 96.390, 949.0, 30.8058
63.988960067, 96.390, 915.0, 30.2490
64.015220632, 96.390, 823.0, 28.6880
64.041481197, 96.390, 741.0, 27.2213
64.067741763, 96.390, 792.0, 28.1425
64.094002328, 96.390, 830.0, 28.8097
64.120262893, 96.390, 905.0, 30.0832
64.146523459, 96.390, 910.0, 30.1662
64.172784024, 96.390, 768.0, 27.7128
64.199044589, 96.390, 807.0, 28.4077
64.225305155, 96.390, 800.0, 28.2843
64.251565720, 96.390, 791.0, 28.1247
64.277826285, 96.390, 779.0, 27.9106
64.304086851, 96.390, 771.0, 27.7669
64.330347416, 96.390, 722.0, 26.8701
64.356607981, 96.390, 792.0, 28.1425
64.382868547, 96.390, 775.0, 27.8388
64.409129112, 96.390, 688.0, 26.2298
64.435389678, 96.390, 743.0, 27.2580
64.461650243, 96.390, 690.0, 26.2679
64.487910808, 96.390, 766.0, 27.6767
64.514171374, 96.390, 727.0, 26.9629
64.540431939, 96.390, 738.0, 27.1662
64.566692504, 96.390, 715.0, 26.7395
64.592953070, 96.390, 767.0, 27.6948
64.619213635, 96.390, 748.0, 27.3496
64.645474200, 96.390, 687.0, 26.2107
64.671734766, 96.390, 755.0, 27.4773
64.697995331, 96.390, 695.0, 26.3629
64.724255896, 96.390, 775.0, 27.8388
64.750516462, 96.390, 757.0, 27.5136
64.776777027, 96.390, 770.0, 27.7489
64.803037593, 96.390, 810.0, 28.4605
64.829298158, 96.390, 761.0, 27.5862
64.855558723, 96.390, 736.0, 27.1293
64.881819289, 96.390, 822.0, 28.6705
64.908079854, 96.390, 813.0, 28.5132
64.934340419, 96.390, 747.0, 27.3313
64.960600985, 96.390, 750.0, 27.3861
64.986861550, 96.390, 732.0, 27.0555
