[Measurement conditions]
Sample identification,XRD_PCornernul_Act03May22_B1_1000M_NaOH_LS0133_1
Comment - 1,"Configuration=Stage for Flat Samples/Holders, Owner=User-1, Creation date=7/1/2020 9:53:24 AM"
Comment - 2,"Goniometer=Theta/Theta; Minimum step size 2Theta:0.0001; Minimum step size Omega:0.0001"
Comment - 3,"Sample stage=Stage for flat samples/holders"
Comment - 4,"Diffractometer system=EMPYREAN"
Comment - 5,"Measurement program=C:\Users\ibo5034\OneDrive - The Pennsylvania State University\NEUP\Zerobackground scan.xrdmp, Identifier={98A3B11C-88F9-4AA6-982C-73314A311EF5}"
Anode material,Cu
K-Alpha1 wavelength,1.5405980
K-Alpha2 wavelength,1.5444260
Ratio K-Alpha2/K-Alpha1,0.500
Divergence slit,Fixed,0.25
Monochromator used,NO
Generator voltage, 45
Tube current, 40
File date and time,03/Jun/2022 15:26
Unit cell,
h k l, 0 0 0
Scan axis,Gonio
Scan range,4.994599997,64.999991833
Scan step size,0.0262606
No. of points, 2285
Scan type,CONTINUOUS
Time per step,96.390
[Scan points]
Angle, TimePerStep, Intensity, ESD
5.007730280, 96.390, 5764.0, 75.9210
5.033990845, 96.390, 5721.0, 75.6373
5.060251411, 96.390, 5668.0, 75.2861
5.086511976, 96.390, 5609.0, 74.8933
5.112772541, 96.390, 5511.0, 74.2361
5.139033107, 96.390, 5457.0, 73.8715
5.165293672, 96.390, 5426.0, 73.6614
5.191554237, 96.390, 5438.0, 73.7428
5.217814803, 96.390, 5301.0, 72.8080
5.244075368, 96.390, 5202.0, 72.1249
5.270335934, 96.390, 5145.0, 71.7287
5.296596499, 96.390, 5270.0, 72.5948
5.322857064, 96.390, 5248.0, 72.4431
5.349117630, 96.390, 5063.0, 71.1548
5.375378195, 96.390, 5076.0, 71.2461
5.401638760, 96.390, 5152.0, 71.7774
5.427899326, 96.390, 4818.0, 69.4118
5.454159891, 96.390, 4951.0, 70.3633
5.480420456, 96.390, 4893.0, 69.9500
5.506681022, 96.390, 4937.0, 70.2638
5.532941587, 96.390, 4938.0, 70.2709
5.559202152, 96.390, 4905.0, 70.0357
5.585462718, 96.390, 4969.0, 70.4911
5.611723283, 96.390, 4666.0, 68.3081
5.637983849, 96.390, 4949.0, 70.3491
5.664244414, 96.390, 4800.0, 69.2820
5.690504979, 96.390, 4744.0, 68.8767
5.716765545, 96.390, 4661.0, 68.2715
5.743026110, 96.390, 4723.0, 68.7241
5.769286675, 96.390, 4690.0, 68.4836
5.795547241, 96.390, 4672.0, 68.3520
5.821807806, 96.390, 4681.0, 68.4178
5.848068371, 96.390, 4565.0, 67.5648
5.874328937, 96.390, 4469.0, 66.8506
5.900589502, 96.390, 4488.0, 66.9925
5.926850067, 96.390, 4506.0, 67.1267
5.953110633, 96.390, 4524.0, 67.2607
5.979371198, 96.390, 4513.0, 67.1789
6.005631763, 96.390, 4441.0, 66.6408
6.031892329, 96.390, 4458.0, 66.7683
6.058152894, 96.390, 4433.0, 66.5808
6.084413460, 96.390, 4209.0, 64.8768
6.110674025, 96.390, 4424.0, 66.5132
6.136934590, 96.390, 4477.0, 66.9104
6.163195156, 96.390, 4269.0, 65.3376
6.189455721, 96.390, 4405.0, 66.3702
6.215716286, 96.390, 4326.0, 65.7723
6.241976852, 96.390, 4277.0, 65.3988
6.268237417, 96.390, 4348.0, 65.9394
6.294497982, 96.390, 4274.0, 65.3758
6.320758548, 96.390, 4254.0, 65.2227
6.347019113, 96.390, 4286.0, 65.4675
6.373279678, 96.390, 4157.0, 64.4748
6.399540244, 96.390, 4168.0, 64.5600
6.425800809, 96.390, 4095.0, 63.9922
6.452061375, 96.390, 4173.0, 64.5988
6.478321940, 96.390, 4162.0, 64.5136
6.504582505, 96.390, 4063.0, 63.7417
6.530843071, 96.390, 4106.0, 64.0781
6.557103636, 96.390, 4227.0, 65.0154
6.583364201, 96.390, 4142.0, 64.3584
6.609624767, 96.390, 4096.0, 64.0000
6.635885332, 96.390, 4080.0, 63.8749
6.662145897, 96.390, 4089.0, 63.9453
6.688406463, 96.390, 4156.0, 64.4670
6.714667028, 96.390, 3987.0, 63.1427
6.740927593, 96.390, 3951.0, 62.8570
6.767188159, 96.390, 4069.0, 63.7887
6.793448724, 96.390, 4066.0, 63.7652
6.819709289, 96.390, 4112.0, 64.1249
6.845969855, 96.390, 4086.0, 63.9218
6.872230420, 96.390, 4035.0, 63.5216
6.898490986, 96.390, 4008.0, 63.3088
6.924751551, 96.390, 4260.0, 65.2687
6.951012116, 96.390, 4125.0, 64.2262
6.977272682, 96.390, 4157.0, 64.4748
7.003533247, 96.390, 4157.0, 64.4748
7.029793812, 96.390, 4296.0, 65.5439
7.056054378, 96.390, 4333.0, 65.8255
7.082314943, 96.390, 4318.0, 65.7115
7.108575508, 96.390, 4381.0, 66.1891
7.134836074, 96.390, 4537.0, 67.3573
7.161096639, 96.390, 4479.0, 66.9253
7.187357204, 96.390, 4587.0, 67.7274
7.213617770, 96.390, 4575.0, 67.6387
7.239878335, 96.390, 4565.0, 67.5648
7.266138900, 96.390, 4738.0, 68.8331
7.292399466, 96.390, 4899.0, 69.9929
7.318660031, 96.390, 5077.0, 71.2531
7.344920597, 96.390, 5151.0, 71.7705
7.371181162, 96.390, 5151.0, 71.7705
7.397441727, 96.390, 5188.0, 72.0278
7.423702293, 96.390, 5117.0, 71.5332
7.449962858, 96.390, 5516.0, 74.2698
7.476223423, 96.390, 5529.0, 74.3572
7.502483989, 96.390, 5883.0, 76.7007
7.528744554, 96.390, 5906.0, 76.8505
7.555005119, 96.390, 6163.0, 78.5048
7.581265685, 96.390, 6304.0, 79.3977
7.607526250, 96.390, 6489.0, 80.5543
7.633786815, 96.390, 6636.0, 81.4616
7.660047381, 96.390, 6536.0, 80.8455
7.686307946, 96.390, 6493.0, 80.5792
7.712568512, 96.390, 6761.0, 82.2253
7.738829077, 96.390, 6564.0, 81.0185
7.765089642, 96.390, 6560.0, 80.9938
7.791350208, 96.390, 6384.0, 79.8999
7.817610773, 96.390, 5868.0, 76.6029
7.843871338, 96.390, 5773.0, 75.9803
7.870131904, 96.390, 5527.0, 74.3438
7.896392469, 96.390, 5314.0, 72.8972
7.922653034, 96.390, 4930.0, 70.2140
7.948913600, 96.390, 4659.0, 68.2569
7.975174165, 96.390, 4465.0, 66.8207
8.001434730, 96.390, 4279.0, 65.4141
8.027695296, 96.390, 4089.0, 63.9453
8.053955861, 96.390, 3855.0, 62.0886
8.080216426, 96.390, 3831.0, 61.8951
8.106476992, 96.390, 3743.0, 61.1801
8.132737557, 96.390, 3766.0, 61.3677
8.158998123, 96.390, 3660.0, 60.4979
8.185258688, 96.390, 3569.0, 59.7411
8.211519253, 96.390, 3589.0, 59.9083
8.237779819, 96.390, 3559.0, 59.6574
8.264040384, 96.390, 3364.0, 58.0000
8.290300949, 96.390, 3465.0, 58.8643
8.316561515, 96.390, 3413.0, 58.4209
8.342822080, 96.390, 3386.0, 58.1893
8.369082645, 96.390, 3400.0, 58.3095
8.395343211, 96.390, 3374.0, 58.0861
8.421603776, 96.390, 3299.0, 57.4369
8.447864341, 96.390, 3249.0, 57.0000
8.474124907, 96.390, 3166.0, 56.2672
8.500385472, 96.390, 3118.0, 55.8391
8.526646038, 96.390, 3160.0, 56.2139
8.552906603, 96.390, 3208.0, 56.6392
8.579167168, 96.390, 3219.0, 56.7362
8.605427734, 96.390, 3181.0, 56.4004
8.631688299, 96.390, 3209.0, 56.6480
8.657948864, 96.390, 3271.0, 57.1927
8.684209430, 96.390, 3163.0, 56.2406
8.710469995, 96.390, 3248.0, 56.9912
8.736730560, 96.390, 3159.0, 56.2050
8.762991126, 96.390, 3169.0, 56.2939
8.789251691, 96.390, 3111.0, 55.7763
8.815512256, 96.390, 3164.0, 56.2494
8.841772822, 96.390, 3193.0, 56.5066
8.868033387, 96.390, 3083.0, 55.5248
8.894293952, 96.390, 3111.0, 55.7763
8.920554518, 96.390, 3098.0, 55.6597
8.946815083, 96.390, 3121.0, 55.8659
8.973075649, 96.390, 3006.0, 54.8270
8.999336214, 96.390, 3064.0, 55.3534
9.025596779, 96.390, 3201.0, 56.5774
9.051857345, 96.390, 3263.0, 57.1227
9.078117910, 96.390, 3077.0, 55.4707
9.104378475, 96.390, 3192.0, 56.4978
9.130639041, 96.390, 3170.0, 56.3028
9.156899606, 96.390, 3259.0, 57.0877
9.183160171, 96.390, 3215.0, 56.7010
9.209420737, 96.390, 3215.0, 56.7010
9.235681302, 96.390, 3334.0, 57.7408
9.261941867, 96.390, 3403.0, 58.3352
9.288202433, 96.390, 3412.0, 58.4123
9.314462998, 96.390, 3488.0, 59.0593
9.340723564, 96.390, 3515.0, 59.2874
9.366984129, 96.390, 3614.0, 60.1166
9.393244694, 96.390, 3803.0, 61.6685
9.419505260, 96.390, 3904.0, 62.4820
9.445765825, 96.390, 4063.0, 63.7417
9.472026390, 96.390, 4519.0, 67.2235
9.498286956, 96.390, 4763.0, 69.0145
9.524547521, 96.390, 4906.0, 70.0428
9.550808086, 96.390, 4901.0, 70.0071
9.577068652, 96.390, 4715.0, 68.6659
9.603329217, 96.390, 4280.0, 65.4217
9.629589782, 96.390, 3896.0, 62.4179
9.655850348, 96.390, 3466.0, 58.8727
9.682110913, 96.390, 3256.0, 57.0614
9.708371478, 96.390, 3062.0, 55.3353
9.734632044, 96.390, 2969.0, 54.4885
9.760892609, 96.390, 3049.0, 55.2178
9.787153175, 96.390, 2897.0, 53.8238
9.813413740, 96.390, 2787.0, 52.7920
9.839674305, 96.390, 2874.0, 53.6097
9.865934871, 96.390, 2835.0, 53.2447
9.892195436, 96.390, 2862.0, 53.4977
9.918456001, 96.390, 2851.0, 53.3948
9.944716567, 96.390, 2804.0, 52.9528
9.970977132, 96.390, 2750.0, 52.4404
9.997237697, 96.390, 2703.0, 51.9904
10.023498263, 96.390, 2688.0, 51.8459
10.049758828, 96.390, 2640.0, 51.3809
10.076019393, 96.390, 2627.0, 51.2543
10.102279959, 96.390, 2660.0, 51.5752
10.128540524, 96.390, 2770.0, 52.6308
10.154801090, 96.390, 2738.0, 52.3259
10.181061655, 96.390, 2671.0, 51.6817
10.207322220, 96.390, 2689.0, 51.8556
10.233582786, 96.390, 2776.0, 52.6878
10.259843351, 96.390, 2693.0, 51.8941
10.286103916, 96.390, 2628.0, 51.2640
10.312364482, 96.390, 2654.0, 51.5170
10.338625047, 96.390, 2644.0, 51.4198
10.364885612, 96.390, 2668.0, 51.6527
10.391146178, 96.390, 2731.0, 52.2590
10.417406743, 96.390, 2698.0, 51.9423
10.443667308, 96.390, 2651.0, 51.4879
10.469927874, 96.390, 2683.0, 51.7977
10.496188439, 96.390, 2562.0, 50.6162
10.522449004, 96.390, 2627.0, 51.2543
10.548709570, 96.390, 2578.0, 50.7740
10.574970135, 96.390, 2568.0, 50.6754
10.601230701, 96.390, 2690.0, 51.8652
10.627491266, 96.390, 2611.0, 51.0979
10.653751831, 96.390, 2570.0, 50.6952
10.680012397, 96.390, 2587.0, 50.8626
10.706272962, 96.390, 2478.0, 49.7795
10.732533527, 96.390, 2561.0, 50.6063
10.758794093, 96.390, 2674.0, 51.7107
10.785054658, 96.390, 2505.0, 50.0500
10.811315223, 96.390, 2584.0, 50.8331
10.837575789, 96.390, 2554.0, 50.5371
10.863836354, 96.390, 2626.0, 51.2445
10.890096919, 96.390, 2662.0, 51.5946
10.916357485, 96.390, 2645.0, 51.4296
10.942618050, 96.390, 2521.0, 50.2096
10.968878616, 96.390, 2598.0, 50.9706
10.995139181, 96.390, 2683.0, 51.7977
11.021399746, 96.390, 2667.0, 51.6430
11.047660312, 96.390, 2600.0, 50.9902
11.073920877, 96.390, 2688.0, 51.8459
11.100181442, 96.390, 2641.0, 51.3907
11.126442008, 96.390, 2814.0, 53.0471
11.152702573, 96.390, 2760.0, 52.5357
11.178963138, 96.390, 2832.0, 53.2165
11.205223704, 96.390, 2722.0, 52.1728
11.231484269, 96.390, 2785.0, 52.7731
11.257744834, 96.390, 2731.0, 52.2590
11.284005400, 96.390, 2554.0, 50.5371
11.310265965, 96.390, 2755.0, 52.4881
11.336526530, 96.390, 2551.0, 50.5074
11.362787096, 96.390, 2658.0, 51.5558
11.389047661, 96.390, 2531.0, 50.3090
11.415308227, 96.390, 2520.0, 50.1996
11.441568792, 96.390, 2502.0, 50.0200
11.467829357, 96.390, 2542.0, 50.4183
11.494089923, 96.390, 2525.0, 50.2494
11.520350488, 96.390, 2518.0, 50.1797
11.546611053, 96.390, 2508.0, 50.0799
11.572871619, 96.390, 2533.0, 50.3289
11.599132184, 96.390, 2656.0, 51.5364
11.625392749, 96.390, 2580.0, 50.7937
11.651653315, 96.390, 2675.0, 51.7204
11.677913880, 96.390, 2631.0, 51.2933
11.704174445, 96.390, 2647.0, 51.4490
11.730435011, 96.390, 2654.0, 51.5170
11.756695576, 96.390, 2791.0, 52.8299
11.782956141, 96.390, 2745.0, 52.3927
11.809216707, 96.390, 2765.0, 52.5833
11.835477272, 96.390, 2737.0, 52.3163
11.861737838, 96.390, 2746.0, 52.4023
11.887998403, 96.390, 2831.0, 53.2071
11.914258968, 96.390, 2709.0, 52.0481
11.940519534, 96.390, 2806.0, 52.9717
11.966780099, 96.390, 2752.0, 52.4595
11.993040664, 96.390, 2645.0, 51.4296
12.019301230, 96.390, 2564.0, 50.6360
12.045561795, 96.390, 2501.0, 50.0100
12.071822360, 96.390, 2523.0, 50.2295
12.098082926, 96.390, 2446.0, 49.4571
12.124343491, 96.390, 2414.0, 49.1325
12.150604056, 96.390, 2469.0, 49.6890
12.176864622, 96.390, 2411.0, 49.1019
12.203125187, 96.390, 2420.0, 49.1935
12.229385753, 96.390, 2351.0, 48.4871
12.255646318, 96.390, 2467.0, 49.6689
12.281906883, 96.390, 2363.0, 48.6107
12.308167449, 96.390, 2432.0, 49.3153
12.334428014, 96.390, 2388.0, 48.8672
12.360688579, 96.390, 2325.0, 48.2183
12.386949145, 96.390, 2318.0, 48.1456
12.413209710, 96.390, 2330.0, 48.2701
12.439470275, 96.390, 2362.0, 48.6004
12.465730841, 96.390, 2321.0, 48.1768
12.491991406, 96.390, 2389.0, 48.8774
12.518251971, 96.390, 2387.0, 48.8569
12.544512537, 96.390, 2356.0, 48.5386
12.570773102, 96.390, 2399.0, 48.9796
12.597033667, 96.390, 2363.0, 48.6107
12.623294233, 96.390, 2393.0, 48.9183
12.649554798, 96.390, 2344.0, 48.4149
12.675815364, 96.390, 2468.0, 49.6790
12.702075929, 96.390, 2414.0, 49.1325
12.728336494, 96.390, 2492.0, 49.9199
12.754597060, 96.390, 2503.0, 50.0300
12.780857625, 96.390, 2681.0, 51.7784
12.807118190, 96.390, 2642.0, 51.4004
12.833378756, 96.390, 2606.0, 51.0490
12.859639321, 96.390, 2711.0, 52.0673
12.885899886, 96.390, 2625.0, 51.2348
12.912160452, 96.390, 2634.0, 51.3225
12.938421017, 96.390, 2564.0, 50.6360
12.964681582, 96.390, 2435.0, 49.3457
12.990942148, 96.390, 2509.0, 50.0899
13.017202713, 96.390, 2428.0, 49.2747
13.043463279, 96.390, 2466.0, 49.6588
13.069723844, 96.390, 2497.0, 49.9700
13.095984409, 96.390, 2384.0, 48.8262
13.122244975, 96.390, 2429.0, 49.2849
13.148505540, 96.390, 2517.0, 50.1697
13.174766105, 96.390, 2520.0, 50.1996
13.201026671, 96.390, 2511.0, 50.1099
13.227287236, 96.390, 2504.0, 50.0400
13.253547801, 96.390, 2481.0, 49.8096
13.279808367, 96.390, 2639.0, 51.3712
13.306068932, 96.390, 2569.0, 50.6853
13.332329497, 96.390, 2466.0, 49.6588
13.358590063, 96.390, 2519.0, 50.1896
13.384850628, 96.390, 2403.0, 49.0204
13.411111193, 96.390, 2476.0, 49.7594
13.437371759, 96.390, 2354.0, 48.5180
13.463632324, 96.390, 2306.0, 48.0208
13.489892890, 96.390, 2347.0, 48.4458
13.516153455, 96.390, 2283.0, 47.7807
13.542414020, 96.390, 2197.0, 46.8722
13.568674586, 96.390, 2190.0, 46.7974
13.594935151, 96.390, 2264.0, 47.5815
13.621195716, 96.390, 2284.0, 47.7912
13.647456282, 96.390, 2227.0, 47.1911
13.673716847, 96.390, 2230.0, 47.2229
13.699977412, 96.390, 2180.0, 46.6905
13.726237978, 96.390, 2188.0, 46.7761
13.752498543, 96.390, 2210.0, 47.0106
13.778759108, 96.390, 2101.0, 45.8367
13.805019674, 96.390, 2112.0, 45.9565
13.831280239, 96.390, 2265.0, 47.5920
13.857540805, 96.390, 2137.0, 46.2277
13.883801370, 96.390, 2263.0, 47.5710
13.910061935, 96.390, 2153.0, 46.4004
13.936322501, 96.390, 2165.0, 46.5296
13.962583066, 96.390, 2075.0, 45.5522
13.988843631, 96.390, 2195.0, 46.8508
14.015104197, 96.390, 2169.0, 46.5725
14.041364762, 96.390, 2147.0, 46.3357
14.067625327, 96.390, 2241.0, 47.3392
14.093885893, 96.390, 2136.0, 46.2169
14.120146458, 96.390, 2230.0, 47.2229
14.146407023, 96.390, 2181.0, 46.7012
14.172667589, 96.390, 2301.0, 47.9687
14.198928154, 96.390, 2216.0, 47.0744
14.225188719, 96.390, 2332.0, 48.2908
14.251449285, 96.390, 2323.0, 48.1975
14.277709850, 96.390, 2369.0, 48.6724
14.303970416, 96.390, 2355.0, 48.5283
14.330230981, 96.390, 2393.0, 48.9183
14.356491546, 96.390, 2345.0, 48.4252
14.382752112, 96.390, 2265.0, 47.5920
14.409012677, 96.390, 2368.0, 48.6621
14.435273242, 96.390, 2399.0, 48.9796
14.461533808, 96.390, 2358.0, 48.5592
14.487794373, 96.390, 2391.0, 48.8979
14.514054938, 96.390, 2381.0, 48.7955
14.540315504, 96.390, 2437.0, 49.3660
14.566576069, 96.390, 2402.0, 49.0102
14.592836634, 96.390, 2466.0, 49.6588
14.619097200, 96.390, 2367.0, 48.6518
14.645357765, 96.390, 2418.0, 49.1732
14.671618331, 96.390, 2492.0, 49.9199
14.697878896, 96.390, 2383.0, 48.8160
14.724139461, 96.390, 2387.0, 48.8569
14.750400027, 96.390, 2435.0, 49.3457
14.776660592, 96.390, 2428.0, 49.2747
14.802921157, 96.390, 2464.0, 49.6387
14.829181723, 96.390, 2316.0, 48.1248
14.855442288, 96.390, 2353.0, 48.5077
14.881702853, 96.390, 2369.0, 48.6724
14.907963419, 96.390, 2306.0, 48.0208
14.934223984, 96.390, 2354.0, 48.5180
14.960484549, 96.390, 2357.0, 48.5489
14.986745115, 96.390, 2351.0, 48.4871
15.013005680, 96.390, 2348.0, 48.4562
15.039266245, 96.390, 2482.0, 49.8197
15.065526811, 96.390, 2423.0, 49.2240
15.091787376, 96.390, 2446.0, 49.4571
15.118047942, 96.390, 2458.0, 49.5782
15.144308507, 96.390, 2584.0, 50.8331
15.170569072, 96.390, 2591.0, 50.9019
15.196829638, 96.390, 2583.0, 50.8232
15.223090203, 96.390, 2518.0, 50.1797
15.249350768, 96.390, 2452.0, 49.5177
15.275611334, 96.390, 2423.0, 49.2240
15.301871899, 96.390, 2425.0, 49.2443
15.328132464, 96.390, 2290.0, 47.8539
15.354393030, 96.390, 2178.0, 46.6690
15.380653595, 96.390, 2172.0, 46.6047
15.406914160, 96.390, 2176.0, 46.6476
15.433174726, 96.390, 2138.0, 46.2385
15.459435291, 96.390, 2125.0, 46.0977
15.485695857, 96.390, 2086.0, 45.6727
15.511956422, 96.390, 2060.0, 45.3872
15.538216987, 96.390, 2091.0, 45.7275
15.564477553, 96.390, 2089.0, 45.7056
15.590738118, 96.390, 2159.0, 46.4650
15.616998683, 96.390, 2099.0, 45.8148
15.643259249, 96.390, 2089.0, 45.7056
15.669519814, 96.390, 2135.0, 46.2061
15.695780379, 96.390, 2152.0, 46.3897
15.722040945, 96.390, 2066.0, 45.4533
15.748301510, 96.390, 2115.0, 45.9891
15.774562075, 96.390, 2106.0, 45.8912
15.800822641, 96.390, 2090.0, 45.7165
15.827083206, 96.390, 2111.0, 45.9456
15.853343771, 96.390, 2152.0, 46.3897
15.879604337, 96.390, 2123.0, 46.0760
15.905864902, 96.390, 2146.0, 46.3249
15.932125468, 96.390, 2053.0, 45.3100
15.958386033, 96.390, 2122.0, 46.0652
15.984646598, 96.390, 2077.0, 45.5741
16.010907164, 96.390, 1997.0, 44.6878
16.037167729, 96.390, 2014.0, 44.8776
16.063428294, 96.390, 2078.0, 45.5851
16.089688860, 96.390, 2059.0, 45.3762
16.115949425, 96.390, 2028.0, 45.0333
16.142209990, 96.390, 2084.0, 45.6508
16.168470556, 96.390, 1953.0, 44.1928
16.194731121, 96.390, 2006.0, 44.7884
16.220991686, 96.390, 2007.0, 44.7996
16.247252252, 96.390, 1980.0, 44.4972
16.273512817, 96.390, 1985.0, 44.5533
16.299773382, 96.390, 1957.0, 44.2380
16.326033948, 96.390, 1972.0, 44.4072
16.352294513, 96.390, 1975.0, 44.4410
16.378555079, 96.390, 1901.0, 43.6005
16.404815644, 96.390, 1963.0, 44.3058
16.431076209, 96.390, 1963.0, 44.3058
16.457336775, 96.390, 1938.0, 44.0227
16.483597340, 96.390, 1974.0, 44.4297
16.509857905, 96.390, 2043.0, 45.1996
16.536118471, 96.390, 1987.0, 44.5758
16.562379036, 96.390, 1973.0, 44.4185
16.588639601, 96.390, 1953.0, 44.1928
16.614900167, 96.390, 1961.0, 44.2832
16.641160732, 96.390, 1995.0, 44.6654
16.667421297, 96.390, 2010.0, 44.8330
16.693681863, 96.390, 1979.0, 44.4860
16.719942428, 96.390, 1977.0, 44.4635
16.746202994, 96.390, 2090.0, 45.7165
16.772463559, 96.390, 2062.0, 45.4093
16.798724124, 96.390, 2043.0, 45.1996
16.824984690, 96.390, 1951.0, 44.1701
16.851245255, 96.390, 1916.0, 43.7721
16.877505820, 96.390, 1939.0, 44.0341
16.903766386, 96.390, 1981.0, 44.5084
16.930026951, 96.390, 1942.0, 44.0681
16.956287516, 96.390, 1980.0, 44.4972
16.982548082, 96.390, 1960.0, 44.2719
17.008808647, 96.390, 1933.0, 43.9659
17.035069212, 96.390, 1968.0, 44.3621
17.061329778, 96.390, 1916.0, 43.7721
17.087590343, 96.390, 1901.0, 43.6005
17.113850908, 96.390, 1888.0, 43.4511
17.140111474, 96.390, 1946.0, 44.1135
17.166372039, 96.390, 1834.0, 42.8252
17.192632605, 96.390, 1864.0, 43.1741
17.218893170, 96.390, 1926.0, 43.8862
17.245153735, 96.390, 1921.0, 43.8292
17.271414301, 96.390, 1857.0, 43.0929
17.297674866, 96.390, 1917.0, 43.7836
17.323935431, 96.390, 1926.0, 43.8862
17.350195997, 96.390, 1928.0, 43.9090
17.376456562, 96.390, 1886.0, 43.4281
17.402717127, 96.390, 1954.0, 44.2041
17.428977693, 96.390, 1874.0, 43.2897
17.455238258, 96.390, 1824.0, 42.7083
17.481498823, 96.390, 1853.0, 43.0465
17.507759389, 96.390, 1967.0, 44.3509
17.534019954, 96.390, 1865.0, 43.1856
17.560280520, 96.390, 1908.0, 43.6807
17.586541085, 96.390, 1877.0, 43.3244
17.612801650, 96.390, 1904.0, 43.6348
17.639062216, 96.390, 1905.0, 43.6463
17.665322781, 96.390, 1953.0, 44.1928
17.691583346, 96.390, 1961.0, 44.2832
17.717843912, 96.390, 1967.0, 44.3509
17.744104477, 96.390, 1915.0, 43.7607
17.770365042, 96.390, 1890.0, 43.4741
17.796625608, 96.390, 1945.0, 44.1022
17.822886173, 96.390, 2003.0, 44.7549
17.849146738, 96.390, 1955.0, 44.2154
17.875407304, 96.390, 1868.0, 43.2204
17.901667869, 96.390, 1870.0, 43.2435
17.927928434, 96.390, 2097.0, 45.7930
17.954189000, 96.390, 2053.0, 45.3100
17.980449565, 96.390, 1996.0, 44.6766
18.006710131, 96.390, 2053.0, 45.3100
18.032970696, 96.390, 2003.0, 44.7549
18.059231261, 96.390, 2068.0, 45.4753
18.085491827, 96.390, 2139.0, 46.2493
18.111752392, 96.390, 2197.0, 46.8722
18.138012957, 96.390, 2177.0, 46.6583
18.164273523, 96.390, 2167.0, 46.5510
18.190534088, 96.390, 2202.0, 46.9255
18.216794653, 96.390, 2195.0, 46.8508
18.243055219, 96.390, 2164.0, 46.5188
18.269315784, 96.390, 2112.0, 45.9565
18.295576349, 96.390, 2141.0, 46.2709
18.321836915, 96.390, 2071.0, 45.5082
18.348097480, 96.390, 1977.0, 44.4635
18.374358046, 96.390, 2007.0, 44.7996
18.400618611, 96.390, 1996.0, 44.6766
18.426879176, 96.390, 1981.0, 44.5084
18.453139742, 96.390, 1998.0, 44.6990
18.479400307, 96.390, 2047.0, 45.2438
18.505660872, 96.390, 2003.0, 44.7549
18.531921438, 96.390, 1887.0, 43.4396
18.558182003, 96.390, 1922.0, 43.8406
18.584442568, 96.390, 1958.0, 44.2493
18.610703134, 96.390, 1929.0, 43.9204
18.636963699, 96.390, 1923.0, 43.8520
18.663224264, 96.390, 1889.0, 43.4626
18.689484830, 96.390, 1905.0, 43.6463
18.715745395, 96.390, 1939.0, 44.0341
18.742005960, 96.390, 1892.0, 43.4971
18.768266526, 96.390, 1917.0, 43.7836
18.794527091, 96.390, 2007.0, 44.7996
18.820787657, 96.390, 1873.0, 43.2782
18.847048222, 96.390, 1913.0, 43.7379
18.873308787, 96.390, 1917.0, 43.7836
18.899569353, 96.390, 1957.0, 44.2380
18.925829918, 96.390, 1936.0, 44.0000
18.952090483, 96.390, 2009.0, 44.8219
18.978351049, 96.390, 1978.0, 44.4747
19.004611614, 96.390, 1988.0, 44.5870
19.030872179, 96.390, 1985.0, 44.5533
19.057132745, 96.390, 2074.0, 45.5412
19.083393310, 96.390, 2040.0, 45.1664
19.109653875, 96.390, 2037.0, 45.1331
19.135914441, 96.390, 2094.0, 45.7602
19.162175006, 96.390, 2038.0, 45.1442
19.188435572, 96.390, 1981.0, 44.5084
19.214696137, 96.390, 2051.0, 45.2880
19.240956702, 96.390, 1967.0, 44.3509
19.267217268, 96.390, 2028.0, 45.0333
19.293477833, 96.390, 2086.0, 45.6727
19.319738398, 96.390, 2038.0, 45.1442
19.345998964, 96.390, 1938.0, 44.0227
19.372259529, 96.390, 1995.0, 44.6654
19.398520094, 96.390, 2051.0, 45.2880
19.424780660, 96.390, 2048.0, 45.2548
19.451041225, 96.390, 2061.0, 45.3982
19.477301790, 96.390, 1993.0, 44.6430
19.503562356, 96.390, 2104.0, 45.8694
19.529822921, 96.390, 2093.0, 45.7493
19.556083486, 96.390, 2104.0, 45.8694
19.582344052, 96.390, 2048.0, 45.2548
19.608604617, 96.390, 2047.0, 45.2438
19.634865183, 96.390, 2032.0, 45.0777
19.661125748, 96.390, 2042.0, 45.1885
19.687386313, 96.390, 2023.0, 44.9778
19.713646879, 96.390, 2016.0, 44.8999
19.739907444, 96.390, 1961.0, 44.2832
19.766168009, 96.390, 1988.0, 44.5870
19.792428575, 96.390, 2021.0, 44.9555
19.818689140, 96.390, 2060.0, 45.3872
19.844949705, 96.390, 1986.0, 44.5646
19.871210271, 96.390, 2034.0, 45.0999
19.897470836, 96.390, 2066.0, 45.4533
19.923731401, 96.390, 2079.0, 45.5961
19.949991967, 96.390, 2015.0, 44.8888
19.976252532, 96.390, 2080.0, 45.6070
20.002513097, 96.390, 2122.0, 46.0652
20.028773663, 96.390, 2120.0, 46.0435
20.055034228, 96.390, 2106.0, 45.8912
20.081294794, 96.390, 2192.0, 46.8188
20.107555359, 96.390, 2292.0, 47.8748
20.133815924, 96.390, 2208.0, 46.9894
20.160076490, 96.390, 2225.0, 47.1699
20.186337055, 96.390, 2181.0, 46.7012
20.212597620, 96.390, 2186.0, 46.7547
20.238858186, 96.390, 2154.0, 46.4112
20.265118751, 96.390, 2294.0, 47.8957
20.291379316, 96.390, 2205.0, 46.9574
20.317639882, 96.390, 2350.0, 48.4768
20.343900447, 96.390, 2223.0, 47.1487
20.370161012, 96.390, 2255.0, 47.4868
20.396421578, 96.390, 2150.0, 46.3681
20.422682143, 96.390, 2237.0, 47.2969
20.448942709, 96.390, 2195.0, 46.8508
20.475203274, 96.390, 2197.0, 46.8722
20.501463839, 96.390, 2215.0, 47.0638
20.527724405, 96.390, 2189.0, 46.7868
20.553984970, 96.390, 2182.0, 46.7119
20.580245535, 96.390, 2248.0, 47.4131
20.606506101, 96.390, 2221.0, 47.1275
20.632766666, 96.390, 2162.0, 46.4973
20.659027231, 96.390, 2248.0, 47.4131
20.685287797, 96.390, 2092.0, 45.7384
20.711548362, 96.390, 2183.0, 46.7226
20.737808927, 96.390, 2226.0, 47.1805
20.764069493, 96.390, 2276.0, 47.7074
20.790330058, 96.390, 2132.0, 46.1736
20.816590623, 96.390, 2163.0, 46.5081
20.842851189, 96.390, 2240.0, 47.3286
20.869111754, 96.390, 2169.0, 46.5725
20.895372320, 96.390, 2233.0, 47.2546
20.921632885, 96.390, 2192.0, 46.8188
20.947893450, 96.390, 2137.0, 46.2277
20.974154016, 96.390, 2129.0, 46.1411
21.000414581, 96.390, 2176.0, 46.6476
21.026675146, 96.390, 2107.0, 45.9021
21.052935712, 96.390, 2183.0, 46.7226
21.079196277, 96.390, 2159.0, 46.4650
21.105456842, 96.390, 2196.0, 46.8615
21.131717408, 96.390, 2187.0, 46.7654
21.157977973, 96.390, 2213.0, 47.0425
21.184238538, 96.390, 2167.0, 46.5510
21.210499104, 96.390, 2247.0, 47.4025
21.236759669, 96.390, 2223.0, 47.1487
21.263020235, 96.390, 2296.0, 47.9166
21.289280800, 96.390, 2297.0, 47.9270
21.315541365, 96.390, 2313.0, 48.0937
21.341801931, 96.390, 2317.0, 48.1352
21.368062496, 96.390, 2386.0, 48.8467
21.394323061, 96.390, 2413.0, 49.1223
21.420583627, 96.390, 2500.0, 50.0000
21.446844192, 96.390, 2518.0, 50.1797
21.473104757, 96.390, 2454.0, 49.5379
21.499365323, 96.390, 2552.0, 50.5173
21.525625888, 96.390, 2502.0, 50.0200
21.551886453, 96.390, 2557.0, 50.5668
21.578147019, 96.390, 2374.0, 48.7237
21.604407584, 96.390, 2509.0, 50.0899
21.630668149, 96.390, 2213.0, 47.0425
21.656928715, 96.390, 2186.0, 46.7547
21.683189280, 96.390, 2264.0, 47.5815
21.709449846, 96.390, 2200.0, 46.9042
21.735710411, 96.390, 2317.0, 48.1352
21.761970976, 96.390, 2166.0, 46.5403
21.788231542, 96.390, 2214.0, 47.0532
21.814492107, 96.390, 2286.0, 47.8121
21.840752672, 96.390, 2231.0, 47.2335
21.867013238, 96.390, 2187.0, 46.7654
21.893273803, 96.390, 2172.0, 46.6047
21.919534368, 96.390, 2140.0, 46.2601
21.945794934, 96.390, 2199.0, 46.8935
21.972055499, 96.390, 2177.0, 46.6583
21.998316064, 96.390, 2207.0, 46.9787
22.024576630, 96.390, 2159.0, 46.4650
22.050837195, 96.390, 2049.0, 45.2659
22.077097761, 96.390, 2086.0, 45.6727
22.103358326, 96.390, 2078.0, 45.5851
22.129618891, 96.390, 2076.0, 45.5631
22.155879457, 96.390, 2097.0, 45.7930
22.182140022, 96.390, 2044.0, 45.2106
22.208400587, 96.390, 2049.0, 45.2659
22.234661153, 96.390, 2030.0, 45.0555
22.260921718, 96.390, 1986.0, 44.5646
22.287182283, 96.390, 2002.0, 44.7437
22.313442849, 96.390, 2033.0, 45.0888
22.339703414, 96.390, 1961.0, 44.2832
22.365963979, 96.390, 2018.0, 44.9222
22.392224545, 96.390, 1998.0, 44.6990
22.418485110, 96.390, 2021.0, 44.9555
22.444745675, 96.390, 1872.0, 43.2666
22.471006241, 96.390, 2020.0, 44.9444
22.497266806, 96.390, 2018.0, 44.9222
22.523527372, 96.390, 1953.0, 44.1928
22.549787937, 96.390, 1916.0, 43.7721
22.576048502, 96.390, 2077.0, 45.5741
22.602309068, 96.390, 1973.0, 44.4185
22.628569633, 96.390, 2015.0, 44.8888
22.654830198, 96.390, 2077.0, 45.5741
22.681090764, 96.390, 2074.0, 45.5412
22.707351329, 96.390, 2084.0, 45.6508
22.733611894, 96.390, 2071.0, 45.5082
22.759872460, 96.390, 2085.0, 45.6618
22.786133025, 96.390, 2074.0, 45.5412
22.812393590, 96.390, 2023.0, 44.9778
22.838654156, 96.390, 2059.0, 45.3762
22.864914721, 96.390, 2114.0, 45.9783
22.891175287, 96.390, 2122.0, 46.0652
22.917435852, 96.390, 2065.0, 45.4423
22.943696417, 96.390, 2056.0, 45.3431
22.969956983, 96.390, 2025.0, 45.0000
22.996217548, 96.390, 2097.0, 45.7930
23.022478113, 96.390, 2030.0, 45.0555
23.048738679, 96.390, 2011.0, 44.8442
23.074999244, 96.390, 2128.0, 46.1303
23.101259809, 96.390, 2069.0, 45.4863
23.127520375, 96.390, 2059.0, 45.3762
23.153780940, 96.390, 2174.0, 46.6262
23.180041505, 96.390, 2157.0, 46.4435
23.206302071, 96.390, 2096.0, 45.7821
23.232562636, 96.390, 2098.0, 45.8039
23.258823201, 96.390, 2155.0, 46.4220
23.285083767, 96.390, 2237.0, 47.2969
23.311344332, 96.390, 2160.0, 46.4758
23.337604898, 96.390, 2221.0, 47.1275
23.363865463, 96.390, 2140.0, 46.2601
23.390126028, 96.390, 2125.0, 46.0977
23.416386594, 96.390, 2263.0, 47.5710
23.442647159, 96.390, 2247.0, 47.4025
23.468907724, 96.390, 2217.0, 47.0850
23.495168290, 96.390, 2256.0, 47.4974
23.521428855, 96.390, 2296.0, 47.9166
23.547689420, 96.390, 2298.0, 47.9375
23.573949986, 96.390, 2286.0, 47.8121
23.600210551, 96.390, 2276.0, 47.7074
23.626471116, 96.390, 2179.0, 46.6798
23.652731682, 96.390, 2246.0, 47.3920
23.678992247, 96.390, 2211.0, 47.0213
23.705252813, 96.390, 2171.0, 46.5940
23.731513378, 96.390, 2131.0, 46.1628
23.757773943, 96.390, 2161.0, 46.4866
23.784034509, 96.390, 2101.0, 45.8367
23.810295074, 96.390, 2129.0, 46.1411
23.836555639, 96.390, 2144.0, 46.3033
23.862816205, 96.390, 2071.0, 45.5082
23.889076770, 96.390, 2219.0, 47.1063
23.915337335, 96.390, 2064.0, 45.4313
23.941597901, 96.390, 2089.0, 45.7056
23.967858466, 96.390, 1982.0, 44.5197
23.994119031, 96.390, 1984.0, 44.5421
24.020379597, 96.390, 2081.0, 45.6180
24.046640162, 96.390, 2062.0, 45.4093
24.072900727, 96.390, 2012.0, 44.8553
24.099161293, 96.390, 2043.0, 45.1996
24.125421858, 96.390, 1945.0, 44.1022
24.151682424, 96.390, 1953.0, 44.1928
24.177942989, 96.390, 2001.0, 44.7325
24.204203554, 96.390, 1904.0, 43.6348
24.230464120, 96.390, 1918.0, 43.7950
24.256724685, 96.390, 1888.0, 43.4511
24.282985250, 96.390, 1935.0, 43.9886
24.309245816, 96.390, 1935.0, 43.9886
24.335506381, 96.390, 1955.0, 44.2154
24.361766946, 96.390, 1952.0, 44.1814
24.388027512, 96.390, 1911.0, 43.7150
24.414288077, 96.390, 1940.0, 44.0454
24.440548642, 96.390, 1881.0, 43.3705
24.466809208, 96.390, 1846.0, 42.9651
24.493069773, 96.390, 1852.0, 43.0349
24.519330338, 96.390, 1897.0, 43.5546
24.545590904, 96.390, 1903.0, 43.6234
24.571851469, 96.390, 1937.0, 44.0114
24.598112035, 96.390, 1869.0, 43.2319
24.624372600, 96.390, 1955.0, 44.2154
24.650633165, 96.390, 1912.0, 43.7264
24.676893731, 96.390, 1873.0, 43.2782
24.703154296, 96.390, 1883.0, 43.3935
24.729414861, 96.390, 1935.0, 43.9886
24.755675427, 96.390, 1892.0, 43.4971
24.781935992, 96.390, 1887.0, 43.4396
24.808196557, 96.390, 1936.0, 44.0000
24.834457123, 96.390, 2030.0, 45.0555
24.860717688, 96.390, 1916.0, 43.7721
24.886978253, 96.390, 1917.0, 43.7836
24.913238819, 96.390, 1995.0, 44.6654
24.939499384, 96.390, 2099.0, 45.8148
24.965759950, 96.390, 2048.0, 45.2548
24.992020515, 96.390, 2058.0, 45.3652
25.018281080, 96.390, 1950.0, 44.1588
25.044541646, 96.390, 1970.0, 44.3847
25.070802211, 96.390, 1972.0, 44.4072
25.097062776, 96.390, 2026.0, 45.0111
25.123323342, 96.390, 1976.0, 44.4522
25.149583907, 96.390, 2085.0, 45.6618
25.175844472, 96.390, 1996.0, 44.6766
25.202105038, 96.390, 2070.0, 45.4973
25.228365603, 96.390, 2092.0, 45.7384
25.254626168, 96.390, 1961.0, 44.2832
25.280886734, 96.390, 2047.0, 45.2438
25.307147299, 96.390, 2088.0, 45.6946
25.333407864, 96.390, 2093.0, 45.7493
25.359668430, 96.390, 1986.0, 44.5646
25.385928995, 96.390, 1990.0, 44.6094
25.412189561, 96.390, 2071.0, 45.5082
25.438450126, 96.390, 2075.0, 45.5522
25.464710691, 96.390, 2117.0, 46.0109
25.490971257, 96.390, 2094.0, 45.7602
25.517231822, 96.390, 2003.0, 44.7549
25.543492387, 96.390, 2012.0, 44.8553
25.569752953, 96.390, 2095.0, 45.7712
25.596013518, 96.390, 2089.0, 45.7056
25.622274083, 96.390, 2103.0, 45.8585
25.648534649, 96.390, 2130.0, 46.1519
25.674795214, 96.390, 2158.0, 46.4543
25.701055779, 96.390, 2181.0, 46.7012
25.727316345, 96.390, 2177.0, 46.6583
25.753576910, 96.390, 2321.0, 48.1768
25.779837476, 96.390, 2293.0, 47.8853
25.806098041, 96.390, 2426.0, 49.2544
25.832358606, 96.390, 2420.0, 49.1935
25.858619172, 96.390, 2388.0, 48.8672
25.884879737, 96.390, 2457.0, 49.5681
25.911140302, 96.390, 2355.0, 48.5283
25.937400868, 96.390, 2445.0, 49.4469
25.963661433, 96.390, 2427.0, 49.2646
25.989921998, 96.390, 2345.0, 48.4252
26.016182564, 96.390, 2360.0, 48.5798
26.042443129, 96.390, 2409.0, 49.0816
26.068703694, 96.390, 2286.0, 47.8121
26.094964260, 96.390, 2269.0, 47.6340
26.121224825, 96.390, 2227.0, 47.1911
26.147485390, 96.390, 2236.0, 47.2864
26.173745956, 96.390, 2172.0, 46.6047
26.200006521, 96.390, 2158.0, 46.4543
26.226267087, 96.390, 2129.0, 46.1411
26.252527652, 96.390, 2077.0, 45.5741
26.278788217, 96.390, 2140.0, 46.2601
26.305048783, 96.390, 2140.0, 46.2601
26.331309348, 96.390, 2048.0, 45.2548
26.357569913, 96.390, 2119.0, 46.0326
26.383830479, 96.390, 2214.0, 47.0532
26.410091044, 96.390, 2139.0, 46.2493
26.436351609, 96.390, 2216.0, 47.0744
26.462612175, 96.390, 2248.0, 47.4131
26.488872740, 96.390, 2246.0, 47.3920
26.515133305, 96.390, 2177.0, 46.6583
26.541393871, 96.390, 2249.0, 47.4236
26.567654436, 96.390, 2285.0, 47.8017
26.593915002, 96.390, 2291.0, 47.8644
26.620175567, 96.390, 2276.0, 47.7074
26.646436132, 96.390, 2328.0, 48.2494
26.672696698, 96.390, 2313.0, 48.0937
26.698957263, 96.390, 2238.0, 47.3075
26.725217828, 96.390, 2225.0, 47.1699
26.751478394, 96.390, 2264.0, 47.5815
26.777738959, 96.390, 2313.0, 48.0937
26.803999524, 96.390, 2337.0, 48.3425
26.830260090, 96.390, 2252.0, 47.4552
26.856520655, 96.390, 2340.0, 48.3735
26.882781220, 96.390, 2316.0, 48.1248
26.909041786, 96.390, 2183.0, 46.7226
26.935302351, 96.390, 2265.0, 47.5920
26.961562916, 96.390, 2241.0, 47.3392
26.987823482, 96.390, 2290.0, 47.8539
27.014084047, 96.390, 2256.0, 47.4974
27.040344613, 96.390, 2311.0, 48.0729
27.066605178, 96.390, 2360.0, 48.5798
27.092865743, 96.390, 2283.0, 47.7807
27.119126309, 96.390, 2214.0, 47.0532
27.145386874, 96.390, 2293.0, 47.8853
27.171647439, 96.390, 2376.0, 48.7442
27.197908005, 96.390, 2350.0, 48.4768
27.224168570, 96.390, 2241.0, 47.3392
27.250429135, 96.390, 2182.0, 46.7119
27.276689701, 96.390, 2305.0, 48.0104
27.302950266, 96.390, 2227.0, 47.1911
27.329210831, 96.390, 2251.0, 47.4447
27.355471397, 96.390, 2222.0, 47.1381
27.381731962, 96.390, 2340.0, 48.3735
27.407992528, 96.390, 2241.0, 47.3392
27.434253093, 96.390, 2149.0, 46.3573
27.460513658, 96.390, 2232.0, 47.2440
27.486774224, 96.390, 2229.0, 47.2123
27.513034789, 96.390, 2128.0, 46.1303
27.539295354, 96.390, 2199.0, 46.8935
27.565555920, 96.390, 2222.0, 47.1381
27.591816485, 96.390, 2244.0, 47.3709
27.618077050, 96.390, 2282.0, 47.7703
27.644337616, 96.390, 2196.0, 46.8615
27.670598181, 96.390, 2228.0, 47.2017
27.696858746, 96.390, 2214.0, 47.0532
27.723119312, 96.390, 2249.0, 47.4236
27.749379877, 96.390, 2211.0, 47.0213
27.775640442, 96.390, 2280.0, 47.7493
27.801901008, 96.390, 2242.0, 47.3498
27.828161573, 96.390, 2303.0, 47.9896
27.854422139, 96.390, 2339.0, 48.3632
27.880682704, 96.390, 2315.0, 48.1144
27.906943269, 96.390, 2237.0, 47.2969
27.933203835, 96.390, 2289.0, 47.8435
27.959464400, 96.390, 2341.0, 48.3839
27.985724965, 96.390, 2268.0, 47.6235
28.011985531, 96.390, 2282.0, 47.7703
28.038246096, 96.390, 2331.0, 48.2804
28.064506661, 96.390, 2289.0, 47.8435
28.090767227, 96.390, 2334.0, 48.3115
28.117027792, 96.390, 2305.0, 48.0104
28.143288357, 96.390, 2331.0, 48.2804
28.169548923, 96.390, 2426.0, 49.2544
28.195809488, 96.390, 2387.0, 48.8569
28.222070054, 96.390, 2419.0, 49.1833
28.248330619, 96.390, 2373.0, 48.7134
28.274591184, 96.390, 2529.0, 50.2892
28.300851750, 96.390, 2442.0, 49.4166
28.327112315, 96.390, 2462.0, 49.6185
28.353372880, 96.390, 2504.0, 50.0400
28.379633446, 96.390, 2448.0, 49.4773
28.405894011, 96.390, 2555.0, 50.5470
28.432154576, 96.390, 2570.0, 50.6952
28.458415142, 96.390, 2514.0, 50.1398
28.484675707, 96.390, 2522.0, 50.2195
28.510936272, 96.390, 2468.0, 49.6790
28.537196838, 96.390, 2527.0, 50.2693
28.563457403, 96.390, 2451.0, 49.5076
28.589717968, 96.390, 2532.0, 50.3190
28.615978534, 96.390, 2500.0, 50.0000
28.642239099, 96.390, 2619.0, 51.1762
28.668499665, 96.390, 2601.0, 51.0000
28.694760230, 96.390, 2593.0, 50.9215
28.721020795, 96.390, 2555.0, 50.5470
28.747281361, 96.390, 2639.0, 51.3712
28.773541926, 96.390, 2673.0, 51.7011
28.799802491, 96.390, 2742.0, 52.3641
28.826063057, 96.390, 2700.0, 51.9615
28.852323622, 96.390, 2802.0, 52.9339
28.878584187, 96.390, 2776.0, 52.6878
28.904844753, 96.390, 2634.0, 51.3225
28.931105318, 96.390, 2663.0, 51.6043
28.957365883, 96.390, 2742.0, 52.3641
28.983626449, 96.390, 2761.0, 52.5452
29.009887014, 96.390, 2829.0, 53.1883
29.036147579, 96.390, 2828.0, 53.1789
29.062408145, 96.390, 2801.0, 52.9245
29.088668710, 96.390, 2838.0, 53.2729
29.114929276, 96.390, 2747.0, 52.4118
29.141189841, 96.390, 2906.0, 53.9073
29.167450406, 96.390, 2764.0, 52.5738
29.193710972, 96.390, 2802.0, 52.9339
29.219971537, 96.390, 2829.0, 53.1883
29.246232102, 96.390, 2873.0, 53.6004
29.272492668, 96.390, 2962.0, 54.4243
29.298753233, 96.390, 2886.0, 53.7215
29.325013798, 96.390, 2975.0, 54.5436
29.351274364, 96.390, 2853.0, 53.4135
29.377534929, 96.390, 2974.0, 54.5344
29.403795494, 96.390, 2950.0, 54.3139
29.430056060, 96.390, 2976.0, 54.5527
29.456316625, 96.390, 2986.0, 54.6443
29.482577191, 96.390, 2918.0, 54.0185
29.508837756, 96.390, 3041.0, 55.1453
29.535098321, 96.390, 3233.0, 56.8595
29.561358887, 96.390, 3104.0, 55.7136
29.587619452, 96.390, 3295.0, 57.4021
29.613880017, 96.390, 3300.0, 57.4456
29.640140583, 96.390, 3336.0, 57.7581
29.666401148, 96.390, 3296.0, 57.4108
29.692661713, 96.390, 3331.0, 57.7148
29.718922279, 96.390, 3267.0, 57.1577
29.745182844, 96.390, 3176.0, 56.3560
29.771443409, 96.390, 3089.0, 55.5788
29.797703975, 96.390, 3133.0, 55.9732
29.823964540, 96.390, 3063.0, 55.3444
29.850225105, 96.390, 3035.0, 55.0908
29.876485671, 96.390, 3045.0, 55.1815
29.902746236, 96.390, 2991.0, 54.6900
29.929006802, 96.390, 2959.0, 54.3967
29.955267367, 96.390, 2848.0, 53.3667
29.981527932, 96.390, 2907.0, 53.9166
30.007788498, 96.390, 2848.0, 53.3667
30.034049063, 96.390, 2986.0, 54.6443
30.060309628, 96.390, 2879.0, 53.6563
30.086570194, 96.390, 2899.0, 53.8424
30.112830759, 96.390, 2824.0, 53.1413
30.139091324, 96.390, 2802.0, 52.9339
30.165351890, 96.390, 2891.0, 53.7680
30.191612455, 96.390, 2738.0, 52.3259
30.217873020, 96.390, 2769.0, 52.6213
30.244133586, 96.390, 2788.0, 52.8015
30.270394151, 96.390, 2884.0, 53.7029
30.296654717, 96.390, 2802.0, 52.9339
30.322915282, 96.390, 2864.0, 53.5164
30.349175847, 96.390, 2920.0, 54.0370
30.375436413, 96.390, 2833.0, 53.2259
30.401696978, 96.390, 2947.0, 54.2863
30.427957543, 96.390, 2933.0, 54.1572
30.454218109, 96.390, 3006.0, 54.8270
30.480478674, 96.390, 2806.0, 52.9717
30.506739239, 96.390, 3056.0, 55.2811
30.532999805, 96.390, 3021.0, 54.9636
30.559260370, 96.390, 3053.0, 55.2540
30.585520935, 96.390, 3146.0, 56.0892
30.611781501, 96.390, 2998.0, 54.7540
30.638042066, 96.390, 3051.0, 55.2359
30.664302631, 96.390, 3031.0, 55.0545
30.690563197, 96.390, 3015.0, 54.9090
30.716823762, 96.390, 2966.0, 54.4610
30.743084328, 96.390, 2984.0, 54.6260
30.769344893, 96.390, 2907.0, 53.9166
30.795605458, 96.390, 2848.0, 53.3667
30.821866024, 96.390, 2865.0, 53.5257
30.848126589, 96.390, 2814.0, 53.0471
30.874387154, 96.390, 2737.0, 52.3163
30.900647720, 96.390, 2744.0, 52.3832
30.926908285, 96.390, 2831.0, 53.2071
30.953168850, 96.390, 2814.0, 53.0471
30.979429416, 96.390, 2670.0, 51.6720
31.005689981, 96.390, 2789.0, 52.8110
31.031950546, 96.390, 2699.0, 51.9519
31.058211112, 96.390, 2827.0, 53.1695
31.084471677, 96.390, 2783.0, 52.7541
31.110732243, 96.390, 2778.0, 52.7067
31.136992808, 96.390, 2819.0, 53.0943
31.163253373, 96.390, 2727.0, 52.2207
31.189513939, 96.390, 2845.0, 53.3385
31.215774504, 96.390, 2831.0, 53.2071
31.242035069, 96.390, 2902.0, 53.8702
31.268295635, 96.390, 2861.0, 53.4883
31.294556200, 96.390, 2890.0, 53.7587
31.320816765, 96.390, 2827.0, 53.1695
31.347077331, 96.390, 2820.0, 53.1037
31.373337896, 96.390, 2847.0, 53.3573
31.399598461, 96.390, 2702.0, 51.9808
31.425859027, 96.390, 2758.0, 52.5167
31.452119592, 96.390, 2848.0, 53.3667
31.478380157, 96.390, 2808.0, 52.9906
31.504640723, 96.390, 2745.0, 52.3927
31.530901288, 96.390, 2647.0, 51.4490
31.557161854, 96.390, 2711.0, 52.0673
31.583422419, 96.390, 2662.0, 51.5946
31.609682984, 96.390, 2626.0, 51.2445
31.635943550, 96.390, 2675.0, 51.7204
31.662204115, 96.390, 2645.0, 51.4296
31.688464680, 96.390, 2628.0, 51.2640
31.714725246, 96.390, 2603.0, 51.0196
31.740985811, 96.390, 2546.0, 50.4579
31.767246376, 96.390, 2595.0, 50.9411
31.793506942, 96.390, 2643.0, 51.4101
31.819767507, 96.390, 2531.0, 50.3090
31.846028072, 96.390, 2503.0, 50.0300
31.872288638, 96.390, 2578.0, 50.7740
31.898549203, 96.390, 2450.0, 49.4975
31.924809769, 96.390, 2535.0, 50.3488
31.951070334, 96.390, 2503.0, 50.0300
31.977330899, 96.390, 2505.0, 50.0500
32.003591465, 96.390, 2586.0, 50.8527
32.029852030, 96.390, 2587.0, 50.8626
32.056112595, 96.390, 2589.0, 50.8822
32.082373161, 96.390, 2721.0, 52.1632
32.108633726, 96.390, 2660.0, 51.5752
32.134894291, 96.390, 2636.0, 51.3420
32.161154857, 96.390, 2770.0, 52.6308
32.187415422, 96.390, 2726.0, 52.2111
32.213675987, 96.390, 2794.0, 52.8583
32.239936553, 96.390, 2844.0, 53.3292
32.266197118, 96.390, 2781.0, 52.7352
32.292457683, 96.390, 2749.0, 52.4309
32.318718249, 96.390, 2707.0, 52.0288
32.344978814, 96.390, 2719.0, 52.1440
32.371239380, 96.390, 2785.0, 52.7731
32.397499945, 96.390, 2791.0, 52.8299
32.423760510, 96.390, 2714.0, 52.0961
32.450021076, 96.390, 2699.0, 51.9519
32.476281641, 96.390, 2753.0, 52.4690
32.502542206, 96.390, 2646.0, 51.4393
32.528802772, 96.390, 2646.0, 51.4393
32.555063337, 96.390, 2588.0, 50.8724
32.581323902, 96.390, 2559.0, 50.5866
32.607584468, 96.390, 2510.0, 50.0999
32.633845033, 96.390, 2484.0, 49.8397
32.660105598, 96.390, 2544.0, 50.4381
32.686366164, 96.390, 2463.0, 49.6286
32.712626729, 96.390, 2562.0, 50.6162
32.738887295, 96.390, 2396.0, 48.9490
32.765147860, 96.390, 2403.0, 49.0204
32.791408425, 96.390, 2352.0, 48.4974
32.817668991, 96.390, 2380.0, 48.7852
32.843929556, 96.390, 2446.0, 49.4571
32.870190121, 96.390, 2339.0, 48.3632
32.896450687, 96.390, 2437.0, 49.3660
32.922711252, 96.390, 2465.0, 49.6488
32.948971817, 96.390, 2473.0, 49.7293
32.975232383, 96.390, 2419.0, 49.1833
33.001492948, 96.390, 2436.0, 49.3559
33.027753513, 96.390, 2438.0, 49.3761
33.054014079, 96.390, 2305.0, 48.0104
33.080274644, 96.390, 2509.0, 50.0899
33.106535209, 96.390, 2405.0, 49.0408
33.132795775, 96.390, 2445.0, 49.4469
33.159056340, 96.390, 2400.0, 48.9898
33.185316906, 96.390, 2424.0, 49.2341
33.211577471, 96.390, 2364.0, 48.6210
33.237838036, 96.390, 2256.0, 47.4974
33.264098602, 96.390, 2388.0, 48.8672
33.290359167, 96.390, 2333.0, 48.3011
33.316619732, 96.390, 2313.0, 48.0937
33.342880298, 96.390, 2297.0, 47.9270
33.369140863, 96.390, 2253.0, 47.4658
33.395401428, 96.390, 2333.0, 48.3011
33.421661994, 96.390, 2348.0, 48.4562
33.447922559, 96.390, 2357.0, 48.5489
33.474183124, 96.390, 2293.0, 47.8853
33.500443690, 96.390, 2296.0, 47.9166
33.526704255, 96.390, 2305.0, 48.0104
33.552964820, 96.390, 2395.0, 48.9387
33.579225386, 96.390, 2326.0, 48.2286
33.605485951, 96.390, 2340.0, 48.3735
33.631746517, 96.390, 2420.0, 49.1935
33.658007082, 96.390, 2428.0, 49.2747
33.684267647, 96.390, 2471.0, 49.7092
33.710528213, 96.390, 2436.0, 49.3559
33.736788778, 96.390, 2543.0, 50.4282
33.763049343, 96.390, 2446.0, 49.4571
33.789309909, 96.390, 2482.0, 49.8197
33.815570474, 96.390, 2490.0, 49.8999
33.841831039, 96.390, 2541.0, 50.4083
33.868091605, 96.390, 2448.0, 49.4773
33.894352170, 96.390, 2439.0, 49.3862
33.920612735, 96.390, 2454.0, 49.5379
33.946873301, 96.390, 2520.0, 50.1996
33.973133866, 96.390, 2476.0, 49.7594
33.999394432, 96.390, 2456.0, 49.5580
34.025654997, 96.390, 2465.0, 49.6488
34.051915562, 96.390, 2484.0, 49.8397
34.078176128, 96.390, 2404.0, 49.0306
34.104436693, 96.390, 2383.0, 48.8160
34.130697258, 96.390, 2317.0, 48.1352
34.156957824, 96.390, 2368.0, 48.6621
34.183218389, 96.390, 2171.0, 46.5940
34.209478954, 96.390, 2348.0, 48.4562
34.235739520, 96.390, 2226.0, 47.1805
34.262000085, 96.390, 2165.0, 46.5296
34.288260650, 96.390, 2154.0, 46.4112
34.314521216, 96.390, 2136.0, 46.2169
34.340781781, 96.390, 2241.0, 47.3392
34.367042346, 96.390, 2140.0, 46.2601
34.393302912, 96.390, 2063.0, 45.4203
34.419563477, 96.390, 2118.0, 46.0217
34.445824043, 96.390, 2022.0, 44.9667
34.472084608, 96.390, 2058.0, 45.3652
34.498345173, 96.390, 2075.0, 45.5522
34.524605739, 96.390, 2116.0, 46.0000
34.550866304, 96.390, 2140.0, 46.2601
34.577126869, 96.390, 2162.0, 46.4973
34.603387435, 96.390, 2092.0, 45.7384
34.629648000, 96.390, 2082.0, 45.6289
34.655908565, 96.390, 2101.0, 45.8367
34.682169131, 96.390, 2147.0, 46.3357
34.708429696, 96.390, 2076.0, 45.5631
34.734690261, 96.390, 2254.0, 47.4763
34.760950827, 96.390, 2218.0, 47.0956
34.787211392, 96.390, 2143.0, 46.2925
34.813471958, 96.390, 2206.0, 46.9681
34.839732523, 96.390, 2268.0, 47.6235
34.865993088, 96.390, 2256.0, 47.4974
34.892253654, 96.390, 2217.0, 47.0850
34.918514219, 96.390, 2229.0, 47.2123
34.944774784, 96.390, 2242.0, 47.3498
34.971035350, 96.390, 2185.0, 46.7440
34.997295915, 96.390, 2155.0, 46.4220
35.023556480, 96.390, 2113.0, 45.9674
35.049817046, 96.390, 2054.0, 45.3211
35.076077611, 96.390, 2040.0, 45.1664
35.102338176, 96.390, 2062.0, 45.4093
35.128598742, 96.390, 2005.0, 44.7772
35.154859307, 96.390, 1969.0, 44.3734
35.181119872, 96.390, 1964.0, 44.3170
35.207380438, 96.390, 1978.0, 44.4747
35.233641003, 96.390, 1957.0, 44.2380
35.259901569, 96.390, 1881.0, 43.3705
35.286162134, 96.390, 1875.0, 43.3013
35.312422699, 96.390, 1900.0, 43.5890
35.338683265, 96.390, 1944.0, 44.0908
35.364943830, 96.390, 1795.0, 42.3674
35.391204395, 96.390, 1769.0, 42.0595
35.417464961, 96.390, 1788.0, 42.2847
35.443725526, 96.390, 1735.0, 41.6533
35.469986091, 96.390, 1699.0, 41.2189
35.496246657, 96.390, 1777.0, 42.1545
35.522507222, 96.390, 1668.0, 40.8412
35.548767787, 96.390, 1733.0, 41.6293
35.575028353, 96.390, 1667.0, 40.8289
35.601288918, 96.390, 1672.0, 40.8901
35.627549484, 96.390, 1621.0, 40.2616
35.653810049, 96.390, 1684.0, 41.0366
35.680070614, 96.390, 1621.0, 40.2616
35.706331180, 96.390, 1591.0, 39.8873
35.732591745, 96.390, 1541.0, 39.2556
35.758852310, 96.390, 1607.0, 40.0874
35.785112876, 96.390, 1626.0, 40.3237
35.811373441, 96.390, 1623.0, 40.2865
35.837634006, 96.390, 1645.0, 40.5586
35.863894572, 96.390, 1589.0, 39.8623
35.890155137, 96.390, 1556.0, 39.4462
35.916415702, 96.390, 1542.0, 39.2683
35.942676268, 96.390, 1492.0, 38.6264
35.968936833, 96.390, 1553.0, 39.4081
35.995197398, 96.390, 1538.0, 39.2173
36.021457964, 96.390, 1513.0, 38.8973
36.047718529, 96.390, 1529.0, 39.1024
36.073979095, 96.390, 1518.0, 38.9615
36.100239660, 96.390, 1458.0, 38.1838
36.126500225, 96.390, 1495.0, 38.6652
36.152760791, 96.390, 1531.0, 39.1280
36.179021356, 96.390, 1472.0, 38.3667
36.205281921, 96.390, 1456.0, 38.1576
36.231542487, 96.390, 1511.0, 38.8716
36.257803052, 96.390, 1505.0, 38.7943
36.284063617, 96.390, 1477.0, 38.4318
36.310324183, 96.390, 1528.0, 39.0896
36.336584748, 96.390, 1473.0, 38.3797
36.362845313, 96.390, 1507.0, 38.8201
36.389105879, 96.390, 1490.0, 38.6005
36.415366444, 96.390, 1553.0, 39.4081
36.441627010, 96.390, 1539.0, 39.2301
36.467887575, 96.390, 1471.0, 38.3536
36.494148140, 96.390, 1519.0, 38.9744
36.520408706, 96.390, 1536.0, 39.1918
36.546669271, 96.390, 1525.0, 39.0512
36.572929836, 96.390, 1520.0, 38.9872
36.599190402, 96.390, 1490.0, 38.6005
36.625450967, 96.390, 1451.0, 38.0920
36.651711532, 96.390, 1531.0, 39.1280
36.677972098, 96.390, 1524.0, 39.0384
36.704232663, 96.390, 1512.0, 38.8844
36.730493228, 96.390, 1459.0, 38.1969
36.756753794, 96.390, 1488.0, 38.5746
36.783014359, 96.390, 1501.0, 38.7427
36.809274924, 96.390, 1483.0, 38.5097
36.835535490, 96.390, 1462.0, 38.2361
36.861796055, 96.390, 1563.0, 39.5348
36.888056621, 96.390, 1566.0, 39.5727
36.914317186, 96.390, 1543.0, 39.2810
36.940577751, 96.390, 1471.0, 38.3536
36.966838317, 96.390, 1464.0, 38.2623
36.993098882, 96.390, 1600.0, 40.0000
37.019359447, 96.390, 1485.0, 38.5357
37.045620013, 96.390, 1516.0, 38.9358
37.071880578, 96.390, 1468.0, 38.3145
37.098141143, 96.390, 1489.0, 38.5876
37.124401709, 96.390, 1457.0, 38.1707
37.150662274, 96.390, 1466.0, 38.2884
37.176922839, 96.390, 1488.0, 38.5746
37.203183405, 96.390, 1493.0, 38.6394
37.229443970, 96.390, 1434.0, 37.8682
37.255704535, 96.390, 1428.0, 37.7889
37.281965101, 96.390, 1463.0, 38.2492
37.308225666, 96.390, 1413.0, 37.5899
37.334486232, 96.390, 1473.0, 38.3797
37.360746797, 96.390, 1430.0, 37.8153
37.387007362, 96.390, 1414.0, 37.6032
37.413267928, 96.390, 1387.0, 37.2424
37.439528493, 96.390, 1425.0, 37.7492
37.465789058, 96.390, 1459.0, 38.1969
37.492049624, 96.390, 1362.0, 36.9053
37.518310189, 96.390, 1380.0, 37.1484
37.544570754, 96.390, 1351.0, 36.7560
37.570831320, 96.390, 1335.0, 36.5377
37.597091885, 96.390, 1334.0, 36.5240
37.623352450, 96.390, 1337.0, 36.5650
37.649613016, 96.390, 1457.0, 38.1707
37.675873581, 96.390, 1379.0, 37.1349
37.702134147, 96.390, 1386.0, 37.2290
37.728394712, 96.390, 1370.0, 37.0135
37.754655277, 96.390, 1379.0, 37.1349
37.780915843, 96.390, 1424.0, 37.7359
37.807176408, 96.390, 1379.0, 37.1349
37.833436973, 96.390, 1421.0, 37.6962
37.859697539, 96.390, 1519.0, 38.9744
37.885958104, 96.390, 1377.0, 37.1080
37.912218669, 96.390, 1419.0, 37.6696
37.938479235, 96.390, 1442.0, 37.9737
37.964739800, 96.390, 1476.0, 38.4187
37.991000365, 96.390, 1452.0, 38.1051
38.017260931, 96.390, 1480.0, 38.4708
38.043521496, 96.390, 1406.0, 37.4967
38.069782061, 96.390, 1384.0, 37.2022
38.096042627, 96.390, 1424.0, 37.7359
38.122303192, 96.390, 1419.0, 37.6696
38.148563758, 96.390, 1396.0, 37.3631
38.174824323, 96.390, 1422.0, 37.7094
38.201084888, 96.390, 1463.0, 38.2492
38.227345454, 96.390, 1423.0, 37.7227
38.253606019, 96.390, 1450.0, 38.0789
38.279866584, 96.390, 1457.0, 38.1707
38.306127150, 96.390, 1411.0, 37.5633
38.332387715, 96.390, 1415.0, 37.6165
38.358648280, 96.390, 1378.0, 37.1214
38.384908846, 96.390, 1386.0, 37.2290
38.411169411, 96.390, 1403.0, 37.4566
38.437429976, 96.390, 1460.0, 38.2099
38.463690542, 96.390, 1351.0, 36.7560
38.489951107, 96.390, 1373.0, 37.0540
38.516211673, 96.390, 1358.0, 36.8511
38.542472238, 96.390, 1403.0, 37.4566
38.568732803, 96.390, 1385.0, 37.2156
38.594993369, 96.390, 1350.0, 36.7423
38.621253934, 96.390, 1388.0, 37.2559
38.647514499, 96.390, 1358.0, 36.8511
38.673775065, 96.390, 1394.0, 37.3363
38.700035630, 96.390, 1398.0, 37.3898
38.726296195, 96.390, 1419.0, 37.6696
38.752556761, 96.390, 1325.0, 36.4005
38.778817326, 96.390, 1348.0, 36.7151
38.805077891, 96.390, 1292.0, 35.9444
38.831338457, 96.390, 1265.0, 35.5668
38.857599022, 96.390, 1291.0, 35.9305
38.883859587, 96.390, 1389.0, 37.2693
38.910120153, 96.390, 1344.0, 36.6606
38.936380718, 96.390, 1348.0, 36.7151
38.962641284, 96.390, 1260.0, 35.4965
38.988901849, 96.390, 1273.0, 35.6791
39.015162414, 96.390, 1327.0, 36.4280
39.041422980, 96.390, 1315.0, 36.2629
39.067683545, 96.390, 1279.0, 35.7631
39.093944110, 96.390, 1357.0, 36.8375
39.120204676, 96.390, 1306.0, 36.1386
39.146465241, 96.390, 1256.0, 35.4401
39.172725806, 96.390, 1330.0, 36.4692
39.198986372, 96.390, 1282.0, 35.8050
39.225246937, 96.390, 1305.0, 36.1248
39.251507502, 96.390, 1266.0, 35.5809
39.277768068, 96.390, 1265.0, 35.5668
39.304028633, 96.390, 1317.0, 36.2905
39.330289199, 96.390, 1272.0, 35.6651
39.356549764, 96.390, 1267.0, 35.5949
39.382810329, 96.390, 1235.0, 35.1426
39.409070895, 96.390, 1302.0, 36.0832
39.435331460, 96.390, 1260.0, 35.4965
39.461592025, 96.390, 1217.0, 34.8855
39.487852591, 96.390, 1249.0, 35.3412
39.514113156, 96.390, 1338.0, 36.5787
39.540373721, 96.390, 1196.0, 34.5832
39.566634287, 96.390, 1230.0, 35.0714
39.592894852, 96.390, 1259.0, 35.4824
39.619155417, 96.390, 1256.0, 35.4401
39.645415983, 96.390, 1290.0, 35.9166
39.671676548, 96.390, 1263.0, 35.5387
39.697937113, 96.390, 1254.0, 35.4119
39.724197679, 96.390, 1242.0, 35.2420
39.750458244, 96.390, 1241.0, 35.2278
39.776718810, 96.390, 1304.0, 36.1109
39.802979375, 96.390, 1297.0, 36.0139
39.829239940, 96.390, 1264.0, 35.5528
39.855500506, 96.390, 1333.0, 36.5103
39.881761071, 96.390, 1269.0, 35.6230
39.908021636, 96.390, 1282.0, 35.8050
39.934282202, 96.390, 1293.0, 35.9583
39.960542767, 96.390, 1365.0, 36.9459
39.986803332, 96.390, 1293.0, 35.9583
40.013063898, 96.390, 1333.0, 36.5103
40.039324463, 96.390, 1293.0, 35.9583
40.065585028, 96.390, 1363.0, 36.9188
40.091845594, 96.390, 1286.0, 35.8608
40.118106159, 96.390, 1312.0, 36.2215
40.144366725, 96.390, 1218.0, 34.8999
40.170627290, 96.390, 1292.0, 35.9444
40.196887855, 96.390, 1255.0, 35.4260
40.223148421, 96.390, 1228.0, 35.0428
40.249408986, 96.390, 1254.0, 35.4119
40.275669551, 96.390, 1300.0, 36.0555
40.301930117, 96.390, 1258.0, 35.4683
40.328190682, 96.390, 1236.0, 35.1568
40.354451247, 96.390, 1231.0, 35.0856
40.380711813, 96.390, 1249.0, 35.3412
40.406972378, 96.390, 1205.0, 34.7131
40.433232943, 96.390, 1228.0, 35.0428
40.459493509, 96.390, 1280.0, 35.7771
40.485754074, 96.390, 1267.0, 35.5949
40.512014639, 96.390, 1277.0, 35.7351
40.538275205, 96.390, 1215.0, 34.8569
40.564535770, 96.390, 1236.0, 35.1568
40.590796336, 96.390, 1205.0, 34.7131
40.617056901, 96.390, 1269.0, 35.6230
40.643317466, 96.390, 1200.0, 34.6410
40.669578032, 96.390, 1232.0, 35.0999
40.695838597, 96.390, 1246.0, 35.2987
40.722099162, 96.390, 1192.0, 34.5254
40.748359728, 96.390, 1238.0, 35.1852
40.774620293, 96.390, 1180.0, 34.3511
40.800880858, 96.390, 1227.0, 35.0286
40.827141424, 96.390, 1224.0, 34.9857
40.853401989, 96.390, 1176.0, 34.2929
40.879662554, 96.390, 1161.0, 34.0735
40.905923120, 96.390, 1173.0, 34.2491
40.932183685, 96.390, 1177.0, 34.3074
40.958444251, 96.390, 1123.0, 33.5112
40.984704816, 96.390, 1192.0, 34.5254
41.010965381, 96.390, 1215.0, 34.8569
41.037225947, 96.390, 1200.0, 34.6410
41.063486512, 96.390, 1187.0, 34.4529
41.089747077, 96.390, 1223.0, 34.9714
41.116007643, 96.390, 1172.0, 34.2345
41.142268208, 96.390, 1202.0, 34.6699
41.168528773, 96.390, 1169.0, 34.1906
41.194789339, 96.390, 1135.0, 33.6898
41.221049904, 96.390, 1187.0, 34.4529
41.247310469, 96.390, 1141.0, 33.7787
41.273571035, 96.390, 1101.0, 33.1813
41.299831600, 96.390, 1174.0, 34.2637
41.326092165, 96.390, 1125.0, 33.5410
41.352352731, 96.390, 1190.0, 34.4964
41.378613296, 96.390, 1152.0, 33.9411
41.404873862, 96.390, 1255.0, 35.4260
41.431134427, 96.390, 1181.0, 34.3657
41.457394992, 96.390, 1265.0, 35.5668
41.483655558, 96.390, 1299.0, 36.0416
41.509916123, 96.390, 1218.0, 34.8999
41.536176688, 96.390, 1252.0, 35.3836
41.562437254, 96.390, 1213.0, 34.8281
41.588697819, 96.390, 1230.0, 35.0714
41.614958384, 96.390, 1231.0, 35.0856
41.641218950, 96.390, 1263.0, 35.5387
41.667479515, 96.390, 1287.0, 35.8748
41.693740080, 96.390, 1182.0, 34.3802
41.720000646, 96.390, 1207.0, 34.7419
41.746261211, 96.390, 1264.0, 35.5528
41.772521776, 96.390, 1259.0, 35.4824
41.798782342, 96.390, 1246.0, 35.2987
41.825042907, 96.390, 1278.0, 35.7491
41.851303473, 96.390, 1211.0, 34.7994
41.877564038, 96.390, 1279.0, 35.7631
41.903824603, 96.390, 1268.0, 35.6090
41.930085169, 96.390, 1240.0, 35.2136
41.956345734, 96.390, 1269.0, 35.6230
41.982606299, 96.390, 1254.0, 35.4119
42.008866865, 96.390, 1237.0, 35.1710
42.035127430, 96.390, 1294.0, 35.9722
42.061387995, 96.390, 1287.0, 35.8748
42.087648561, 96.390, 1231.0, 35.0856
42.113909126, 96.390, 1229.0, 35.0571
42.140169691, 96.390, 1241.0, 35.2278
42.166430257, 96.390, 1276.0, 35.7211
42.192690822, 96.390, 1253.0, 35.3977
42.218951388, 96.390, 1221.0, 34.9428
42.245211953, 96.390, 1203.0, 34.6843
42.271472518, 96.390, 1300.0, 36.0555
42.297733084, 96.390, 1234.0, 35.1283
42.323993649, 96.390, 1206.0, 34.7275
42.350254214, 96.390, 1256.0, 35.4401
42.376514780, 96.390, 1270.0, 35.6371
42.402775345, 96.390, 1262.0, 35.5246
42.429035910, 96.390, 1277.0, 35.7351
42.455296476, 96.390, 1263.0, 35.5387
42.481557041, 96.390, 1302.0, 36.0832
42.507817606, 96.390, 1298.0, 36.0278
42.534078172, 96.390, 1234.0, 35.1283
42.560338737, 96.390, 1257.0, 35.4542
42.586599302, 96.390, 1294.0, 35.9722
42.612859868, 96.390, 1270.0, 35.6371
42.639120433, 96.390, 1251.0, 35.3695
42.665380999, 96.390, 1266.0, 35.5809
42.691641564, 96.390, 1191.0, 34.5109
42.717902129, 96.390, 1248.0, 35.3270
42.744162695, 96.390, 1223.0, 34.9714
42.770423260, 96.390, 1291.0, 35.9305
42.796683825, 96.390, 1265.0, 35.5668
42.822944391, 96.390, 1278.0, 35.7491
42.849204956, 96.390, 1272.0, 35.6651
42.875465521, 96.390, 1271.0, 35.6511
42.901726087, 96.390, 1280.0, 35.7771
42.927986652, 96.390, 1256.0, 35.4401
42.954247217, 96.390, 1276.0, 35.7211
42.980507783, 96.390, 1218.0, 34.8999
43.006768348, 96.390, 1269.0, 35.6230
43.033028914, 96.390, 1279.0, 35.7631
43.059289479, 96.390, 1237.0, 35.1710
43.085550044, 96.390, 1194.0, 34.5543
43.111810610, 96.390, 1237.0, 35.1710
43.138071175, 96.390, 1205.0, 34.7131
43.164331740, 96.390, 1205.0, 34.7131
43.190592306, 96.390, 1197.0, 34.5977
43.216852871, 96.390, 1154.0, 33.9706
43.243113436, 96.390, 1134.0, 33.6749
43.269374002, 96.390, 1232.0, 35.0999
43.295634567, 96.390, 1215.0, 34.8569
43.321895132, 96.390, 1156.0, 34.0000
43.348155698, 96.390, 1103.0, 33.2114
43.374416263, 96.390, 1174.0, 34.2637
43.400676828, 96.390, 1184.0, 34.4093
43.426937394, 96.390, 1199.0, 34.6266
43.453197959, 96.390, 1194.0, 34.5543
43.479458525, 96.390, 1182.0, 34.3802
43.505719090, 96.390, 1208.0, 34.7563
43.531979655, 96.390, 1215.0, 34.8569
43.558240221, 96.390, 1226.0, 35.0143
43.584500786, 96.390, 1227.0, 35.0286
43.610761351, 96.390, 1182.0, 34.3802
43.637021917, 96.390, 1192.0, 34.5254
43.663282482, 96.390, 1199.0, 34.6266
43.689543047, 96.390, 1189.0, 34.4819
43.715803613, 96.390, 1255.0, 35.4260
43.742064178, 96.390, 1207.0, 34.7419
43.768324743, 96.390, 1260.0, 35.4965
43.794585309, 96.390, 1246.0, 35.2987
43.820845874, 96.390, 1288.0, 35.8887
43.847106440, 96.390, 1263.0, 35.5387
43.873367005, 96.390, 1251.0, 35.3695
43.899627570, 96.390, 1161.0, 34.0735
43.925888136, 96.390, 1174.0, 34.2637
43.952148701, 96.390, 1181.0, 34.3657
43.978409266, 96.390, 1213.0, 34.8281
44.004669832, 96.390, 1182.0, 34.3802
44.030930397, 96.390, 1198.0, 34.6121
44.057190962, 96.390, 1203.0, 34.6843
44.083451528, 96.390, 1221.0, 34.9428
44.109712093, 96.390, 1241.0, 35.2278
44.135972658, 96.390, 1262.0, 35.5246
44.162233224, 96.390, 1212.0, 34.8138
44.188493789, 96.390, 1240.0, 35.2136
44.214754354, 96.390, 1226.0, 35.0143
44.241014920, 96.390, 1204.0, 34.6987
44.267275485, 96.390, 1267.0, 35.5949
44.293536051, 96.390, 1212.0, 34.8138
44.319796616, 96.390, 1191.0, 34.5109
44.346057181, 96.390, 1249.0, 35.3412
44.372317747, 96.390, 1212.0, 34.8138
44.398578312, 96.390, 1240.0, 35.2136
44.424838877, 96.390, 1253.0, 35.3977
44.451099443, 96.390, 1216.0, 34.8712
44.477360008, 96.390, 1242.0, 35.2420
44.503620573, 96.390, 1224.0, 34.9857
44.529881139, 96.390, 1297.0, 36.0139
44.556141704, 96.390, 1170.0, 34.2053
44.582402269, 96.390, 1345.0, 36.6742
44.608662835, 96.390, 1296.0, 36.0000
44.634923400, 96.390, 1199.0, 34.6266
44.661183966, 96.390, 1256.0, 35.4401
44.687444531, 96.390, 1246.0, 35.2987
44.713705096, 96.390, 1259.0, 35.4824
44.739965662, 96.390, 1325.0, 36.4005
44.766226227, 96.390, 1287.0, 35.8748
44.792486792, 96.390, 1297.0, 36.0139
44.818747358, 96.390, 1347.0, 36.7015
44.845007923, 96.390, 1301.0, 36.0694
44.871268488, 96.390, 1278.0, 35.7491
44.897529054, 96.390, 1258.0, 35.4683
44.923789619, 96.390, 1229.0, 35.0571
44.950050184, 96.390, 1234.0, 35.1283
44.976310750, 96.390, 1269.0, 35.6230
45.002571315, 96.390, 1260.0, 35.4965
45.028831880, 96.390, 1154.0, 33.9706
45.055092446, 96.390, 1223.0, 34.9714
45.081353011, 96.390, 1235.0, 35.1426
45.107613577, 96.390, 1144.0, 33.8231
45.133874142, 96.390, 1244.0, 35.2704
45.160134707, 96.390, 1189.0, 34.4819
45.186395273, 96.390, 1257.0, 35.4542
45.212655838, 96.390, 1242.0, 35.2420
45.238916403, 96.390, 1189.0, 34.4819
45.265176969, 96.390, 1223.0, 34.9714
45.291437534, 96.390, 1133.0, 33.6601
45.317698099, 96.390, 1197.0, 34.5977
45.343958665, 96.390, 1140.0, 33.7639
45.370219230, 96.390, 1154.0, 33.9706
45.396479795, 96.390, 1155.0, 33.9853
45.422740361, 96.390, 1166.0, 34.1467
45.449000926, 96.390, 1158.0, 34.0294
45.475261492, 96.390, 1135.0, 33.6898
45.501522057, 96.390, 1154.0, 33.9706
45.527782622, 96.390, 1187.0, 34.4529
45.554043188, 96.390, 1108.0, 33.2866
45.580303753, 96.390, 1095.0, 33.0908
45.606564318, 96.390, 1124.0, 33.5261
45.632824884, 96.390, 1118.0, 33.4365
45.659085449, 96.390, 1097.0, 33.1210
45.685346014, 96.390, 1088.0, 32.9848
45.711606580, 96.390, 1083.0, 32.9090
45.737867145, 96.390, 1105.0, 33.2415
45.764127710, 96.390, 1157.0, 34.0147
45.790388276, 96.390, 1072.0, 32.7414
45.816648841, 96.390, 1141.0, 33.7787
45.842909406, 96.390, 1064.0, 32.6190
45.869169972, 96.390, 1125.0, 33.5410
45.895430537, 96.390, 1090.0, 33.0151
45.921691103, 96.390, 1084.0, 32.9242
45.947951668, 96.390, 1042.0, 32.2800
45.974212233, 96.390, 1111.0, 33.3317
46.000472799, 96.390, 1088.0, 32.9848
46.026733364, 96.390, 1141.0, 33.7787
46.052993929, 96.390, 1123.0, 33.5112
46.079254495, 96.390, 1102.0, 33.1964
46.105515060, 96.390, 1108.0, 33.2866
46.131775625, 96.390, 1134.0, 33.6749
46.158036191, 96.390, 1118.0, 33.4365
46.184296756, 96.390, 1129.0, 33.6006
46.210557321, 96.390, 1068.0, 32.6803
46.236817887, 96.390, 1069.0, 32.6956
46.263078452, 96.390, 1068.0, 32.6803
46.289339017, 96.390, 1046.0, 32.3419
46.315599583, 96.390, 1078.0, 32.8329
46.341860148, 96.390, 1109.0, 33.3017
46.368120714, 96.390, 1061.0, 32.5730
46.394381279, 96.390, 1062.0, 32.5883
46.420641844, 96.390, 1108.0, 33.2866
46.446902410, 96.390, 1074.0, 32.7719
46.473162975, 96.390, 1063.0, 32.6037
46.499423540, 96.390, 1134.0, 33.6749
46.525684106, 96.390, 1073.0, 32.7567
46.551944671, 96.390, 1094.0, 33.0757
46.578205236, 96.390, 1062.0, 32.5883
46.604465802, 96.390, 1100.0, 33.1662
46.630726367, 96.390, 1094.0, 33.0757
46.656986932, 96.390, 1090.0, 33.0151
46.683247498, 96.390, 1106.0, 33.2566
46.709508063, 96.390, 1121.0, 33.4813
46.735768629, 96.390, 1052.0, 32.4345
46.762029194, 96.390, 1048.0, 32.3728
46.788289759, 96.390, 1098.0, 33.1361
46.814550325, 96.390, 1053.0, 32.4500
46.840810890, 96.390, 1067.0, 32.6650
46.867071455, 96.390, 1055.0, 32.4808
46.893332021, 96.390, 1136.0, 33.7046
46.919592586, 96.390, 1050.0, 32.4037
46.945853151, 96.390, 1005.0, 31.7017
46.972113717, 96.390, 998.0, 31.5911
46.998374282, 96.390, 1044.0, 32.3110
47.024634847, 96.390, 1048.0, 32.3728
47.050895413, 96.390, 998.0, 31.5911
47.077155978, 96.390, 1044.0, 32.3110
47.103416543, 96.390, 1077.0, 32.8177
47.129677109, 96.390, 1028.0, 32.0624
47.155937674, 96.390, 1007.0, 31.7333
47.182198240, 96.390, 1020.0, 31.9374
47.208458805, 96.390, 1072.0, 32.7414
47.234719370, 96.390, 1073.0, 32.7567
47.260979936, 96.390, 1036.0, 32.1870
47.287240501, 96.390, 1020.0, 31.9374
47.313501066, 96.390, 1024.0, 32.0000
47.339761632, 96.390, 1030.0, 32.0936
47.366022197, 96.390, 1089.0, 33.0000
47.392282762, 96.390, 1014.0, 31.8434
47.418543328, 96.390, 1001.0, 31.6386
47.444803893, 96.390, 982.0, 31.3369
47.471064458, 96.390, 1101.0, 33.1813
47.497325024, 96.390, 1026.0, 32.0312
47.523585589, 96.390, 1005.0, 31.7017
47.549846155, 96.390, 1018.0, 31.9061
47.576106720, 96.390, 977.0, 31.2570
47.602367285, 96.390, 1032.0, 32.1248
47.628627851, 96.390, 1056.0, 32.4962
47.654888416, 96.390, 1027.0, 32.0468
47.681148981, 96.390, 1020.0, 31.9374
47.707409547, 96.390, 1004.0, 31.6860
47.733670112, 96.390, 1005.0, 31.7017
47.759930677, 96.390, 1083.0, 32.9090
47.786191243, 96.390, 1023.0, 31.9844
47.812451808, 96.390, 1026.0, 32.0312
47.838712373, 96.390, 1010.0, 31.7805
47.864972939, 96.390, 1049.0, 32.3883
47.891233504, 96.390, 1044.0, 32.3110
47.917494069, 96.390, 1063.0, 32.6037
47.943754635, 96.390, 1008.0, 31.7490
47.970015200, 96.390, 1025.0, 32.0156
47.996275766, 96.390, 1073.0, 32.7567
48.022536331, 96.390, 1011.0, 31.7962
48.048796896, 96.390, 1037.0, 32.2025
48.075057462, 96.390, 1018.0, 31.9061
48.101318027, 96.390, 1040.0, 32.2490
48.127578592, 96.390, 1123.0, 33.5112
48.153839158, 96.390, 1044.0, 32.3110
48.180099723, 96.390, 986.0, 31.4006
48.206360288, 96.390, 1005.0, 31.7017
48.232620854, 96.390, 1068.0, 32.6803
48.258881419, 96.390, 1028.0, 32.0624
48.285141984, 96.390, 986.0, 31.4006
48.311402550, 96.390, 1052.0, 32.4345
48.337663115, 96.390, 1070.0, 32.7109
48.363923681, 96.390, 1051.0, 32.4191
48.390184246, 96.390, 1039.0, 32.2335
48.416444811, 96.390, 1009.0, 31.7648
48.442705377, 96.390, 1010.0, 31.7805
48.468965942, 96.390, 1087.0, 32.9697
48.495226507, 96.390, 1024.0, 32.0000
48.521487073, 96.390, 1082.0, 32.8938
48.547747638, 96.390, 1044.0, 32.3110
48.574008203, 96.390, 1046.0, 32.3419
48.600268769, 96.390, 1011.0, 31.7962
48.626529334, 96.390, 983.0, 31.3528
48.652789899, 96.390, 1073.0, 32.7567
48.679050465, 96.390, 1078.0, 32.8329
48.705311030, 96.390, 1088.0, 32.9848
48.731571595, 96.390, 1051.0, 32.4191
48.757832161, 96.390, 1098.0, 33.1361
48.784092726, 96.390, 1133.0, 33.6601
48.810353292, 96.390, 1102.0, 33.1964
48.836613857, 96.390, 1078.0, 32.8329
48.862874422, 96.390, 1148.0, 33.8821
48.889134988, 96.390, 1111.0, 33.3317
48.915395553, 96.390, 1061.0, 32.5730
48.941656118, 96.390, 1062.0, 32.5883
48.967916684, 96.390, 1089.0, 33.0000
48.994177249, 96.390, 1098.0, 33.1361
49.020437814, 96.390, 1096.0, 33.1059
49.046698380, 96.390, 1098.0, 33.1361
49.072958945, 96.390, 1102.0, 33.1964
49.099219510, 96.390, 1096.0, 33.1059
49.125480076, 96.390, 1105.0, 33.2415
49.151740641, 96.390, 1107.0, 33.2716
49.178001207, 96.390, 1117.0, 33.4215
49.204261772, 96.390, 1084.0, 32.9242
49.230522337, 96.390, 1062.0, 32.5883
49.256782903, 96.390, 1082.0, 32.8938
49.283043468, 96.390, 1145.0, 33.8378
49.309304033, 96.390, 1096.0, 33.1059
49.335564599, 96.390, 1114.0, 33.3766
49.361825164, 96.390, 1050.0, 32.4037
49.388085729, 96.390, 1070.0, 32.7109
49.414346295, 96.390, 1088.0, 32.9848
49.440606860, 96.390, 1032.0, 32.1248
49.466867425, 96.390, 1145.0, 33.8378
49.493127991, 96.390, 1057.0, 32.5115
49.519388556, 96.390, 1039.0, 32.2335
49.545649121, 96.390, 1087.0, 32.9697
49.571909687, 96.390, 1031.0, 32.1092
49.598170252, 96.390, 1040.0, 32.2490
49.624430818, 96.390, 1033.0, 32.1403
49.650691383, 96.390, 1079.0, 32.8481
49.676951948, 96.390, 1079.0, 32.8481
49.703212514, 96.390, 1102.0, 33.1964
49.729473079, 96.390, 1062.0, 32.5883
49.755733644, 96.390, 1032.0, 32.1248
49.781994210, 96.390, 1020.0, 31.9374
49.808254775, 96.390, 1017.0, 31.8904
49.834515340, 96.390, 1014.0, 31.8434
49.860775906, 96.390, 958.0, 30.9516
49.887036471, 96.390, 976.0, 31.2410
49.913297036, 96.390, 1022.0, 31.9687
49.939557602, 96.390, 997.0, 31.5753
49.965818167, 96.390, 946.0, 30.7571
49.992078732, 96.390, 977.0, 31.2570
50.018339298, 96.390, 1009.0, 31.7648
50.044599863, 96.390, 968.0, 31.1127
50.070860429, 96.390, 960.0, 30.9839
50.097120994, 96.390, 943.0, 30.7083
50.123381559, 96.390, 996.0, 31.5595
50.149642125, 96.390, 1015.0, 31.8591
50.175902690, 96.390, 1048.0, 32.3728
50.202163255, 96.390, 984.0, 31.3688
50.228423821, 96.390, 977.0, 31.2570
50.254684386, 96.390, 965.0, 31.0644
50.280944951, 96.390, 1019.0, 31.9218
50.307205517, 96.390, 992.0, 31.4960
50.333466082, 96.390, 999.0, 31.6070
50.359726647, 96.390, 1004.0, 31.6860
50.385987213, 96.390, 1036.0, 32.1870
50.412247778, 96.390, 960.0, 30.9839
50.438508344, 96.390, 997.0, 31.5753
50.464768909, 96.390, 1042.0, 32.2800
50.491029474, 96.390, 1057.0, 32.5115
50.517290040, 96.390, 1080.0, 32.8634
50.543550605, 96.390, 1101.0, 33.1813
50.569811170, 96.390, 1059.0, 32.5423
50.596071736, 96.390, 1040.0, 32.2490
50.622332301, 96.390, 1057.0, 32.5115
50.648592866, 96.390, 1044.0, 32.3110
50.674853432, 96.390, 1125.0, 33.5410
50.701113997, 96.390, 1113.0, 33.3617
50.727374562, 96.390, 1052.0, 32.4345
50.753635128, 96.390, 1061.0, 32.5730
50.779895693, 96.390, 1098.0, 33.1361
50.806156258, 96.390, 1101.0, 33.1813
50.832416824, 96.390, 1058.0, 32.5269
50.858677389, 96.390, 1058.0, 32.5269
50.884937955, 96.390, 1022.0, 31.9687
50.911198520, 96.390, 1107.0, 33.2716
50.937459085, 96.390, 1070.0, 32.7109
50.963719651, 96.390, 1082.0, 32.8938
50.989980216, 96.390, 1022.0, 31.9687
51.016240781, 96.390, 1065.0, 32.6343
51.042501347, 96.390, 1081.0, 32.8786
51.068761912, 96.390, 1034.0, 32.1559
51.095022477, 96.390, 1011.0, 31.7962
51.121283043, 96.390, 1065.0, 32.6343
51.147543608, 96.390, 1019.0, 31.9218
51.173804173, 96.390, 971.0, 31.1609
51.200064739, 96.390, 1001.0, 31.6386
51.226325304, 96.390, 981.0, 31.3209
51.252585870, 96.390, 997.0, 31.5753
51.278846435, 96.390, 983.0, 31.3528
51.305107000, 96.390, 975.0, 31.2250
51.331367566, 96.390, 960.0, 30.9839
51.357628131, 96.390, 997.0, 31.5753
51.383888696, 96.390, 1032.0, 32.1248
51.410149262, 96.390, 945.0, 30.7409
51.436409827, 96.390, 967.0, 31.0966
51.462670392, 96.390, 991.0, 31.4802
51.488930958, 96.390, 925.0, 30.4138
51.515191523, 96.390, 987.0, 31.4166
51.541452088, 96.390, 940.0, 30.6594
51.567712654, 96.390, 918.0, 30.2985
51.593973219, 96.390, 925.0, 30.4138
51.620233784, 96.390, 941.0, 30.6757
51.646494350, 96.390, 946.0, 30.7571
51.672754915, 96.390, 934.0, 30.5614
51.699015481, 96.390, 963.0, 31.0322
51.725276046, 96.390, 972.0, 31.1769
51.751536611, 96.390, 961.0, 31.0000
51.777797177, 96.390, 928.0, 30.4631
51.804057742, 96.390, 885.0, 29.7489
51.830318307, 96.390, 923.0, 30.3809
51.856578873, 96.390, 918.0, 30.2985
51.882839438, 96.390, 919.0, 30.3150
51.909100003, 96.390, 912.0, 30.1993
51.935360569, 96.390, 957.0, 30.9354
51.961621134, 96.390, 885.0, 29.7489
51.987881699, 96.390, 959.0, 30.9677
52.014142265, 96.390, 986.0, 31.4006
52.040402830, 96.390, 912.0, 30.1993
52.066663396, 96.390, 919.0, 30.3150
52.092923961, 96.390, 892.0, 29.8664
52.119184526, 96.390, 948.0, 30.7896
52.145445092, 96.390, 959.0, 30.9677
52.171705657, 96.390, 921.0, 30.3480
52.197966222, 96.390, 944.0, 30.7246
52.224226788, 96.390, 917.0, 30.2820
52.250487353, 96.390, 927.0, 30.4467
52.276747918, 96.390, 884.0, 29.7321
52.303008484, 96.390, 946.0, 30.7571
52.329269049, 96.390, 900.0, 30.0000
52.355529614, 96.390, 951.0, 30.8383
52.381790180, 96.390, 976.0, 31.2410
52.408050745, 96.390, 867.0, 29.4449
52.434311310, 96.390, 975.0, 31.2250
52.460571876, 96.390, 927.0, 30.4467
52.486832441, 96.390, 989.0, 31.4484
52.513093007, 96.390, 974.0, 31.2090
52.539353572, 96.390, 1006.0, 31.7175
52.565614137, 96.390, 965.0, 31.0644
52.591874703, 96.390, 983.0, 31.3528
52.618135268, 96.390, 880.0, 29.6648
52.644395833, 96.390, 934.0, 30.5614
52.670656399, 96.390, 950.0, 30.8221
52.696916964, 96.390, 922.0, 30.3645
52.723177529, 96.390, 1016.0, 31.8748
52.749438095, 96.390, 967.0, 31.0966
52.775698660, 96.390, 967.0, 31.0966
52.801959225, 96.390, 905.0, 30.0832
52.828219791, 96.390, 967.0, 31.0966
52.854480356, 96.390, 967.0, 31.0966
52.880740922, 96.390, 935.0, 30.5778
52.907001487, 96.390, 872.0, 29.5296
52.933262052, 96.390, 955.0, 30.9031
52.959522618, 96.390, 952.0, 30.8545
52.985783183, 96.390, 944.0, 30.7246
53.012043748, 96.390, 931.0, 30.5123
53.038304314, 96.390, 946.0, 30.7571
53.064564879, 96.390, 960.0, 30.9839
53.090825444, 96.390, 971.0, 31.1609
53.117086010, 96.390, 971.0, 31.1609
53.143346575, 96.390, 957.0, 30.9354
53.169607140, 96.390, 1004.0, 31.6860
53.195867706, 96.390, 976.0, 31.2410
53.222128271, 96.390, 1024.0, 32.0000
53.248388836, 96.390, 977.0, 31.2570
53.274649402, 96.390, 963.0, 31.0322
53.300909967, 96.390, 895.0, 29.9166
53.327170533, 96.390, 1013.0, 31.8277
53.353431098, 96.390, 999.0, 31.6070
53.379691663, 96.390, 1011.0, 31.7962
53.405952229, 96.390, 995.0, 31.5436
53.432212794, 96.390, 1003.0, 31.6702
53.458473359, 96.390, 944.0, 30.7246
53.484733925, 96.390, 963.0, 31.0322
53.510994490, 96.390, 967.0, 31.0966
53.537255055, 96.390, 966.0, 31.0805
53.563515621, 96.390, 975.0, 31.2250
53.589776186, 96.390, 959.0, 30.9677
53.616036751, 96.390, 930.0, 30.4959
53.642297317, 96.390, 964.0, 31.0483
53.668557882, 96.390, 947.0, 30.7734
53.694818448, 96.390, 931.0, 30.5123
53.721079013, 96.390, 969.0, 31.1288
53.747339578, 96.390, 1016.0, 31.8748
53.773600144, 96.390, 941.0, 30.6757
53.799860709, 96.390, 984.0, 31.3688
53.826121274, 96.390, 983.0, 31.3528
53.852381840, 96.390, 972.0, 31.1769
53.878642405, 96.390, 912.0, 30.1993
53.904902970, 96.390, 983.0, 31.3528
53.931163536, 96.390, 987.0, 31.4166
53.957424101, 96.390, 944.0, 30.7246
53.983684666, 96.390, 905.0, 30.0832
54.009945232, 96.390, 937.0, 30.6105
54.036205797, 96.390, 922.0, 30.3645
54.062466362, 96.390, 941.0, 30.6757
54.088726928, 96.390, 921.0, 30.3480
54.114987493, 96.390, 925.0, 30.4138
54.141248059, 96.390, 982.0, 31.3369
54.167508624, 96.390, 1033.0, 32.1403
54.193769189, 96.390, 1002.0, 31.6544
54.220029755, 96.390, 943.0, 30.7083
54.246290320, 96.390, 914.0, 30.2324
54.272550885, 96.390, 1005.0, 31.7017
54.298811451, 96.390, 995.0, 31.5436
54.325072016, 96.390, 964.0, 31.0483
54.351332581, 96.390, 963.0, 31.0322
54.377593147, 96.390, 958.0, 30.9516
54.403853712, 96.390, 858.0, 29.2916
54.430114277, 96.390, 991.0, 31.4802
54.456374843, 96.390, 856.0, 29.2575
54.482635408, 96.390, 982.0, 31.3369
54.508895973, 96.390, 924.0, 30.3974
54.535156539, 96.390, 996.0, 31.5595
54.561417104, 96.390, 951.0, 30.8383
54.587677670, 96.390, 938.0, 30.6268
54.613938235, 96.390, 964.0, 31.0483
54.640198800, 96.390, 922.0, 30.3645
54.666459366, 96.390, 978.0, 31.2730
54.692719931, 96.390, 944.0, 30.7246
54.718980496, 96.390, 975.0, 31.2250
54.745241062, 96.390, 958.0, 30.9516
54.771501627, 96.390, 939.0, 30.6431
54.797762192, 96.390, 955.0, 30.9031
54.824022758, 96.390, 952.0, 30.8545
54.850283323, 96.390, 891.0, 29.8496
54.876543888, 96.390, 895.0, 29.9166
54.902804454, 96.390, 923.0, 30.3809
54.929065019, 96.390, 944.0, 30.7246
54.955325585, 96.390, 956.0, 30.9192
54.981586150, 96.390, 951.0, 30.8383
55.007846715, 96.390, 905.0, 30.0832
55.034107281, 96.390, 859.0, 29.3087
55.060367846, 96.390, 949.0, 30.8058
55.086628411, 96.390, 956.0, 30.9192
55.112888977, 96.390, 911.0, 30.1828
55.139149542, 96.390, 893.0, 29.8831
55.165410107, 96.390, 952.0, 30.8545
55.191670673, 96.390, 913.0, 30.2159
55.217931238, 96.390, 942.0, 30.6920
55.244191803, 96.390, 880.0, 29.6648
55.270452369, 96.390, 916.0, 30.2655
55.296712934, 96.390, 947.0, 30.7734
55.322973499, 96.390, 939.0, 30.6431
55.349234065, 96.390, 919.0, 30.3150
55.375494630, 96.390, 952.0, 30.8545
55.401755196, 96.390, 965.0, 31.0644
55.428015761, 96.390, 935.0, 30.5778
55.454276326, 96.390, 986.0, 31.4006
55.480536892, 96.390, 986.0, 31.4006
55.506797457, 96.390, 962.0, 31.0161
55.533058022, 96.390, 981.0, 31.3209
55.559318588, 96.390, 1004.0, 31.6860
55.585579153, 96.390, 946.0, 30.7571
55.611839718, 96.390, 1006.0, 31.7175
55.638100284, 96.390, 965.0, 31.0644
55.664360849, 96.390, 943.0, 30.7083
55.690621414, 96.390, 979.0, 31.2890
55.716881980, 96.390, 921.0, 30.3480
55.743142545, 96.390, 1053.0, 32.4500
55.769403111, 96.390, 980.0, 31.3050
55.795663676, 96.390, 993.0, 31.5119
55.821924241, 96.390, 985.0, 31.3847
55.848184807, 96.390, 929.0, 30.4795
55.874445372, 96.390, 972.0, 31.1769
55.900705937, 96.390, 1008.0, 31.7490
55.926966503, 96.390, 921.0, 30.3480
55.953227068, 96.390, 965.0, 31.0644
55.979487633, 96.390, 951.0, 30.8383
56.005748199, 96.390, 974.0, 31.2090
56.032008764, 96.390, 963.0, 31.0322
56.058269329, 96.390, 969.0, 31.1288
56.084529895, 96.390, 972.0, 31.1769
56.110790460, 96.390, 886.0, 29.7658
56.137051025, 96.390, 930.0, 30.4959
56.163311591, 96.390, 903.0, 30.0500
56.189572156, 96.390, 938.0, 30.6268
56.215832722, 96.390, 919.0, 30.3150
56.242093287, 96.390, 907.0, 30.1164
56.268353852, 96.390, 906.0, 30.0998
56.294614418, 96.390, 870.0, 29.4958
56.320874983, 96.390, 878.0, 29.6311
56.347135548, 96.390, 895.0, 29.9166
56.373396114, 96.390, 873.0, 29.5466
56.399656679, 96.390, 911.0, 30.1828
56.425917244, 96.390, 881.0, 29.6816
56.452177810, 96.390, 855.0, 29.2404
56.478438375, 96.390, 888.0, 29.7993
56.504698940, 96.390, 921.0, 30.3480
56.530959506, 96.390, 829.0, 28.7924
56.557220071, 96.390, 921.0, 30.3480
56.583480637, 96.390, 898.0, 29.9666
56.609741202, 96.390, 922.0, 30.3645
56.636001767, 96.390, 893.0, 29.8831
56.662262333, 96.390, 901.0, 30.0167
56.688522898, 96.390, 836.0, 28.9137
56.714783463, 96.390, 916.0, 30.2655
56.741044029, 96.390, 921.0, 30.3480
56.767304594, 96.390, 927.0, 30.4467
56.793565159, 96.390, 907.0, 30.1164
56.819825725, 96.390, 897.0, 29.9500
56.846086290, 96.390, 915.0, 30.2490
56.872346855, 96.390, 917.0, 30.2820
56.898607421, 96.390, 857.0, 29.2746
56.924867986, 96.390, 914.0, 30.2324
56.951128551, 96.390, 914.0, 30.2324
56.977389117, 96.390, 889.0, 29.8161
57.003649682, 96.390, 930.0, 30.4959
57.029910248, 96.390, 908.0, 30.1330
57.056170813, 96.390, 943.0, 30.7083
57.082431378, 96.390, 955.0, 30.9031
57.108691944, 96.390, 963.0, 31.0322
57.134952509, 96.390, 903.0, 30.0500
57.161213074, 96.390, 947.0, 30.7734
57.187473640, 96.390, 925.0, 30.4138
57.213734205, 96.390, 905.0, 30.0832
57.239994770, 96.390, 958.0, 30.9516
57.266255336, 96.390, 930.0, 30.4959
57.292515901, 96.390, 878.0, 29.6311
57.318776466, 96.390, 927.0, 30.4467
57.345037032, 96.390, 950.0, 30.8221
57.371297597, 96.390, 950.0, 30.8221
57.397558163, 96.390, 973.0, 31.1929
57.423818728, 96.390, 956.0, 30.9192
57.450079293, 96.390, 921.0, 30.3480
57.476339859, 96.390, 876.0, 29.5973
57.502600424, 96.390, 905.0, 30.0832
57.528860989, 96.390, 888.0, 29.7993
57.555121555, 96.390, 937.0, 30.6105
57.581382120, 96.390, 943.0, 30.7083
57.607642685, 96.390, 922.0, 30.3645
57.633903251, 96.390, 977.0, 31.2570
57.660163816, 96.390, 985.0, 31.3847
57.686424381, 96.390, 958.0, 30.9516
57.712684947, 96.390, 912.0, 30.1993
57.738945512, 96.390, 914.0, 30.2324
57.765206077, 96.390, 937.0, 30.6105
57.791466643, 96.390, 957.0, 30.9354
57.817727208, 96.390, 927.0, 30.4467
57.843987774, 96.390, 958.0, 30.9516
57.870248339, 96.390, 918.0, 30.2985
57.896508904, 96.390, 924.0, 30.3974
57.922769470, 96.390, 920.0, 30.3315
57.949030035, 96.390, 954.0, 30.8869
57.975290600, 96.390, 901.0, 30.0167
58.001551166, 96.390, 940.0, 30.6594
58.027811731, 96.390, 916.0, 30.2655
58.054072296, 96.390, 945.0, 30.7409
58.080332862, 96.390, 1004.0, 31.6860
58.106593427, 96.390, 985.0, 31.3847
58.132853992, 96.390, 940.0, 30.6594
58.159114558, 96.390, 904.0, 30.0666
58.185375123, 96.390, 915.0, 30.2490
58.211635689, 96.390, 930.0, 30.4959
58.237896254, 96.390, 896.0, 29.9333
58.264156819, 96.390, 944.0, 30.7246
58.290417385, 96.390, 964.0, 31.0483
58.316677950, 96.390, 919.0, 30.3150
58.342938515, 96.390, 909.0, 30.1496
58.369199081, 96.390, 888.0, 29.7993
58.395459646, 96.390, 886.0, 29.7658
58.421720211, 96.390, 910.0, 30.1662
58.447980777, 96.390, 931.0, 30.5123
58.474241342, 96.390, 828.0, 28.7750
58.500501907, 96.390, 894.0, 29.8998
58.526762473, 96.390, 932.0, 30.5287
58.553023038, 96.390, 882.0, 29.6985
58.579283603, 96.390, 831.0, 28.8271
58.605544169, 96.390, 868.0, 29.4618
58.631804734, 96.390, 875.0, 29.5804
58.658065300, 96.390, 912.0, 30.1993
58.684325865, 96.390, 874.0, 29.5635
58.710586430, 96.390, 893.0, 29.8831
58.736846996, 96.390, 921.0, 30.3480
58.763107561, 96.390, 893.0, 29.8831
58.789368126, 96.390, 895.0, 29.9166
58.815628692, 96.390, 846.0, 29.0861
58.841889257, 96.390, 880.0, 29.6648
58.868149822, 96.390, 852.0, 29.1890
58.894410388, 96.390, 816.0, 28.5657
58.920670953, 96.390, 856.0, 29.2575
58.946931518, 96.390, 903.0, 30.0500
58.973192084, 96.390, 846.0, 29.0861
58.999452649, 96.390, 865.0, 29.4109
59.025713214, 96.390, 853.0, 29.2062
59.051973780, 96.390, 864.0, 29.3939
59.078234345, 96.390, 874.0, 29.5635
59.104494911, 96.390, 875.0, 29.5804
59.130755476, 96.390, 899.0, 29.9833
59.157016041, 96.390, 879.0, 29.6479
59.183276607, 96.390, 843.0, 29.0345
59.209537172, 96.390, 891.0, 29.8496
59.235797737, 96.390, 892.0, 29.8664
59.262058303, 96.390, 962.0, 31.0161
59.288318868, 96.390, 849.0, 29.1376
59.314579433, 96.390, 880.0, 29.6648
59.340839999, 96.390, 881.0, 29.6816
59.367100564, 96.390, 888.0, 29.7993
59.393361129, 96.390, 896.0, 29.9333
59.419621695, 96.390, 798.0, 28.2489
59.445882260, 96.390, 883.0, 29.7153
59.472142826, 96.390, 884.0, 29.7321
59.498403391, 96.390, 913.0, 30.2159
59.524663956, 96.390, 860.0, 29.3258
59.550924522, 96.390, 838.0, 28.9482
59.577185087, 96.390, 833.0, 28.8617
59.603445652, 96.390, 870.0, 29.4958
59.629706218, 96.390, 891.0, 29.8496
59.655966783, 96.390, 873.0, 29.5466
59.682227348, 96.390, 862.0, 29.3598
59.708487914, 96.390, 884.0, 29.7321
59.734748479, 96.390, 881.0, 29.6816
59.761009044, 96.390, 820.0, 28.6356
59.787269610, 96.390, 892.0, 29.8664
59.813530175, 96.390, 844.0, 29.0517
59.839790740, 96.390, 881.0, 29.6816
59.866051306, 96.390, 855.0, 29.2404
59.892311871, 96.390, 880.0, 29.6648
59.918572437, 96.390, 949.0, 30.8058
59.944833002, 96.390, 859.0, 29.3087
59.971093567, 96.390, 876.0, 29.5973
59.997354133, 96.390, 890.0, 29.8329
60.023614698, 96.390, 916.0, 30.2655
60.049875263, 96.390, 798.0, 28.2489
60.076135829, 96.390, 807.0, 28.4077
60.102396394, 96.390, 895.0, 29.9166
60.128656959, 96.390, 902.0, 30.0333
60.154917525, 96.390, 880.0, 29.6648
60.181178090, 96.390, 896.0, 29.9333
60.207438655, 96.390, 846.0, 29.0861
60.233699221, 96.390, 827.0, 28.7576
60.259959786, 96.390, 871.0, 29.5127
60.286220352, 96.390, 856.0, 29.2575
60.312480917, 96.390, 881.0, 29.6816
60.338741482, 96.390, 898.0, 29.9666
60.365002048, 96.390, 896.0, 29.9333
60.391262613, 96.390, 914.0, 30.2324
60.417523178, 96.390, 916.0, 30.2655
60.443783744, 96.390, 868.0, 29.4618
60.470044309, 96.390, 893.0, 29.8831
60.496304874, 96.390, 880.0, 29.6648
60.522565440, 96.390, 941.0, 30.6757
60.548826005, 96.390, 930.0, 30.4959
60.575086570, 96.390, 838.0, 28.9482
60.601347136, 96.390, 880.0, 29.6648
60.627607701, 96.390, 905.0, 30.0832
60.653868266, 96.390, 857.0, 29.2746
60.680128832, 96.390, 888.0, 29.7993
60.706389397, 96.390, 933.0, 30.5450
60.732649963, 96.390, 913.0, 30.2159
60.758910528, 96.390, 849.0, 29.1376
60.785171093, 96.390, 834.0, 28.8791
60.811431659, 96.390, 887.0, 29.7825
60.837692224, 96.390, 889.0, 29.8161
60.863952789, 96.390, 864.0, 29.3939
60.890213355, 96.390, 826.0, 28.7402
60.916473920, 96.390, 883.0, 29.7153
60.942734485, 96.390, 928.0, 30.4631
60.968995051, 96.390, 880.0, 29.6648
60.995255616, 96.390, 885.0, 29.7489
61.021516181, 96.390, 871.0, 29.5127
61.047776747, 96.390, 903.0, 30.0500
61.074037312, 96.390, 904.0, 30.0666
61.100297878, 96.390, 856.0, 29.2575
61.126558443, 96.390, 898.0, 29.9666
61.152819008, 96.390, 855.0, 29.2404
61.179079574, 96.390, 908.0, 30.1330
61.205340139, 96.390, 919.0, 30.3150
61.231600704, 96.390, 849.0, 29.1376
61.257861270, 96.390, 880.0, 29.6648
61.284121835, 96.390, 899.0, 29.9833
61.310382400, 96.390, 835.0, 28.8964
61.336642966, 96.390, 870.0, 29.4958
61.362903531, 96.390, 854.0, 29.2233
61.389164096, 96.390, 910.0, 30.1662
61.415424662, 96.390, 883.0, 29.7153
61.441685227, 96.390, 815.0, 28.5482
61.467945792, 96.390, 859.0, 29.3087
61.494206358, 96.390, 908.0, 30.1330
61.520466923, 96.390, 862.0, 29.3598
61.546727489, 96.390, 940.0, 30.6594
61.572988054, 96.390, 837.0, 28.9310
61.599248619, 96.390, 834.0, 28.8791
61.625509185, 96.390, 891.0, 29.8496
61.651769750, 96.390, 861.0, 29.3428
61.678030315, 96.390, 883.0, 29.7153
61.704290881, 96.390, 822.0, 28.6705
61.730551446, 96.390, 835.0, 28.8964
61.756812011, 96.390, 900.0, 30.0000
61.783072577, 96.390, 805.0, 28.3725
61.809333142, 96.390, 820.0, 28.6356
61.835593707, 96.390, 888.0, 29.7993
61.861854273, 96.390, 862.0, 29.3598
61.888114838, 96.390, 870.0, 29.4958
61.914375404, 96.390, 860.0, 29.3258
61.940635969, 96.390, 805.0, 28.3725
61.966896534, 96.390, 886.0, 29.7658
61.993157100, 96.390, 806.0, 28.3901
62.019417665, 96.390, 904.0, 30.0666
62.045678230, 96.390, 886.0, 29.7658
62.071938796, 96.390, 850.0, 29.1548
62.098199361, 96.390, 823.0, 28.6880
62.124459926, 96.390, 848.0, 29.1204
62.150720492, 96.390, 855.0, 29.2404
62.176981057, 96.390, 850.0, 29.1548
62.203241622, 96.390, 791.0, 28.1247
62.229502188, 96.390, 835.0, 28.8964
62.255762753, 96.390, 795.0, 28.1957
62.282023318, 96.390, 879.0, 29.6479
62.308283884, 96.390, 921.0, 30.3480
62.334544449, 96.390, 882.0, 29.6985
62.360805015, 96.390, 919.0, 30.3150
62.387065580, 96.390, 893.0, 29.8831
62.413326145, 96.390, 906.0, 30.0998
62.439586711, 96.390, 903.0, 30.0500
62.465847276, 96.390, 872.0, 29.5296
62.492107841, 96.390, 875.0, 29.5804
62.518368407, 96.390, 843.0, 29.0345
62.544628972, 96.390, 865.0, 29.4109
62.570889537, 96.390, 893.0, 29.8831
62.597150103, 96.390, 911.0, 30.1828
62.623410668, 96.390, 824.0, 28.7054
62.649671233, 96.390, 872.0, 29.5296
62.675931799, 96.390, 889.0, 29.8161
62.702192364, 96.390, 821.0, 28.6531
62.728452930, 96.390, 859.0, 29.3087
62.754713495, 96.390, 817.0, 28.5832
62.780974060, 96.390, 769.0, 27.7308
62.807234626, 96.390, 850.0, 29.1548
62.833495191, 96.390, 828.0, 28.7750
62.859755756, 96.390, 817.0, 28.5832
62.886016322, 96.390, 821.0, 28.6531
62.912276887, 96.390, 811.0, 28.4781
62.938537452, 96.390, 841.0, 29.0000
62.964798018, 96.390, 857.0, 29.2746
62.991058583, 96.390, 794.0, 28.1780
63.017319148, 96.390, 795.0, 28.1957
63.043579714, 96.390, 849.0, 29.1376
63.069840279, 96.390, 778.0, 27.8927
63.096100844, 96.390, 793.0, 28.1603
63.122361410, 96.390, 825.0, 28.7228
63.148621975, 96.390, 823.0, 28.6880
63.174882541, 96.390, 830.0, 28.8097
63.201143106, 96.390, 868.0, 29.4618
63.227403671, 96.390, 738.0, 27.1662
63.253664237, 96.390, 817.0, 28.5832
63.279924802, 96.390, 831.0, 28.8271
63.306185367, 96.390, 836.0, 28.9137
63.332445933, 96.390, 823.0, 28.6880
63.358706498, 96.390, 797.0, 28.2312
63.384967063, 96.390, 816.0, 28.5657
63.411227629, 96.390, 820.0, 28.6356
63.437488194, 96.390, 823.0, 28.6880
63.463748759, 96.390, 763.0, 27.6225
63.490009325, 96.390, 790.0, 28.1069
63.516269890, 96.390, 851.0, 29.1719
63.542530455, 96.390, 765.0, 27.6586
63.568791021, 96.390, 826.0, 28.7402
63.595051586, 96.390, 810.0, 28.4605
63.621312152, 96.390, 827.0, 28.7576
63.647572717, 96.390, 813.0, 28.5132
63.673833282, 96.390, 795.0, 28.1957
63.700093848, 96.390, 816.0, 28.5657
63.726354413, 96.390, 789.0, 28.0891
63.752614978, 96.390, 822.0, 28.6705
63.778875544, 96.390, 836.0, 28.9137
63.805136109, 96.390, 805.0, 28.3725
63.831396674, 96.390, 792.0, 28.1425
63.857657240, 96.390, 782.0, 27.9643
63.883917805, 96.390, 787.0, 28.0535
63.910178370, 96.390, 754.0, 27.4591
63.936438936, 96.390, 794.0, 28.1780
63.962699501, 96.390, 795.0, 28.1957
63.988960067, 96.390, 838.0, 28.9482
64.015220632, 96.390, 807.0, 28.4077
64.041481197, 96.390, 776.0, 27.8568
64.067741763, 96.390, 793.0, 28.1603
64.094002328, 96.390, 834.0, 28.8791
64.120262893, 96.390, 873.0, 29.5466
64.146523459, 96.390, 756.0, 27.4955
64.172784024, 96.390, 779.0, 27.9106
64.199044589, 96.390, 820.0, 28.6356
64.225305155, 96.390, 784.0, 28.0000
64.251565720, 96.390, 784.0, 28.0000
64.277826285, 96.390, 745.0, 27.2947
64.304086851, 96.390, 769.0, 27.7308
64.330347416, 96.390, 781.0, 27.9464
64.356607981, 96.390, 741.0, 27.2213
64.382868547, 96.390, 768.0, 27.7128
64.409129112, 96.390, 776.0, 27.8568
64.435389678, 96.390, 809.0, 28.4429
64.461650243, 96.390, 732.0, 27.0555
64.487910808, 96.390, 722.0, 26.8701
64.514171374, 96.390, 781.0, 27.9464
64.540431939, 96.390, 771.0, 27.7669
64.566692504, 96.390, 765.0, 27.6586
64.592953070, 96.390, 739.0, 27.1846
64.619213635, 96.390, 725.0, 26.9258
64.645474200, 96.390, 745.0, 27.2947
64.671734766, 96.390, 741.0, 27.2213
64.697995331, 96.390, 759.0, 27.5500
64.724255896, 96.390, 787.0, 28.0535
64.750516462, 96.390, 753.0, 27.4408
64.776777027, 96.390, 757.0, 27.5136
64.803037593, 96.390, 741.0, 27.2213
64.829298158, 96.390, 787.0, 28.0535
64.855558723, 96.390, 780.0, 27.9285
64.881819289, 96.390, 747.0, 27.3313
64.908079854, 96.390, 775.0, 27.8388
64.934340419, 96.390, 751.0, 27.4044
64.960600985, 96.390, 758.0, 27.5318
64.986861550, 96.390, 778.0, 27.8927
