[Measurement conditions]
Sample identification,XRD_MgAxialnul_Act03May22_B1_0714M_NaOH_LS0171_1
Comment - 1,"Configuration=Stage for Flat Samples/Holders, Owner=User-1, Creation date=7/1/2020 9:53:24 AM"
Comment - 2,"Goniometer=Theta/Theta; Minimum step size 2Theta:0.0001; Minimum step size Omega:0.0001"
Comment - 3,"Sample stage=Stage for flat samples/holders"
Comment - 4,"Diffractometer system=EMPYREAN"
Comment - 5,"Measurement program=C:\Users\ibo5034\OneDrive - The Pennsylvania State University\NEUP\Zerobackground scan.xrdmp, Identifier={98A3B11C-88F9-4AA6-982C-73314A311EF5}"
Anode material,Cu
K-Alpha1 wavelength,1.5405980
K-Alpha2 wavelength,1.5444260
Ratio K-Alpha2/K-Alpha1,0.500
Divergence slit,Fixed,0.25
Monochromator used,NO
Generator voltage, 45
Tube current, 40
File date and time,03/Jun/2022 14:26
Unit cell,
h k l, 0 0 0
Scan axis,Gonio
Scan range,4.994599997,64.999991833
Scan step size,0.0262606
No. of points, 2285
Scan type,CONTINUOUS
Time per step,96.390
[Scan points]
Angle, TimePerStep, Intensity, ESD
5.007730280, 96.390, 4691.0, 68.4909
5.033990845, 96.390, 4567.0, 67.5796
5.060251411, 96.390, 4614.0, 67.9264
5.086511976, 96.390, 4610.0, 67.8970
5.112772541, 96.390, 4509.0, 67.1491
5.139033107, 96.390, 4590.0, 67.7495
5.165293672, 96.390, 4458.0, 66.7683
5.191554237, 96.390, 4579.0, 67.6683
5.217814803, 96.390, 4380.0, 66.1816
5.244075368, 96.390, 4355.0, 65.9924
5.270335934, 96.390, 4307.0, 65.6277
5.296596499, 96.390, 4400.0, 66.3325
5.322857064, 96.390, 4336.0, 65.8483
5.349117630, 96.390, 4333.0, 65.8255
5.375378195, 96.390, 4183.0, 64.6761
5.401638760, 96.390, 4276.0, 65.3911
5.427899326, 96.390, 4221.0, 64.9692
5.454159891, 96.390, 4213.0, 64.9076
5.480420456, 96.390, 4274.0, 65.3758
5.506681022, 96.390, 4149.0, 64.4127
5.532941587, 96.390, 4139.0, 64.3351
5.559202152, 96.390, 4104.0, 64.0625
5.585462718, 96.390, 4113.0, 64.1327
5.611723283, 96.390, 4128.0, 64.2495
5.637983849, 96.390, 4067.0, 63.7730
5.664244414, 96.390, 4026.0, 63.4508
5.690504979, 96.390, 4075.0, 63.8357
5.716765545, 96.390, 4034.0, 63.5138
5.743026110, 96.390, 4152.0, 64.4360
5.769286675, 96.390, 4051.0, 63.6475
5.795547241, 96.390, 4104.0, 64.0625
5.821807806, 96.390, 4083.0, 63.8984
5.848068371, 96.390, 4024.0, 63.4350
5.874328937, 96.390, 3971.0, 63.0159
5.900589502, 96.390, 3924.0, 62.6418
5.926850067, 96.390, 4110.0, 64.1093
5.953110633, 96.390, 3905.0, 62.4900
5.979371198, 96.390, 3822.0, 61.8223
6.005631763, 96.390, 3949.0, 62.8411
6.031892329, 96.390, 3891.0, 62.3779
6.058152894, 96.390, 3901.0, 62.4580
6.084413460, 96.390, 3931.0, 62.6977
6.110674025, 96.390, 3866.0, 62.1772
6.136934590, 96.390, 3916.0, 62.5780
6.163195156, 96.390, 3884.0, 62.3217
6.189455721, 96.390, 3857.0, 62.1048
6.215716286, 96.390, 3792.0, 61.5792
6.241976852, 96.390, 3769.0, 61.3922
6.268237417, 96.390, 3784.0, 61.5142
6.294497982, 96.390, 3853.0, 62.0725
6.320758548, 96.390, 3672.0, 60.5970
6.347019113, 96.390, 3870.0, 62.2093
6.373279678, 96.390, 3766.0, 61.3677
6.399540244, 96.390, 3737.0, 61.1310
6.425800809, 96.390, 3802.0, 61.6604
6.452061375, 96.390, 3650.0, 60.4152
6.478321940, 96.390, 3821.0, 61.8142
6.504582505, 96.390, 3776.0, 61.4492
6.530843071, 96.390, 3785.0, 61.5224
6.557103636, 96.390, 3700.0, 60.8276
6.583364201, 96.390, 3707.0, 60.8851
6.609624767, 96.390, 3577.0, 59.8080
6.635885332, 96.390, 3748.0, 61.2209
6.662145897, 96.390, 3699.0, 60.8194
6.688406463, 96.390, 3759.0, 61.3107
6.714667028, 96.390, 3574.0, 59.7829
6.740927593, 96.390, 3572.0, 59.7662
6.767188159, 96.390, 3632.0, 60.2661
6.793448724, 96.390, 3580.0, 59.8331
6.819709289, 96.390, 3503.0, 59.1861
6.845969855, 96.390, 3686.0, 60.7124
6.872230420, 96.390, 3545.0, 59.5399
6.898490986, 96.390, 3479.0, 58.9830
6.924751551, 96.390, 3545.0, 59.5399
6.951012116, 96.390, 3453.0, 58.7622
6.977272682, 96.390, 3530.0, 59.4138
7.003533247, 96.390, 3374.0, 58.0861
7.029793812, 96.390, 3512.0, 59.2621
7.056054378, 96.390, 3514.0, 59.2790
7.082314943, 96.390, 3464.0, 58.8558
7.108575508, 96.390, 3564.0, 59.6992
7.134836074, 96.390, 3529.0, 59.4054
7.161096639, 96.390, 3416.0, 58.4466
7.187357204, 96.390, 3403.0, 58.3352
7.213617770, 96.390, 3501.0, 59.1692
7.239878335, 96.390, 3436.0, 58.6174
7.266138900, 96.390, 3462.0, 58.8388
7.292399466, 96.390, 3371.0, 58.0603
7.318660031, 96.390, 3488.0, 59.0593
7.344920597, 96.390, 3556.0, 59.6322
7.371181162, 96.390, 3553.0, 59.6070
7.397441727, 96.390, 3533.0, 59.4390
7.423702293, 96.390, 3421.0, 58.4893
7.449962858, 96.390, 3535.0, 59.4559
7.476223423, 96.390, 3450.0, 58.7367
7.502483989, 96.390, 3381.0, 58.1464
7.528744554, 96.390, 3397.0, 58.2838
7.555005119, 96.390, 3365.0, 58.0086
7.581265685, 96.390, 3411.0, 58.4038
7.607526250, 96.390, 3411.0, 58.4038
7.633786815, 96.390, 3421.0, 58.4893
7.660047381, 96.390, 3404.0, 58.3438
7.686307946, 96.390, 3243.0, 56.9473
7.712568512, 96.390, 3323.0, 57.6455
7.738829077, 96.390, 3420.0, 58.4808
7.765089642, 96.390, 3314.0, 57.5674
7.791350208, 96.390, 3417.0, 58.4551
7.817610773, 96.390, 3431.0, 58.5747
7.843871338, 96.390, 3452.0, 58.7537
7.870131904, 96.390, 3276.0, 57.2364
7.896392469, 96.390, 3393.0, 58.2495
7.922653034, 96.390, 3367.0, 58.0259
7.948913600, 96.390, 3315.0, 57.5760
7.975174165, 96.390, 3352.0, 57.8965
8.001434730, 96.390, 3270.0, 57.1839
8.027695296, 96.390, 3324.0, 57.6541
8.053955861, 96.390, 3443.0, 58.6771
8.080216426, 96.390, 3452.0, 58.7537
8.106476992, 96.390, 3404.0, 58.3438
8.132737557, 96.390, 3288.0, 57.3411
8.158998123, 96.390, 3357.0, 57.9396
8.185258688, 96.390, 3309.0, 57.5239
8.211519253, 96.390, 3336.0, 57.7581
8.237779819, 96.390, 3327.0, 57.6802
8.264040384, 96.390, 3326.0, 57.6715
8.290300949, 96.390, 3267.0, 57.1577
8.316561515, 96.390, 3364.0, 58.0000
8.342822080, 96.390, 3437.0, 58.6259
8.369082645, 96.390, 3162.0, 56.2317
8.395343211, 96.390, 3338.0, 57.7754
8.421603776, 96.390, 3320.0, 57.6194
8.447864341, 96.390, 3283.0, 57.2975
8.474124907, 96.390, 3273.0, 57.2101
8.500385472, 96.390, 3321.0, 57.6281
8.526646038, 96.390, 3262.0, 57.1139
8.552906603, 96.390, 3312.0, 57.5500
8.579167168, 96.390, 3315.0, 57.5760
8.605427734, 96.390, 3317.0, 57.5934
8.631688299, 96.390, 3334.0, 57.7408
8.657948864, 96.390, 3318.0, 57.6021
8.684209430, 96.390, 3301.0, 57.4543
8.710469995, 96.390, 3398.0, 58.2924
8.736730560, 96.390, 3469.0, 58.8982
8.762991126, 96.390, 3375.0, 58.0948
8.789251691, 96.390, 3219.0, 56.7362
8.815512256, 96.390, 3431.0, 58.5747
8.841772822, 96.390, 3260.0, 57.0964
8.868033387, 96.390, 3309.0, 57.5239
8.894293952, 96.390, 3331.0, 57.7148
8.920554518, 96.390, 3307.0, 57.5065
8.946815083, 96.390, 3360.0, 57.9655
8.973075649, 96.390, 3416.0, 58.4466
8.999336214, 96.390, 3408.0, 58.3781
9.025596779, 96.390, 3409.0, 58.3866
9.051857345, 96.390, 3391.0, 58.2323
9.078117910, 96.390, 3328.0, 57.6888
9.104378475, 96.390, 3419.0, 58.4722
9.130639041, 96.390, 3346.0, 57.8446
9.156899606, 96.390, 3357.0, 57.9396
9.183160171, 96.390, 3412.0, 58.4123
9.209420737, 96.390, 3375.0, 58.0948
9.235681302, 96.390, 3411.0, 58.4038
9.261941867, 96.390, 3485.0, 59.0339
9.288202433, 96.390, 3397.0, 58.2838
9.314462998, 96.390, 3320.0, 57.6194
9.340723564, 96.390, 3320.0, 57.6194
9.366984129, 96.390, 3457.0, 58.7963
9.393244694, 96.390, 3494.0, 59.1101
9.419505260, 96.390, 3501.0, 59.1692
9.445765825, 96.390, 3492.0, 59.0931
9.472026390, 96.390, 3469.0, 58.8982
9.498286956, 96.390, 3670.0, 60.5805
9.524547521, 96.390, 3563.0, 59.6909
9.550808086, 96.390, 3540.0, 59.4979
9.577068652, 96.390, 3503.0, 59.1861
9.603329217, 96.390, 3395.0, 58.2666
9.629589782, 96.390, 3563.0, 59.6909
9.655850348, 96.390, 3531.0, 59.4222
9.682110913, 96.390, 3517.0, 59.3043
9.708371478, 96.390, 3571.0, 59.7578
9.734632044, 96.390, 3688.0, 60.7289
9.760892609, 96.390, 3593.0, 59.9416
9.787153175, 96.390, 3509.0, 59.2368
9.813413740, 96.390, 3520.0, 59.3296
9.839674305, 96.390, 3660.0, 60.4979
9.865934871, 96.390, 3589.0, 59.9083
9.892195436, 96.390, 3650.0, 60.4152
9.918456001, 96.390, 3681.0, 60.6712
9.944716567, 96.390, 3652.0, 60.4318
9.970977132, 96.390, 3669.0, 60.5723
9.997237697, 96.390, 3656.0, 60.4649
10.023498263, 96.390, 3730.0, 61.0737
10.049758828, 96.390, 3709.0, 60.9016
10.076019393, 96.390, 3661.0, 60.5062
10.102279959, 96.390, 3775.0, 61.4410
10.128540524, 96.390, 3829.0, 61.8789
10.154801090, 96.390, 3693.0, 60.7701
10.181061655, 96.390, 3786.0, 61.5305
10.207322220, 96.390, 3804.0, 61.6766
10.233582786, 96.390, 3790.0, 61.5630
10.259843351, 96.390, 3847.0, 62.0242
10.286103916, 96.390, 3836.0, 61.9355
10.312364482, 96.390, 3841.0, 61.9758
10.338625047, 96.390, 3802.0, 61.6604
10.364885612, 96.390, 3882.0, 62.3057
10.391146178, 96.390, 3904.0, 62.4820
10.417406743, 96.390, 4024.0, 63.4350
10.443667308, 96.390, 4137.0, 64.3195
10.469927874, 96.390, 4347.0, 65.9318
10.496188439, 96.390, 4249.0, 65.1844
10.522449004, 96.390, 4140.0, 64.3428
10.548709570, 96.390, 4042.0, 63.5767
10.574970135, 96.390, 4002.0, 63.2614
10.601230701, 96.390, 3935.0, 62.7296
10.627491266, 96.390, 3986.0, 63.1348
10.653751831, 96.390, 4118.0, 64.1716
10.680012397, 96.390, 4069.0, 63.7887
10.706272962, 96.390, 4048.0, 63.6239
10.732533527, 96.390, 4036.0, 63.5295
10.758794093, 96.390, 4058.0, 63.7024
10.785054658, 96.390, 4010.0, 63.3246
10.811315223, 96.390, 4032.0, 63.4980
10.837575789, 96.390, 4154.0, 64.4515
10.863836354, 96.390, 4078.0, 63.8592
10.890096919, 96.390, 4251.0, 65.1997
10.916357485, 96.390, 4134.0, 64.2962
10.942618050, 96.390, 4081.0, 63.8827
10.968878616, 96.390, 4300.0, 65.5744
10.995139181, 96.390, 4310.0, 65.6506
11.021399746, 96.390, 4588.0, 67.7348
11.047660312, 96.390, 4435.0, 66.5958
11.073920877, 96.390, 4257.0, 65.2457
11.100181442, 96.390, 4035.0, 63.5216
11.126442008, 96.390, 4015.0, 63.3640
11.152702573, 96.390, 4104.0, 64.0625
11.178963138, 96.390, 4044.0, 63.5925
11.205223704, 96.390, 4124.0, 64.2184
11.231484269, 96.390, 4080.0, 63.8749
11.257744834, 96.390, 3951.0, 62.8570
11.284005400, 96.390, 4107.0, 64.0859
11.310265965, 96.390, 4046.0, 63.6082
11.336526530, 96.390, 4092.0, 63.9687
11.362787096, 96.390, 4124.0, 64.2184
11.389047661, 96.390, 4122.0, 64.2028
11.415308227, 96.390, 4083.0, 63.8984
11.441568792, 96.390, 4085.0, 63.9140
11.467829357, 96.390, 4000.0, 63.2456
11.494089923, 96.390, 3878.0, 62.2736
11.520350488, 96.390, 3767.0, 61.3759
11.546611053, 96.390, 3831.0, 61.8951
11.572871619, 96.390, 3956.0, 62.8967
11.599132184, 96.390, 3905.0, 62.4900
11.625392749, 96.390, 3866.0, 62.1772
11.651653315, 96.390, 3806.0, 61.6928
11.677913880, 96.390, 3929.0, 62.6817
11.704174445, 96.390, 3747.0, 61.2127
11.730435011, 96.390, 3741.0, 61.1637
11.756695576, 96.390, 3926.0, 62.6578
11.782956141, 96.390, 3786.0, 61.5305
11.809216707, 96.390, 3666.0, 60.5475
11.835477272, 96.390, 3556.0, 59.6322
11.861737838, 96.390, 3686.0, 60.7124
11.887998403, 96.390, 3622.0, 60.1831
11.914258968, 96.390, 3740.0, 61.1555
11.940519534, 96.390, 3618.0, 60.1498
11.966780099, 96.390, 3626.0, 60.2163
11.993040664, 96.390, 3585.0, 59.8749
12.019301230, 96.390, 3546.0, 59.5483
12.045561795, 96.390, 3457.0, 58.7963
12.071822360, 96.390, 3437.0, 58.6259
12.098082926, 96.390, 3490.0, 59.0762
12.124343491, 96.390, 3447.0, 58.7112
12.150604056, 96.390, 3410.0, 58.3952
12.176864622, 96.390, 3451.0, 58.7452
12.203125187, 96.390, 3219.0, 56.7362
12.229385753, 96.390, 3353.0, 57.9051
12.255646318, 96.390, 3325.0, 57.6628
12.281906883, 96.390, 3291.0, 57.3672
12.308167449, 96.390, 3267.0, 57.1577
12.334428014, 96.390, 3355.0, 57.9224
12.360688579, 96.390, 3250.0, 57.0088
12.386949145, 96.390, 3133.0, 55.9732
12.413209710, 96.390, 3147.0, 56.0981
12.439470275, 96.390, 3189.0, 56.4712
12.465730841, 96.390, 3161.0, 56.2228
12.491991406, 96.390, 3131.0, 55.9553
12.518251971, 96.390, 3131.0, 55.9553
12.544512537, 96.390, 3111.0, 55.7763
12.570773102, 96.390, 3121.0, 55.8659
12.597033667, 96.390, 3059.0, 55.3082
12.623294233, 96.390, 3019.0, 54.9454
12.649554798, 96.390, 2902.0, 53.8702
12.675815364, 96.390, 2911.0, 53.9537
12.702075929, 96.390, 2892.0, 53.7773
12.728336494, 96.390, 2922.0, 54.0555
12.754597060, 96.390, 2838.0, 53.2729
12.780857625, 96.390, 2910.0, 53.9444
12.807118190, 96.390, 2839.0, 53.2823
12.833378756, 96.390, 2859.0, 53.4696
12.859639321, 96.390, 2741.0, 52.3546
12.885899886, 96.390, 2787.0, 52.7920
12.912160452, 96.390, 2762.0, 52.5547
12.938421017, 96.390, 2831.0, 53.2071
12.964681582, 96.390, 2731.0, 52.2590
12.990942148, 96.390, 2671.0, 51.6817
13.017202713, 96.390, 2749.0, 52.4309
13.043463279, 96.390, 2736.0, 52.3068
13.069723844, 96.390, 2639.0, 51.3712
13.095984409, 96.390, 2615.0, 51.1371
13.122244975, 96.390, 2742.0, 52.3641
13.148505540, 96.390, 2607.0, 51.0588
13.174766105, 96.390, 2615.0, 51.1371
13.201026671, 96.390, 2680.0, 51.7687
13.227287236, 96.390, 2583.0, 50.8232
13.253547801, 96.390, 2648.0, 51.4587
13.279808367, 96.390, 2622.0, 51.2055
13.306068932, 96.390, 2687.0, 51.8363
13.332329497, 96.390, 2618.0, 51.1664
13.358590063, 96.390, 2712.0, 52.0769
13.384850628, 96.390, 2680.0, 51.7687
13.411111193, 96.390, 2705.0, 52.0096
13.437371759, 96.390, 2759.0, 52.5262
13.463632324, 96.390, 2977.0, 54.5619
13.489892890, 96.390, 3146.0, 56.0892
13.516153455, 96.390, 3244.0, 56.9561
13.542414020, 96.390, 2992.0, 54.6992
13.568674586, 96.390, 2792.0, 52.8394
13.594935151, 96.390, 2538.0, 50.3786
13.621195716, 96.390, 2563.0, 50.6261
13.647456282, 96.390, 2524.0, 50.2394
13.673716847, 96.390, 2568.0, 50.6754
13.699977412, 96.390, 2645.0, 51.4296
13.726237978, 96.390, 2608.0, 51.0686
13.752498543, 96.390, 2827.0, 53.1695
13.778759108, 96.390, 2902.0, 53.8702
13.805019674, 96.390, 3239.0, 56.9122
13.831280239, 96.390, 3406.0, 58.3609
13.857540805, 96.390, 3096.0, 55.6417
13.883801370, 96.390, 2897.0, 53.8238
13.910061935, 96.390, 2746.0, 52.4023
13.936322501, 96.390, 2585.0, 50.8429
13.962583066, 96.390, 2443.0, 49.4267
13.988843631, 96.390, 2411.0, 49.1019
14.015104197, 96.390, 2440.0, 49.3964
14.041364762, 96.390, 2341.0, 48.3839
14.067625327, 96.390, 2366.0, 48.6415
14.093885893, 96.390, 2441.0, 49.4065
14.120146458, 96.390, 2575.0, 50.7445
14.146407023, 96.390, 2659.0, 51.5655
14.172667589, 96.390, 2659.0, 51.5655
14.198928154, 96.390, 2972.0, 54.5161
14.225188719, 96.390, 3357.0, 57.9396
14.251449285, 96.390, 3900.0, 62.4500
14.277709850, 96.390, 4736.0, 68.8186
14.303970416, 96.390, 4745.0, 68.8840
14.330230981, 96.390, 3746.0, 61.2046
14.356491546, 96.390, 2875.0, 53.6190
14.382752112, 96.390, 2394.0, 48.9285
14.409012677, 96.390, 2263.0, 47.5710
14.435273242, 96.390, 2229.0, 47.2123
14.461533808, 96.390, 2219.0, 47.1063
14.487794373, 96.390, 2310.0, 48.0625
14.514054938, 96.390, 2231.0, 47.2335
14.540315504, 96.390, 2206.0, 46.9681
14.566576069, 96.390, 2323.0, 48.1975
14.592836634, 96.390, 2254.0, 47.4763
14.619097200, 96.390, 2162.0, 46.4973
14.645357765, 96.390, 2169.0, 46.5725
14.671618331, 96.390, 2176.0, 46.6476
14.697878896, 96.390, 2170.0, 46.5833
14.724139461, 96.390, 2132.0, 46.1736
14.750400027, 96.390, 2152.0, 46.3897
14.776660592, 96.390, 2117.0, 46.0109
14.802921157, 96.390, 2101.0, 45.8367
14.829181723, 96.390, 2151.0, 46.3789
14.855442288, 96.390, 2127.0, 46.1194
14.881702853, 96.390, 2042.0, 45.1885
14.907963419, 96.390, 2121.0, 46.0543
14.934223984, 96.390, 2066.0, 45.4533
14.960484549, 96.390, 2077.0, 45.5741
14.986745115, 96.390, 2065.0, 45.4423
15.013005680, 96.390, 2042.0, 45.1885
15.039266245, 96.390, 2018.0, 44.9222
15.065526811, 96.390, 2091.0, 45.7275
15.091787376, 96.390, 2181.0, 46.7012
15.118047942, 96.390, 2241.0, 47.3392
15.144308507, 96.390, 2223.0, 47.1487
15.170569072, 96.390, 2356.0, 48.5386
15.196829638, 96.390, 2455.0, 49.5480
15.223090203, 96.390, 2750.0, 52.4404
15.249350768, 96.390, 2970.0, 54.4977
15.275611334, 96.390, 3243.0, 56.9473
15.301871899, 96.390, 3156.0, 56.1783
15.328132464, 96.390, 2634.0, 51.3225
15.354393030, 96.390, 2366.0, 48.6415
15.380653595, 96.390, 2105.0, 45.8803
15.406914160, 96.390, 2134.0, 46.1952
15.433174726, 96.390, 2142.0, 46.2817
15.459435291, 96.390, 1958.0, 44.2493
15.485695857, 96.390, 2046.0, 45.2327
15.511956422, 96.390, 1944.0, 44.0908
15.538216987, 96.390, 1952.0, 44.1814
15.564477553, 96.390, 1999.0, 44.7102
15.590738118, 96.390, 1990.0, 44.6094
15.616998683, 96.390, 1920.0, 43.8178
15.643259249, 96.390, 1931.0, 43.9431
15.669519814, 96.390, 1905.0, 43.6463
15.695780379, 96.390, 2035.0, 45.1110
15.722040945, 96.390, 2033.0, 45.0888
15.748301510, 96.390, 1936.0, 44.0000
15.774562075, 96.390, 2019.0, 44.9333
15.800822641, 96.390, 2096.0, 45.7821
15.827083206, 96.390, 1990.0, 44.6094
15.853343771, 96.390, 1978.0, 44.4747
15.879604337, 96.390, 1958.0, 44.2493
15.905864902, 96.390, 1942.0, 44.0681
15.932125468, 96.390, 1965.0, 44.3283
15.958386033, 96.390, 1994.0, 44.6542
15.984646598, 96.390, 1921.0, 43.8292
16.010907164, 96.390, 1906.0, 43.6578
16.037167729, 96.390, 1934.0, 43.9773
16.063428294, 96.390, 1874.0, 43.2897
16.089688860, 96.390, 1931.0, 43.9431
16.115949425, 96.390, 1923.0, 43.8520
16.142209990, 96.390, 1903.0, 43.6234
16.168470556, 96.390, 1915.0, 43.7607
16.194731121, 96.390, 1977.0, 44.4635
16.220991686, 96.390, 1879.0, 43.3474
16.247252252, 96.390, 1983.0, 44.5309
16.273512817, 96.390, 2017.0, 44.9110
16.299773382, 96.390, 1959.0, 44.2606
16.326033948, 96.390, 1906.0, 43.6578
16.352294513, 96.390, 2033.0, 45.0888
16.378555079, 96.390, 1898.0, 43.5660
16.404815644, 96.390, 1879.0, 43.3474
16.431076209, 96.390, 1837.0, 42.8602
16.457336775, 96.390, 1924.0, 43.8634
16.483597340, 96.390, 1895.0, 43.5316
16.509857905, 96.390, 1943.0, 44.0795
16.536118471, 96.390, 1927.0, 43.8976
16.562379036, 96.390, 1895.0, 43.5316
16.588639601, 96.390, 1963.0, 44.3058
16.614900167, 96.390, 1921.0, 43.8292
16.641160732, 96.390, 1940.0, 44.0454
16.667421297, 96.390, 1904.0, 43.6348
16.693681863, 96.390, 1793.0, 42.3438
16.719942428, 96.390, 1866.0, 43.1972
16.746202994, 96.390, 1886.0, 43.4281
16.772463559, 96.390, 1934.0, 43.9773
16.798724124, 96.390, 1865.0, 43.1856
16.824984690, 96.390, 1900.0, 43.5890
16.851245255, 96.390, 1918.0, 43.7950
16.877505820, 96.390, 1900.0, 43.5890
16.903766386, 96.390, 1982.0, 44.5197
16.930026951, 96.390, 1941.0, 44.0568
16.956287516, 96.390, 1994.0, 44.6542
16.982548082, 96.390, 1963.0, 44.3058
17.008808647, 96.390, 1886.0, 43.4281
17.035069212, 96.390, 1931.0, 43.9431
17.061329778, 96.390, 1858.0, 43.1045
17.087590343, 96.390, 1869.0, 43.2319
17.113850908, 96.390, 1910.0, 43.7035
17.140111474, 96.390, 1880.0, 43.3590
17.166372039, 96.390, 1858.0, 43.1045
17.192632605, 96.390, 1902.0, 43.6119
17.218893170, 96.390, 1829.0, 42.7668
17.245153735, 96.390, 1903.0, 43.6234
17.271414301, 96.390, 1925.0, 43.8748
17.297674866, 96.390, 1951.0, 44.1701
17.323935431, 96.390, 1867.0, 43.2088
17.350195997, 96.390, 2009.0, 44.8219
17.376456562, 96.390, 1961.0, 44.2832
17.402717127, 96.390, 1999.0, 44.7102
17.428977693, 96.390, 1990.0, 44.6094
17.455238258, 96.390, 1978.0, 44.4747
17.481498823, 96.390, 1916.0, 43.7721
17.507759389, 96.390, 1905.0, 43.6463
17.534019954, 96.390, 1847.0, 42.9767
17.560280520, 96.390, 1855.0, 43.0697
17.586541085, 96.390, 1801.0, 42.4382
17.612801650, 96.390, 1888.0, 43.4511
17.639062216, 96.390, 1862.0, 43.1509
17.665322781, 96.390, 1936.0, 44.0000
17.691583346, 96.390, 1930.0, 43.9318
17.717843912, 96.390, 1814.0, 42.5911
17.744104477, 96.390, 1887.0, 43.4396
17.770365042, 96.390, 1837.0, 42.8602
17.796625608, 96.390, 1867.0, 43.2088
17.822886173, 96.390, 1855.0, 43.0697
17.849146738, 96.390, 1819.0, 42.6497
17.875407304, 96.390, 1921.0, 43.8292
17.901667869, 96.390, 1842.0, 42.9185
17.927928434, 96.390, 1824.0, 42.7083
17.954189000, 96.390, 1875.0, 43.3013
17.980449565, 96.390, 1770.0, 42.0714
18.006710131, 96.390, 1975.0, 44.4410
18.032970696, 96.390, 1938.0, 44.0227
18.059231261, 96.390, 1846.0, 42.9651
18.085491827, 96.390, 1950.0, 44.1588
18.111752392, 96.390, 1964.0, 44.3170
18.138012957, 96.390, 2002.0, 44.7437
18.164273523, 96.390, 1993.0, 44.6430
18.190534088, 96.390, 1962.0, 44.2945
18.216794653, 96.390, 1969.0, 44.3734
18.243055219, 96.390, 2037.0, 45.1331
18.269315784, 96.390, 2101.0, 45.8367
18.295576349, 96.390, 2271.0, 47.6550
18.321836915, 96.390, 2395.0, 48.9387
18.348097480, 96.390, 2186.0, 46.7547
18.374358046, 96.390, 2150.0, 46.3681
18.400618611, 96.390, 2171.0, 46.5940
18.426879176, 96.390, 2250.0, 47.4342
18.453139742, 96.390, 2379.0, 48.7750
18.479400307, 96.390, 2389.0, 48.8774
18.505660872, 96.390, 2177.0, 46.6583
18.531921438, 96.390, 2118.0, 46.0217
18.558182003, 96.390, 1878.0, 43.3359
18.584442568, 96.390, 1893.0, 43.5086
18.610703134, 96.390, 1843.0, 42.9302
18.636963699, 96.390, 1835.0, 42.8369
18.663224264, 96.390, 1903.0, 43.6234
18.689484830, 96.390, 1872.0, 43.2666
18.715745395, 96.390, 1894.0, 43.5201
18.742005960, 96.390, 1925.0, 43.8748
18.768266526, 96.390, 1907.0, 43.6692
18.794527091, 96.390, 1936.0, 44.0000
18.820787657, 96.390, 1937.0, 44.0114
18.847048222, 96.390, 2028.0, 45.0333
18.873308787, 96.390, 1961.0, 44.2832
18.899569353, 96.390, 1987.0, 44.5758
18.925829918, 96.390, 2027.0, 45.0222
18.952090483, 96.390, 1969.0, 44.3734
18.978351049, 96.390, 2069.0, 45.4863
19.004611614, 96.390, 2169.0, 46.5725
19.030872179, 96.390, 2169.0, 46.5725
19.057132745, 96.390, 2058.0, 45.3652
19.083393310, 96.390, 1931.0, 43.9431
19.109653875, 96.390, 2087.0, 45.6837
19.135914441, 96.390, 1937.0, 44.0114
19.162175006, 96.390, 1936.0, 44.0000
19.188435572, 96.390, 2049.0, 45.2659
19.214696137, 96.390, 1951.0, 44.1701
19.240956702, 96.390, 2001.0, 44.7325
19.267217268, 96.390, 2068.0, 45.4753
19.293477833, 96.390, 2126.0, 46.1086
19.319738398, 96.390, 2119.0, 46.0326
19.345998964, 96.390, 2187.0, 46.7654
19.372259529, 96.390, 2367.0, 48.6518
19.398520094, 96.390, 2485.0, 49.8498
19.424780660, 96.390, 2681.0, 51.7784
19.451041225, 96.390, 2710.0, 52.0577
19.477301790, 96.390, 2573.0, 50.7247
19.503562356, 96.390, 2393.0, 48.9183
19.529822921, 96.390, 2297.0, 47.9270
19.556083486, 96.390, 2153.0, 46.4004
19.582344052, 96.390, 2119.0, 46.0326
19.608604617, 96.390, 2158.0, 46.4543
19.634865183, 96.390, 2344.0, 48.4149
19.661125748, 96.390, 2316.0, 48.1248
19.687386313, 96.390, 2452.0, 49.5177
19.713646879, 96.390, 2560.0, 50.5964
19.739907444, 96.390, 2686.0, 51.8266
19.766168009, 96.390, 2745.0, 52.3927
19.792428575, 96.390, 2953.0, 54.3415
19.818689140, 96.390, 2892.0, 53.7773
19.844949705, 96.390, 2769.0, 52.6213
19.871210271, 96.390, 2729.0, 52.2398
19.897470836, 96.390, 2914.0, 53.9815
19.923731401, 96.390, 3413.0, 58.4209
19.949991967, 96.390, 3805.0, 61.6847
19.976252532, 96.390, 4159.0, 64.4903
20.002513097, 96.390, 4007.0, 63.3009
20.028773663, 96.390, 3386.0, 58.1893
20.055034228, 96.390, 2909.0, 53.9351
20.081294794, 96.390, 2415.0, 49.1426
20.107555359, 96.390, 2278.0, 47.7284
20.133815924, 96.390, 2190.0, 46.7974
20.160076490, 96.390, 2146.0, 46.3249
20.186337055, 96.390, 2146.0, 46.3249
20.212597620, 96.390, 2123.0, 46.0760
20.238858186, 96.390, 2270.0, 47.6445
20.265118751, 96.390, 2145.0, 46.3141
20.291379316, 96.390, 2245.0, 47.3814
20.317639882, 96.390, 2265.0, 47.5920
20.343900447, 96.390, 2420.0, 49.1935
20.370161012, 96.390, 2616.0, 51.1468
20.396421578, 96.390, 2652.0, 51.4976
20.422682143, 96.390, 3004.0, 54.8088
20.448942709, 96.390, 3039.0, 55.1271
20.475203274, 96.390, 2833.0, 53.2259
20.501463839, 96.390, 2738.0, 52.3259
20.527724405, 96.390, 2789.0, 52.8110
20.553984970, 96.390, 2966.0, 54.4610
20.580245535, 96.390, 3427.0, 58.5406
20.606506101, 96.390, 3957.0, 62.9047
20.632766666, 96.390, 4796.0, 69.2532
20.659027231, 96.390, 5718.0, 75.6175
20.685287797, 96.390, 6925.0, 83.2166
20.711548362, 96.390, 8140.0, 90.2219
20.737808927, 96.390, 7810.0, 88.3742
20.764069493, 96.390, 6179.0, 78.6066
20.790330058, 96.390, 4810.0, 69.3542
20.816590623, 96.390, 3446.0, 58.7026
20.842851189, 96.390, 2792.0, 52.8394
20.869111754, 96.390, 2514.0, 50.1398
20.895372320, 96.390, 2286.0, 47.8121
20.921632885, 96.390, 2436.0, 49.3559
20.947893450, 96.390, 2373.0, 48.7134
20.974154016, 96.390, 2409.0, 49.0816
21.000414581, 96.390, 2576.0, 50.7543
21.026675146, 96.390, 2425.0, 49.2443
21.052935712, 96.390, 2428.0, 49.2747
21.079196277, 96.390, 2297.0, 47.9270
21.105456842, 96.390, 2273.0, 47.6760
21.131717408, 96.390, 2170.0, 46.5833
21.157977973, 96.390, 2280.0, 47.7493
21.184238538, 96.390, 2266.0, 47.6025
21.210499104, 96.390, 2284.0, 47.7912
21.236759669, 96.390, 2232.0, 47.2440
21.263020235, 96.390, 2294.0, 47.8957
21.289280800, 96.390, 2331.0, 48.2804
21.315541365, 96.390, 2311.0, 48.0729
21.341801931, 96.390, 2190.0, 46.7974
21.368062496, 96.390, 2290.0, 47.8539
21.394323061, 96.390, 2269.0, 47.6340
21.420583627, 96.390, 2251.0, 47.4447
21.446844192, 96.390, 2326.0, 48.2286
21.473104757, 96.390, 2374.0, 48.7237
21.499365323, 96.390, 2322.0, 48.1871
21.525625888, 96.390, 2219.0, 47.1063
21.551886453, 96.390, 2303.0, 47.9896
21.578147019, 96.390, 2337.0, 48.3425
21.604407584, 96.390, 2281.0, 47.7598
21.630668149, 96.390, 2446.0, 49.4571
21.656928715, 96.390, 2490.0, 49.8999
21.683189280, 96.390, 2447.0, 49.4672
21.709449846, 96.390, 2428.0, 49.2747
21.735710411, 96.390, 2501.0, 50.0100
21.761970976, 96.390, 2464.0, 49.6387
21.788231542, 96.390, 2448.0, 49.4773
21.814492107, 96.390, 2363.0, 48.6107
21.840752672, 96.390, 2419.0, 49.1833
21.867013238, 96.390, 2414.0, 49.1325
21.893273803, 96.390, 2393.0, 48.9183
21.919534368, 96.390, 2487.0, 49.8698
21.945794934, 96.390, 2516.0, 50.1597
21.972055499, 96.390, 2534.0, 50.3389
21.998316064, 96.390, 2454.0, 49.5379
22.024576630, 96.390, 2446.0, 49.4571
22.050837195, 96.390, 2425.0, 49.2443
22.077097761, 96.390, 2500.0, 50.0000
22.103358326, 96.390, 2494.0, 49.9400
22.129618891, 96.390, 2531.0, 50.3090
22.155879457, 96.390, 2484.0, 49.8397
22.182140022, 96.390, 2568.0, 50.6754
22.208400587, 96.390, 2436.0, 49.3559
22.234661153, 96.390, 2428.0, 49.2747
22.260921718, 96.390, 2547.0, 50.4678
22.287182283, 96.390, 2442.0, 49.4166
22.313442849, 96.390, 2505.0, 50.0500
22.339703414, 96.390, 2541.0, 50.4083
22.365963979, 96.390, 2452.0, 49.5177
22.392224545, 96.390, 2556.0, 50.5569
22.418485110, 96.390, 2504.0, 50.0400
22.444745675, 96.390, 2605.0, 51.0392
22.471006241, 96.390, 2543.0, 50.4282
22.497266806, 96.390, 2624.0, 51.2250
22.523527372, 96.390, 2554.0, 50.5371
22.549787937, 96.390, 2591.0, 50.9019
22.576048502, 96.390, 2706.0, 52.0192
22.602309068, 96.390, 2626.0, 51.2445
22.628569633, 96.390, 2648.0, 51.4587
22.654830198, 96.390, 2555.0, 50.5470
22.681090764, 96.390, 2526.0, 50.2593
22.707351329, 96.390, 2568.0, 50.6754
22.733611894, 96.390, 2725.0, 52.2015
22.759872460, 96.390, 2639.0, 51.3712
22.786133025, 96.390, 2632.0, 51.3030
22.812393590, 96.390, 2669.0, 51.6624
22.838654156, 96.390, 2604.0, 51.0294
22.864914721, 96.390, 2615.0, 51.1371
22.891175287, 96.390, 2681.0, 51.7784
22.917435852, 96.390, 2755.0, 52.4881
22.943696417, 96.390, 2619.0, 51.1762
22.969956983, 96.390, 2487.0, 49.8698
22.996217548, 96.390, 2553.0, 50.5272
23.022478113, 96.390, 2608.0, 51.0686
23.048738679, 96.390, 2531.0, 50.3090
23.074999244, 96.390, 2596.0, 50.9510
23.101259809, 96.390, 2593.0, 50.9215
23.127520375, 96.390, 2591.0, 50.9019
23.153780940, 96.390, 2521.0, 50.2096
23.180041505, 96.390, 2465.0, 49.6488
23.206302071, 96.390, 2528.0, 50.2792
23.232562636, 96.390, 2538.0, 50.3786
23.258823201, 96.390, 2548.0, 50.4777
23.285083767, 96.390, 2579.0, 50.7839
23.311344332, 96.390, 2513.0, 50.1298
23.337604898, 96.390, 2491.0, 49.9099
23.363865463, 96.390, 2637.0, 51.3517
23.390126028, 96.390, 2610.0, 51.0882
23.416386594, 96.390, 2544.0, 50.4381
23.442647159, 96.390, 2647.0, 51.4490
23.468907724, 96.390, 2802.0, 52.9339
23.495168290, 96.390, 2919.0, 54.0278
23.521428855, 96.390, 3173.0, 56.3294
23.547689420, 96.390, 3319.0, 57.6108
23.573949986, 96.390, 3033.0, 55.0727
23.600210551, 96.390, 2823.0, 53.1319
23.626471116, 96.390, 2692.0, 51.8845
23.652731682, 96.390, 2515.0, 50.1498
23.678992247, 96.390, 2320.0, 48.1664
23.705252813, 96.390, 2369.0, 48.6724
23.731513378, 96.390, 2471.0, 49.7092
23.757773943, 96.390, 2463.0, 49.6286
23.784034509, 96.390, 2346.0, 48.4355
23.810295074, 96.390, 2290.0, 47.8539
23.836555639, 96.390, 2327.0, 48.2390
23.862816205, 96.390, 2393.0, 48.9183
23.889076770, 96.390, 2341.0, 48.3839
23.915337335, 96.390, 2293.0, 47.8853
23.941597901, 96.390, 2315.0, 48.1144
23.967858466, 96.390, 2402.0, 49.0102
23.994119031, 96.390, 2234.0, 47.2652
24.020379597, 96.390, 2244.0, 47.3709
24.046640162, 96.390, 2309.0, 48.0521
24.072900727, 96.390, 2428.0, 49.2747
24.099161293, 96.390, 2418.0, 49.1732
24.125421858, 96.390, 2530.0, 50.2991
24.151682424, 96.390, 2586.0, 50.8527
24.177942989, 96.390, 2812.0, 53.0283
24.204203554, 96.390, 2691.0, 51.8748
24.230464120, 96.390, 2820.0, 53.1037
24.256724685, 96.390, 2676.0, 51.7301
24.282985250, 96.390, 2565.0, 50.6458
24.309245816, 96.390, 2421.0, 49.2037
24.335506381, 96.390, 2359.0, 48.5695
24.361766946, 96.390, 2368.0, 48.6621
24.388027512, 96.390, 2189.0, 46.7868
24.414288077, 96.390, 2181.0, 46.7012
24.440548642, 96.390, 2169.0, 46.5725
24.466809208, 96.390, 2138.0, 46.2385
24.493069773, 96.390, 2114.0, 45.9783
24.519330338, 96.390, 2137.0, 46.2277
24.545590904, 96.390, 2401.0, 49.0000
24.571851469, 96.390, 2646.0, 51.4393
24.598112035, 96.390, 2321.0, 48.1768
24.624372600, 96.390, 2160.0, 46.4758
24.650633165, 96.390, 2154.0, 46.4112
24.676893731, 96.390, 2063.0, 45.4203
24.703154296, 96.390, 1954.0, 44.2041
24.729414861, 96.390, 2016.0, 44.8999
24.755675427, 96.390, 1966.0, 44.3396
24.781935992, 96.390, 1910.0, 43.7035
24.808196557, 96.390, 1975.0, 44.4410
24.834457123, 96.390, 2022.0, 44.9667
24.860717688, 96.390, 2008.0, 44.8107
24.886978253, 96.390, 2023.0, 44.9778
24.913238819, 96.390, 1916.0, 43.7721
24.939499384, 96.390, 1999.0, 44.7102
24.965759950, 96.390, 2068.0, 45.4753
24.992020515, 96.390, 2013.0, 44.8665
25.018281080, 96.390, 1954.0, 44.2041
25.044541646, 96.390, 1981.0, 44.5084
25.070802211, 96.390, 1909.0, 43.6921
25.097062776, 96.390, 1977.0, 44.4635
25.123323342, 96.390, 1897.0, 43.5546
25.149583907, 96.390, 1880.0, 43.3590
25.175844472, 96.390, 1932.0, 43.9545
25.202105038, 96.390, 1941.0, 44.0568
25.228365603, 96.390, 2010.0, 44.8330
25.254626168, 96.390, 1944.0, 44.0908
25.280886734, 96.390, 2035.0, 45.1110
25.307147299, 96.390, 2095.0, 45.7712
25.333407864, 96.390, 2221.0, 47.1275
25.359668430, 96.390, 2406.0, 49.0510
25.385928995, 96.390, 2765.0, 52.5833
25.412189561, 96.390, 3045.0, 55.1815
25.438450126, 96.390, 3257.0, 57.0701
25.464710691, 96.390, 3278.0, 57.2538
25.490971257, 96.390, 2945.0, 54.2679
25.517231822, 96.390, 2640.0, 51.3809
25.543492387, 96.390, 2326.0, 48.2286
25.569752953, 96.390, 2141.0, 46.2709
25.596013518, 96.390, 1979.0, 44.4860
25.622274083, 96.390, 1981.0, 44.5084
25.648534649, 96.390, 1929.0, 43.9204
25.674795214, 96.390, 1886.0, 43.4281
25.701055779, 96.390, 1926.0, 43.8862
25.727316345, 96.390, 1898.0, 43.5660
25.753576910, 96.390, 1843.0, 42.9302
25.779837476, 96.390, 1926.0, 43.8862
25.806098041, 96.390, 1866.0, 43.1972
25.832358606, 96.390, 1948.0, 44.1362
25.858619172, 96.390, 1938.0, 44.0227
25.884879737, 96.390, 1918.0, 43.7950
25.911140302, 96.390, 1924.0, 43.8634
25.937400868, 96.390, 1900.0, 43.5890
25.963661433, 96.390, 1869.0, 43.2319
25.989921998, 96.390, 1829.0, 42.7668
26.016182564, 96.390, 1884.0, 43.4051
26.042443129, 96.390, 1845.0, 42.9535
26.068703694, 96.390, 1901.0, 43.6005
26.094964260, 96.390, 1804.0, 42.4735
26.121224825, 96.390, 1834.0, 42.8252
26.147485390, 96.390, 1840.0, 42.8952
26.173745956, 96.390, 1856.0, 43.0813
26.200006521, 96.390, 1779.0, 42.1782
26.226267087, 96.390, 1815.0, 42.6028
26.252527652, 96.390, 1780.0, 42.1900
26.278788217, 96.390, 1804.0, 42.4735
26.305048783, 96.390, 1908.0, 43.6807
26.331309348, 96.390, 1857.0, 43.0929
26.357569913, 96.390, 1811.0, 42.5558
26.383830479, 96.390, 1850.0, 43.0116
26.410091044, 96.390, 1772.0, 42.0951
26.436351609, 96.390, 1855.0, 43.0697
26.462612175, 96.390, 1952.0, 44.1814
26.488872740, 96.390, 1825.0, 42.7200
26.515133305, 96.390, 1877.0, 43.3244
26.541393871, 96.390, 1850.0, 43.0116
26.567654436, 96.390, 1857.0, 43.0929
26.593915002, 96.390, 1775.0, 42.1307
26.620175567, 96.390, 1839.0, 42.8836
26.646436132, 96.390, 1892.0, 43.4971
26.672696698, 96.390, 1897.0, 43.5546
26.698957263, 96.390, 1957.0, 44.2380
26.725217828, 96.390, 1878.0, 43.3359
26.751478394, 96.390, 1918.0, 43.7950
26.777738959, 96.390, 1915.0, 43.7607
26.803999524, 96.390, 1892.0, 43.4971
26.830260090, 96.390, 1861.0, 43.1393
26.856520655, 96.390, 1938.0, 44.0227
26.882781220, 96.390, 1903.0, 43.6234
26.909041786, 96.390, 2030.0, 45.0555
26.935302351, 96.390, 1935.0, 43.9886
26.961562916, 96.390, 1955.0, 44.2154
26.987823482, 96.390, 2051.0, 45.2880
27.014084047, 96.390, 2084.0, 45.6508
27.040344613, 96.390, 2158.0, 46.4543
27.066605178, 96.390, 2255.0, 47.4868
27.092865743, 96.390, 2376.0, 48.7442
27.119126309, 96.390, 2477.0, 49.7695
27.145386874, 96.390, 2821.0, 53.1131
27.171647439, 96.390, 3243.0, 56.9473
27.197908005, 96.390, 3519.0, 59.3212
27.224168570, 96.390, 3269.0, 57.1752
27.250429135, 96.390, 2877.0, 53.6377
27.276689701, 96.390, 2726.0, 52.2111
27.302950266, 96.390, 2425.0, 49.2443
27.329210831, 96.390, 2187.0, 46.7654
27.355471397, 96.390, 2083.0, 45.6399
27.381731962, 96.390, 2059.0, 45.3762
27.407992528, 96.390, 1960.0, 44.2719
27.434253093, 96.390, 1972.0, 44.4072
27.460513658, 96.390, 1973.0, 44.4185
27.486774224, 96.390, 1946.0, 44.1135
27.513034789, 96.390, 1877.0, 43.3244
27.539295354, 96.390, 1940.0, 44.0454
27.565555920, 96.390, 1963.0, 44.3058
27.591816485, 96.390, 2005.0, 44.7772
27.618077050, 96.390, 1944.0, 44.0908
27.644337616, 96.390, 2062.0, 45.4093
27.670598181, 96.390, 2103.0, 45.8585
27.696858746, 96.390, 2035.0, 45.1110
27.723119312, 96.390, 2086.0, 45.6727
27.749379877, 96.390, 2039.0, 45.1553
27.775640442, 96.390, 1995.0, 44.6654
27.801901008, 96.390, 1882.0, 43.3820
27.828161573, 96.390, 1923.0, 43.8520
27.854422139, 96.390, 2019.0, 44.9333
27.880682704, 96.390, 2029.0, 45.0444
27.906943269, 96.390, 2040.0, 45.1664
27.933203835, 96.390, 1925.0, 43.8748
27.959464400, 96.390, 1953.0, 44.1928
27.985724965, 96.390, 1988.0, 44.5870
28.011985531, 96.390, 1940.0, 44.0454
28.038246096, 96.390, 2027.0, 45.0222
28.064506661, 96.390, 2053.0, 45.3100
28.090767227, 96.390, 2000.0, 44.7214
28.117027792, 96.390, 2077.0, 45.5741
28.143288357, 96.390, 1971.0, 44.3959
28.169548923, 96.390, 1964.0, 44.3170
28.195809488, 96.390, 2011.0, 44.8442
28.222070054, 96.390, 1982.0, 44.5197
28.248330619, 96.390, 1981.0, 44.5084
28.274591184, 96.390, 2074.0, 45.5412
28.300851750, 96.390, 1955.0, 44.2154
28.327112315, 96.390, 2028.0, 45.0333
28.353372880, 96.390, 1888.0, 43.4511
28.379633446, 96.390, 1970.0, 44.3847
28.405894011, 96.390, 1937.0, 44.0114
28.432154576, 96.390, 1834.0, 42.8252
28.458415142, 96.390, 1987.0, 44.5758
28.484675707, 96.390, 1945.0, 44.1022
28.510936272, 96.390, 1943.0, 44.0795
28.537196838, 96.390, 1942.0, 44.0681
28.563457403, 96.390, 1914.0, 43.7493
28.589717968, 96.390, 1897.0, 43.5546
28.615978534, 96.390, 1927.0, 43.8976
28.642239099, 96.390, 1980.0, 44.4972
28.668499665, 96.390, 2025.0, 45.0000
28.694760230, 96.390, 2010.0, 44.8330
28.721020795, 96.390, 2086.0, 45.6727
28.747281361, 96.390, 2300.0, 47.9583
28.773541926, 96.390, 2308.0, 48.0416
28.799802491, 96.390, 2326.0, 48.2286
28.826063057, 96.390, 2171.0, 46.5940
28.852323622, 96.390, 2089.0, 45.7056
28.878584187, 96.390, 2044.0, 45.2106
28.904844753, 96.390, 2091.0, 45.7275
28.931105318, 96.390, 1955.0, 44.2154
28.957365883, 96.390, 2095.0, 45.7712
28.983626449, 96.390, 2017.0, 44.9110
29.009887014, 96.390, 2076.0, 45.5631
29.036147579, 96.390, 2229.0, 47.2123
29.062408145, 96.390, 2288.0, 47.8330
29.088668710, 96.390, 2461.0, 49.6085
29.114929276, 96.390, 2575.0, 50.7445
29.141189841, 96.390, 2505.0, 50.0500
29.167450406, 96.390, 2294.0, 47.8957
29.193710972, 96.390, 2275.0, 47.6970
29.219971537, 96.390, 2164.0, 46.5188
29.246232102, 96.390, 2068.0, 45.4753
29.272492668, 96.390, 2024.0, 44.9889
29.298753233, 96.390, 1964.0, 44.3170
29.325013798, 96.390, 2013.0, 44.8665
29.351274364, 96.390, 2009.0, 44.8219
29.377534929, 96.390, 1962.0, 44.2945
29.403795494, 96.390, 1796.0, 42.3792
29.430056060, 96.390, 2072.0, 45.5192
29.456316625, 96.390, 1882.0, 43.3820
29.482577191, 96.390, 1946.0, 44.1135
29.508837756, 96.390, 1945.0, 44.1022
29.535098321, 96.390, 2021.0, 44.9555
29.561358887, 96.390, 2003.0, 44.7549
29.587619452, 96.390, 1975.0, 44.4410
29.613880017, 96.390, 1934.0, 43.9773
29.640140583, 96.390, 1980.0, 44.4972
29.666401148, 96.390, 1943.0, 44.0795
29.692661713, 96.390, 1934.0, 43.9773
29.718922279, 96.390, 1840.0, 42.8952
29.745182844, 96.390, 1842.0, 42.9185
29.771443409, 96.390, 1927.0, 43.8976
29.797703975, 96.390, 1960.0, 44.2719
29.823964540, 96.390, 1934.0, 43.9773
29.850225105, 96.390, 1924.0, 43.8634
29.876485671, 96.390, 1955.0, 44.2154
29.902746236, 96.390, 1865.0, 43.1856
29.929006802, 96.390, 1880.0, 43.3590
29.955267367, 96.390, 1954.0, 44.2041
29.981527932, 96.390, 1896.0, 43.5431
30.007788498, 96.390, 1858.0, 43.1045
30.034049063, 96.390, 1927.0, 43.8976
30.060309628, 96.390, 1935.0, 43.9886
30.086570194, 96.390, 1798.0, 42.4028
30.112830759, 96.390, 1899.0, 43.5775
30.139091324, 96.390, 1876.0, 43.3128
30.165351890, 96.390, 1839.0, 42.8836
30.191612455, 96.390, 1875.0, 43.3013
30.217873020, 96.390, 1867.0, 43.2088
30.244133586, 96.390, 1832.0, 42.8019
30.270394151, 96.390, 1933.0, 43.9659
30.296654717, 96.390, 1902.0, 43.6119
30.322915282, 96.390, 1881.0, 43.3705
30.349175847, 96.390, 1896.0, 43.5431
30.375436413, 96.390, 1906.0, 43.6578
30.401696978, 96.390, 1856.0, 43.0813
30.427957543, 96.390, 1928.0, 43.9090
30.454218109, 96.390, 2015.0, 44.8888
30.480478674, 96.390, 2003.0, 44.7549
30.506739239, 96.390, 2100.0, 45.8258
30.532999805, 96.390, 2051.0, 45.2880
30.559260370, 96.390, 2155.0, 46.4220
30.585520935, 96.390, 2213.0, 47.0425
30.611781501, 96.390, 2323.0, 48.1975
30.638042066, 96.390, 2458.0, 49.5782
30.664302631, 96.390, 2740.0, 52.3450
30.690563197, 96.390, 3003.0, 54.7996
30.716823762, 96.390, 3350.0, 57.8792
30.743084328, 96.390, 3432.0, 58.5833
30.769344893, 96.390, 2925.0, 54.0833
30.795605458, 96.390, 2764.0, 52.5738
30.821866024, 96.390, 2860.0, 53.4790
30.848126589, 96.390, 2632.0, 51.3030
30.874387154, 96.390, 2453.0, 49.5278
30.900647720, 96.390, 2293.0, 47.8853
30.926908285, 96.390, 2094.0, 45.7602
30.953168850, 96.390, 2101.0, 45.8367
30.979429416, 96.390, 2008.0, 44.8107
31.005689981, 96.390, 2029.0, 45.0444
31.031950546, 96.390, 2093.0, 45.7493
31.058211112, 96.390, 2048.0, 45.2548
31.084471677, 96.390, 2053.0, 45.3100
31.110732243, 96.390, 2235.0, 47.2758
31.136992808, 96.390, 2373.0, 48.7134
31.163253373, 96.390, 2603.0, 51.0196
31.189513939, 96.390, 2907.0, 53.9166
31.215774504, 96.390, 3271.0, 57.1927
31.242035069, 96.390, 3245.0, 56.9649
31.268295635, 96.390, 2808.0, 52.9906
31.294556200, 96.390, 2586.0, 50.8527
31.320816765, 96.390, 2643.0, 51.4101
31.347077331, 96.390, 2302.0, 47.9792
31.373337896, 96.390, 2237.0, 47.2969
31.399598461, 96.390, 2208.0, 46.9894
31.425859027, 96.390, 2069.0, 45.4863
31.452119592, 96.390, 2191.0, 46.8081
31.478380157, 96.390, 2221.0, 47.1275
31.504640723, 96.390, 2422.0, 49.2138
31.530901288, 96.390, 2550.0, 50.4975
31.557161854, 96.390, 2400.0, 48.9898
31.583422419, 96.390, 2366.0, 48.6415
31.609682984, 96.390, 2501.0, 50.0100
31.635943550, 96.390, 2580.0, 50.7937
31.662204115, 96.390, 2672.0, 51.6914
31.688464680, 96.390, 3202.0, 56.5862
31.714725246, 96.390, 5123.0, 71.5751
31.740985811, 96.390, 4985.0, 70.6045
31.767246376, 96.390, 3125.0, 55.9017
31.793506942, 96.390, 3388.0, 58.2065
31.819767507, 96.390, 3511.0, 59.2537
31.846028072, 96.390, 2569.0, 50.6853
31.872288638, 96.390, 2315.0, 48.1144
31.898549203, 96.390, 2503.0, 50.0300
31.924809769, 96.390, 2640.0, 51.3809
31.951070334, 96.390, 3071.0, 55.4166
31.977330899, 96.390, 3600.0, 60.0000
32.003591465, 96.390, 4344.0, 65.9090
32.029852030, 96.390, 5512.0, 74.2428
32.056112595, 96.390, 6528.0, 80.7960
32.082373161, 96.390, 7016.0, 83.7616
32.108633726, 96.390, 6160.0, 78.4857
32.134894291, 96.390, 5166.0, 71.8749
32.161154857, 96.390, 4806.0, 69.3253
32.187415422, 96.390, 3738.0, 61.1392
32.213675987, 96.390, 2854.0, 53.4228
32.239936553, 96.390, 2406.0, 49.0510
32.266197118, 96.390, 2236.0, 47.2864
32.292457683, 96.390, 2069.0, 45.4863
32.318718249, 96.390, 2023.0, 44.9778
32.344978814, 96.390, 1995.0, 44.6654
32.371239380, 96.390, 1943.0, 44.0795
32.397499945, 96.390, 1977.0, 44.4635
32.423760510, 96.390, 1952.0, 44.1814
32.450021076, 96.390, 1884.0, 43.4051
32.476281641, 96.390, 1874.0, 43.2897
32.502542206, 96.390, 1843.0, 42.9302
32.528802772, 96.390, 1778.0, 42.1663
32.555063337, 96.390, 1829.0, 42.7668
32.581323902, 96.390, 1750.0, 41.8330
32.607584468, 96.390, 1864.0, 43.1741
32.633845033, 96.390, 1873.0, 43.2782
32.660105598, 96.390, 1963.0, 44.3058
32.686366164, 96.390, 2033.0, 45.0888
32.712626729, 96.390, 1970.0, 44.3847
32.738887295, 96.390, 1892.0, 43.4971
32.765147860, 96.390, 1843.0, 42.9302
32.791408425, 96.390, 1920.0, 43.8178
32.817668991, 96.390, 1886.0, 43.4281
32.843929556, 96.390, 1812.0, 42.5676
32.870190121, 96.390, 1871.0, 43.2551
32.896450687, 96.390, 1864.0, 43.1741
32.922711252, 96.390, 1812.0, 42.5676
32.948971817, 96.390, 1869.0, 43.2319
32.975232383, 96.390, 1911.0, 43.7150
33.001492948, 96.390, 1902.0, 43.6119
33.027753513, 96.390, 2061.0, 45.3982
33.054014079, 96.390, 2108.0, 45.9130
33.080274644, 96.390, 2213.0, 47.0425
33.106535209, 96.390, 2354.0, 48.5180
33.132795775, 96.390, 2491.0, 49.9099
33.159056340, 96.390, 2599.0, 50.9804
33.185316906, 96.390, 2357.0, 48.5489
33.211577471, 96.390, 2220.0, 47.1169
33.237838036, 96.390, 2304.0, 48.0000
33.264098602, 96.390, 2209.0, 47.0000
33.290359167, 96.390, 2080.0, 45.6070
33.316619732, 96.390, 2097.0, 45.7930
33.342880298, 96.390, 2092.0, 45.7384
33.369140863, 96.390, 2202.0, 46.9255
33.395401428, 96.390, 2419.0, 49.1833
33.421661994, 96.390, 2779.0, 52.7162
33.447922559, 96.390, 3276.0, 57.2364
33.474183124, 96.390, 3730.0, 61.0737
33.500443690, 96.390, 3205.0, 56.6127
33.526704255, 96.390, 2782.0, 52.7447
33.552964820, 96.390, 2867.0, 53.5444
33.579225386, 96.390, 2557.0, 50.5668
33.605485951, 96.390, 2162.0, 46.4973
33.631746517, 96.390, 1979.0, 44.4860
33.658007082, 96.390, 2007.0, 44.7996
33.684267647, 96.390, 2088.0, 45.6946
33.710528213, 96.390, 2009.0, 44.8219
33.736788778, 96.390, 2083.0, 45.6399
33.763049343, 96.390, 2117.0, 46.0109
33.789309909, 96.390, 2258.0, 47.5184
33.815570474, 96.390, 2348.0, 48.4562
33.841831039, 96.390, 2402.0, 49.0102
33.868091605, 96.390, 2729.0, 52.2398
33.894352170, 96.390, 2932.0, 54.1479
33.920612735, 96.390, 3117.0, 55.8301
33.946873301, 96.390, 3711.0, 60.9180
33.973133866, 96.390, 4127.0, 64.2417
33.999394432, 96.390, 3925.0, 62.6498
34.025654997, 96.390, 3477.0, 58.9661
34.051915562, 96.390, 3393.0, 58.2495
34.078176128, 96.390, 3189.0, 56.4712
34.104436693, 96.390, 2826.0, 53.1601
34.130697258, 96.390, 2617.0, 51.1566
34.156957824, 96.390, 2691.0, 51.8748
34.183218389, 96.390, 2468.0, 49.6790
34.209478954, 96.390, 2502.0, 50.0200
34.235739520, 96.390, 2642.0, 51.4004
34.262000085, 96.390, 2612.0, 51.1077
34.288260650, 96.390, 2810.0, 53.0094
34.314521216, 96.390, 2902.0, 53.8702
34.340781781, 96.390, 3024.0, 54.9909
34.367042346, 96.390, 3007.0, 54.8361
34.393302912, 96.390, 2907.0, 53.9166
34.419563477, 96.390, 2951.0, 54.3231
34.445824043, 96.390, 3071.0, 55.4166
34.472084608, 96.390, 3189.0, 56.4712
34.498345173, 96.390, 3110.0, 55.7674
34.524605739, 96.390, 3071.0, 55.4166
34.550866304, 96.390, 3083.0, 55.5248
34.577126869, 96.390, 3088.0, 55.5698
34.603387435, 96.390, 3053.0, 55.2540
34.629648000, 96.390, 3094.0, 55.6237
34.655908565, 96.390, 3128.0, 55.9285
34.682169131, 96.390, 3070.0, 55.4076
34.708429696, 96.390, 3009.0, 54.8544
34.734690261, 96.390, 3022.0, 54.9727
34.760950827, 96.390, 2984.0, 54.6260
34.787211392, 96.390, 3189.0, 56.4712
34.813471958, 96.390, 3177.0, 56.3649
34.839732523, 96.390, 3229.0, 56.8243
34.865993088, 96.390, 3563.0, 59.6909
34.892253654, 96.390, 3897.0, 62.4260
34.918514219, 96.390, 4226.0, 65.0077
34.944774784, 96.390, 4492.0, 67.0224
34.971035350, 96.390, 4501.0, 67.0895
34.997295915, 96.390, 4253.0, 65.2150
35.023556480, 96.390, 4089.0, 63.9453
35.049817046, 96.390, 3815.0, 61.7657
35.076077611, 96.390, 3417.0, 58.4551
35.102338176, 96.390, 3180.0, 56.3915
35.128598742, 96.390, 3030.0, 55.0454
35.154859307, 96.390, 2887.0, 53.7308
35.181119872, 96.390, 2832.0, 53.2165
35.207380438, 96.390, 2844.0, 53.3292
35.233641003, 96.390, 2962.0, 54.4243
35.259901569, 96.390, 2776.0, 52.6878
35.286162134, 96.390, 2691.0, 51.8748
35.312422699, 96.390, 2623.0, 51.2152
35.338683265, 96.390, 2670.0, 51.6720
35.364943830, 96.390, 2679.0, 51.7591
35.391204395, 96.390, 2462.0, 49.6185
35.417464961, 96.390, 2446.0, 49.4571
35.443725526, 96.390, 2468.0, 49.6790
35.469986091, 96.390, 2370.0, 48.6826
35.496246657, 96.390, 2448.0, 49.4773
35.522507222, 96.390, 2376.0, 48.7442
35.548767787, 96.390, 2466.0, 49.6588
35.575028353, 96.390, 2445.0, 49.4469
35.601288918, 96.390, 2379.0, 48.7750
35.627549484, 96.390, 2551.0, 50.5074
35.653810049, 96.390, 2398.0, 48.9694
35.680070614, 96.390, 2404.0, 49.0306
35.706331180, 96.390, 2475.0, 49.7494
35.732591745, 96.390, 2448.0, 49.4773
35.758852310, 96.390, 2382.0, 48.8057
35.785112876, 96.390, 2255.0, 47.4868
35.811373441, 96.390, 2309.0, 48.0521
35.837634006, 96.390, 2352.0, 48.4974
35.863894572, 96.390, 2353.0, 48.5077
35.890155137, 96.390, 2290.0, 47.8539
35.916415702, 96.390, 2319.0, 48.1560
35.942676268, 96.390, 2270.0, 47.6445
35.968936833, 96.390, 2345.0, 48.4252
35.995197398, 96.390, 2228.0, 47.2017
36.021457964, 96.390, 2285.0, 47.8017
36.047718529, 96.390, 2205.0, 46.9574
36.073979095, 96.390, 2227.0, 47.1911
36.100239660, 96.390, 2108.0, 45.9130
36.126500225, 96.390, 2020.0, 44.9444
36.152760791, 96.390, 2127.0, 46.1194
36.179021356, 96.390, 2066.0, 45.4533
36.205281921, 96.390, 2076.0, 45.5631
36.231542487, 96.390, 2037.0, 45.1331
36.257803052, 96.390, 2067.0, 45.4643
36.284063617, 96.390, 2118.0, 46.0217
36.310324183, 96.390, 2038.0, 45.1442
36.336584748, 96.390, 2025.0, 45.0000
36.362845313, 96.390, 2182.0, 46.7119
36.389105879, 96.390, 2127.0, 46.1194
36.415366444, 96.390, 2228.0, 47.2017
36.441627010, 96.390, 2011.0, 44.8442
36.467887575, 96.390, 2058.0, 45.3652
36.494148140, 96.390, 2012.0, 44.8553
36.520408706, 96.390, 1986.0, 44.5646
36.546669271, 96.390, 1905.0, 43.6463
36.572929836, 96.390, 1966.0, 44.3396
36.599190402, 96.390, 1863.0, 43.1625
36.625450967, 96.390, 1986.0, 44.5646
36.651711532, 96.390, 1955.0, 44.2154
36.677972098, 96.390, 1843.0, 42.9302
36.704232663, 96.390, 1971.0, 44.3959
36.730493228, 96.390, 1911.0, 43.7150
36.756753794, 96.390, 1865.0, 43.1856
36.783014359, 96.390, 1945.0, 44.1022
36.809274924, 96.390, 1972.0, 44.4072
36.835535490, 96.390, 1877.0, 43.3244
36.861796055, 96.390, 1859.0, 43.1161
36.888056621, 96.390, 1781.0, 42.2019
36.914317186, 96.390, 1787.0, 42.2729
36.940577751, 96.390, 1813.0, 42.5793
36.966838317, 96.390, 1767.0, 42.0357
36.993098882, 96.390, 1809.0, 42.5323
37.019359447, 96.390, 1787.0, 42.2729
37.045620013, 96.390, 1890.0, 43.4741
37.071880578, 96.390, 1798.0, 42.4028
37.098141143, 96.390, 1821.0, 42.6732
37.124401709, 96.390, 1817.0, 42.6263
37.150662274, 96.390, 1813.0, 42.5793
37.176922839, 96.390, 1733.0, 41.6293
37.203183405, 96.390, 1786.0, 42.2611
37.229443970, 96.390, 1802.0, 42.4500
37.255704535, 96.390, 1815.0, 42.6028
37.281965101, 96.390, 1775.0, 42.1307
37.308225666, 96.390, 1765.0, 42.0119
37.334486232, 96.390, 1736.0, 41.6653
37.360746797, 96.390, 1813.0, 42.5793
37.387007362, 96.390, 1833.0, 42.8135
37.413267928, 96.390, 1903.0, 43.6234
37.439528493, 96.390, 1848.0, 42.9884
37.465789058, 96.390, 1848.0, 42.9884
37.492049624, 96.390, 1875.0, 43.3013
37.518310189, 96.390, 1883.0, 43.3935
37.544570754, 96.390, 1841.0, 42.9069
37.570831320, 96.390, 1885.0, 43.4166
37.597091885, 96.390, 1946.0, 44.1135
37.623352450, 96.390, 1971.0, 44.3959
37.649613016, 96.390, 2102.0, 45.8476
37.675873581, 96.390, 2100.0, 45.8258
37.702134147, 96.390, 2310.0, 48.0625
37.728394712, 96.390, 2450.0, 49.4975
37.754655277, 96.390, 2532.0, 50.3190
37.780915843, 96.390, 2454.0, 49.5379
37.807176408, 96.390, 2281.0, 47.7598
37.833436973, 96.390, 2250.0, 47.4342
37.859697539, 96.390, 2321.0, 48.1768
37.885958104, 96.390, 2180.0, 46.6905
37.912218669, 96.390, 2085.0, 45.6618
37.938479235, 96.390, 2071.0, 45.5082
37.964739800, 96.390, 1892.0, 43.4971
37.991000365, 96.390, 2022.0, 44.9667
38.017260931, 96.390, 2010.0, 44.8330
38.043521496, 96.390, 1957.0, 44.2380
38.069782061, 96.390, 1804.0, 42.4735
38.096042627, 96.390, 1907.0, 43.6692
38.122303192, 96.390, 1976.0, 44.4522
38.148563758, 96.390, 2056.0, 45.3431
38.174824323, 96.390, 2148.0, 46.3465
38.201084888, 96.390, 2271.0, 47.6550
38.227345454, 96.390, 2260.0, 47.5395
38.253606019, 96.390, 2109.0, 45.9239
38.279866584, 96.390, 2185.0, 46.7440
38.306127150, 96.390, 2120.0, 46.0435
38.332387715, 96.390, 2044.0, 45.2106
38.358648280, 96.390, 1943.0, 44.0795
38.384908846, 96.390, 1812.0, 42.5676
38.411169411, 96.390, 1935.0, 43.9886
38.437429976, 96.390, 1898.0, 43.5660
38.463690542, 96.390, 1990.0, 44.6094
38.489951107, 96.390, 1923.0, 43.8520
38.516211673, 96.390, 1891.0, 43.4856
38.542472238, 96.390, 1943.0, 44.0795
38.568732803, 96.390, 2028.0, 45.0333
38.594993369, 96.390, 1926.0, 43.8862
38.621253934, 96.390, 1949.0, 44.1475
38.647514499, 96.390, 2044.0, 45.2106
38.673775065, 96.390, 1953.0, 44.1928
38.700035630, 96.390, 2045.0, 45.2217
38.726296195, 96.390, 2204.0, 46.9468
38.752556761, 96.390, 2248.0, 47.4131
38.778817326, 96.390, 2301.0, 47.9687
38.805077891, 96.390, 2290.0, 47.8539
38.831338457, 96.390, 2129.0, 46.1411
38.857599022, 96.390, 2127.0, 46.1194
38.883859587, 96.390, 2103.0, 45.8585
38.910120153, 96.390, 1956.0, 44.2267
38.936380718, 96.390, 1914.0, 43.7493
38.962641284, 96.390, 1861.0, 43.1393
38.988901849, 96.390, 1824.0, 42.7083
39.015162414, 96.390, 1782.0, 42.2137
39.041422980, 96.390, 1800.0, 42.4264
39.067683545, 96.390, 1694.0, 41.1582
39.093944110, 96.390, 1821.0, 42.6732
39.120204676, 96.390, 1805.0, 42.4853
39.146465241, 96.390, 1756.0, 41.9047
39.172725806, 96.390, 1803.0, 42.4617
39.198986372, 96.390, 1928.0, 43.9090
39.225246937, 96.390, 2033.0, 45.0888
39.251507502, 96.390, 2070.0, 45.4973
39.277768068, 96.390, 1957.0, 44.2380
39.304028633, 96.390, 2017.0, 44.9110
39.330289199, 96.390, 2046.0, 45.2327
39.356549764, 96.390, 2163.0, 46.5081
39.382810329, 96.390, 2260.0, 47.5395
39.409070895, 96.390, 2396.0, 48.9490
39.435331460, 96.390, 2451.0, 49.5076
39.461592025, 96.390, 2490.0, 49.8999
39.487852591, 96.390, 2290.0, 47.8539
39.514113156, 96.390, 2188.0, 46.7761
39.540373721, 96.390, 2206.0, 46.9681
39.566634287, 96.390, 1970.0, 44.3847
39.592894852, 96.390, 1965.0, 44.3283
39.619155417, 96.390, 1844.0, 42.9418
39.645415983, 96.390, 1739.0, 41.7013
39.671676548, 96.390, 1751.0, 41.8450
39.697937113, 96.390, 1722.0, 41.4970
39.724197679, 96.390, 1727.0, 41.5572
39.750458244, 96.390, 1651.0, 40.6325
39.776718810, 96.390, 1724.0, 41.5211
39.802979375, 96.390, 1818.0, 42.6380
39.829239940, 96.390, 1748.0, 41.8091
39.855500506, 96.390, 1711.0, 41.3642
39.881761071, 96.390, 1722.0, 41.4970
39.908021636, 96.390, 1675.0, 40.9268
39.934282202, 96.390, 1770.0, 42.0714
39.960542767, 96.390, 1658.0, 40.7185
39.986803332, 96.390, 1760.0, 41.9524
40.013063898, 96.390, 1684.0, 41.0366
40.039324463, 96.390, 1732.0, 41.6173
40.065585028, 96.390, 1768.0, 42.0476
40.091845594, 96.390, 1784.0, 42.2374
40.118106159, 96.390, 1796.0, 42.3792
40.144366725, 96.390, 1894.0, 43.5201
40.170627290, 96.390, 1948.0, 44.1362
40.196887855, 96.390, 1735.0, 41.6533
40.223148421, 96.390, 1753.0, 41.8688
40.249408986, 96.390, 1725.0, 41.5331
40.275669551, 96.390, 1713.0, 41.3884
40.301930117, 96.390, 1615.0, 40.1871
40.328190682, 96.390, 1632.0, 40.3980
40.354451247, 96.390, 1531.0, 39.1280
40.380711813, 96.390, 1529.0, 39.1024
40.406972378, 96.390, 1519.0, 38.9744
40.433232943, 96.390, 1562.0, 39.5221
40.459493509, 96.390, 1530.0, 39.1152
40.485754074, 96.390, 1550.0, 39.3700
40.512014639, 96.390, 1585.0, 39.8121
40.538275205, 96.390, 1591.0, 39.8873
40.564535770, 96.390, 1745.0, 41.7732
40.590796336, 96.390, 1769.0, 42.0595
40.617056901, 96.390, 1782.0, 42.2137
40.643317466, 96.390, 1786.0, 42.2611
40.669578032, 96.390, 1696.0, 41.1825
40.695838597, 96.390, 1672.0, 40.8901
40.722099162, 96.390, 1548.0, 39.3446
40.748359728, 96.390, 1582.0, 39.7744
40.774620293, 96.390, 1512.0, 38.8844
40.800880858, 96.390, 1423.0, 37.7227
40.827141424, 96.390, 1479.0, 38.4578
40.853401989, 96.390, 1453.0, 38.1182
40.879662554, 96.390, 1458.0, 38.1838
40.905923120, 96.390, 1466.0, 38.2884
40.932183685, 96.390, 1545.0, 39.3065
40.958444251, 96.390, 1462.0, 38.2361
40.984704816, 96.390, 1485.0, 38.5357
41.010965381, 96.390, 1480.0, 38.4708
41.037225947, 96.390, 1578.0, 39.7240
41.063486512, 96.390, 1472.0, 38.3667
41.089747077, 96.390, 1489.0, 38.5876
41.116007643, 96.390, 1489.0, 38.5876
41.142268208, 96.390, 1506.0, 38.8072
41.168528773, 96.390, 1501.0, 38.7427
41.194789339, 96.390, 1429.0, 37.8021
41.221049904, 96.390, 1509.0, 38.8458
41.247310469, 96.390, 1553.0, 39.4081
41.273571035, 96.390, 1656.0, 40.6940
41.299831600, 96.390, 1779.0, 42.1782
41.326092165, 96.390, 2006.0, 44.7884
41.352352731, 96.390, 2119.0, 46.0326
41.378613296, 96.390, 2342.0, 48.3942
41.404873862, 96.390, 2364.0, 48.6210
41.431134427, 96.390, 2099.0, 45.8148
41.457394992, 96.390, 1965.0, 44.3283
41.483655558, 96.390, 1983.0, 44.5309
41.509916123, 96.390, 1888.0, 43.4511
41.536176688, 96.390, 1779.0, 42.1782
41.562437254, 96.390, 1596.0, 39.9500
41.588697819, 96.390, 1510.0, 38.8587
41.614958384, 96.390, 1479.0, 38.4578
41.641218950, 96.390, 1442.0, 37.9737
41.667479515, 96.390, 1393.0, 37.3229
41.693740080, 96.390, 1377.0, 37.1080
41.720000646, 96.390, 1359.0, 36.8646
41.746261211, 96.390, 1358.0, 36.8511
41.772521776, 96.390, 1371.0, 37.0270
41.798782342, 96.390, 1377.0, 37.1080
41.825042907, 96.390, 1321.0, 36.3456
41.851303473, 96.390, 1409.0, 37.5366
41.877564038, 96.390, 1375.0, 37.0810
41.903824603, 96.390, 1376.0, 37.0945
41.930085169, 96.390, 1356.0, 36.8239
41.956345734, 96.390, 1375.0, 37.0810
41.982606299, 96.390, 1352.0, 36.7696
42.008866865, 96.390, 1462.0, 38.2361
42.035127430, 96.390, 1432.0, 37.8418
42.061387995, 96.390, 1488.0, 38.5746
42.087648561, 96.390, 1564.0, 39.5474
42.113909126, 96.390, 1601.0, 40.0125
42.140169691, 96.390, 1813.0, 42.5793
42.166430257, 96.390, 1776.0, 42.1426
42.192690822, 96.390, 1827.0, 42.7434
42.218951388, 96.390, 1635.0, 40.4351
42.245211953, 96.390, 1647.0, 40.5832
42.271472518, 96.390, 1737.0, 41.6773
42.297733084, 96.390, 1574.0, 39.6737
42.323993649, 96.390, 1490.0, 38.6005
42.350254214, 96.390, 1368.0, 36.9865
42.376514780, 96.390, 1402.0, 37.4433
42.402775345, 96.390, 1391.0, 37.2961
42.429035910, 96.390, 1412.0, 37.5766
42.455296476, 96.390, 1440.0, 37.9473
42.481557041, 96.390, 1485.0, 38.5357
42.507817606, 96.390, 1547.0, 39.3319
42.534078172, 96.390, 1568.0, 39.5980
42.560338737, 96.390, 1655.0, 40.6817
42.586599302, 96.390, 1552.0, 39.3954
42.612859868, 96.390, 1561.0, 39.5095
42.639120433, 96.390, 1499.0, 38.7169
42.665380999, 96.390, 1526.0, 39.0640
42.691641564, 96.390, 1414.0, 37.6032
42.717902129, 96.390, 1568.0, 39.5980
42.744162695, 96.390, 1645.0, 40.5586
42.770423260, 96.390, 1495.0, 38.6652
42.796683825, 96.390, 1380.0, 37.1484
42.822944391, 96.390, 1297.0, 36.0139
42.849204956, 96.390, 1404.0, 37.4700
42.875465521, 96.390, 1332.0, 36.4966
42.901726087, 96.390, 1270.0, 35.6371
42.927986652, 96.390, 1324.0, 36.3868
42.954247217, 96.390, 1279.0, 35.7631
42.980507783, 96.390, 1304.0, 36.1109
43.006768348, 96.390, 1321.0, 36.3456
43.033028914, 96.390, 1334.0, 36.5240
43.059289479, 96.390, 1289.0, 35.9026
43.085550044, 96.390, 1366.0, 36.9594
43.111810610, 96.390, 1305.0, 36.1248
43.138071175, 96.390, 1320.0, 36.3318
43.164331740, 96.390, 1243.0, 35.2562
43.190592306, 96.390, 1229.0, 35.0571
43.216852871, 96.390, 1276.0, 35.7211
43.243113436, 96.390, 1307.0, 36.1525
43.269374002, 96.390, 1253.0, 35.3977
43.295634567, 96.390, 1260.0, 35.4965
43.321895132, 96.390, 1246.0, 35.2987
43.348155698, 96.390, 1317.0, 36.2905
43.374416263, 96.390, 1321.0, 36.3456
43.400676828, 96.390, 1247.0, 35.3129
43.426937394, 96.390, 1287.0, 35.8748
43.453197959, 96.390, 1301.0, 36.0694
43.479458525, 96.390, 1254.0, 35.4119
43.505719090, 96.390, 1309.0, 36.1801
43.531979655, 96.390, 1289.0, 35.9026
43.558240221, 96.390, 1341.0, 36.6197
43.584500786, 96.390, 1363.0, 36.9188
43.610761351, 96.390, 1329.0, 36.4555
43.637021917, 96.390, 1395.0, 37.3497
43.663282482, 96.390, 1528.0, 39.0896
43.689543047, 96.390, 1589.0, 39.8623
43.715803613, 96.390, 1816.0, 42.6146
43.742064178, 96.390, 1956.0, 44.2267
43.768324743, 96.390, 2159.0, 46.4650
43.794585309, 96.390, 2005.0, 44.7772
43.820845874, 96.390, 1940.0, 44.0454
43.847106440, 96.390, 1779.0, 42.1782
43.873367005, 96.390, 1782.0, 42.2137
43.899627570, 96.390, 1786.0, 42.2611
43.925888136, 96.390, 1683.0, 41.0244
43.952148701, 96.390, 1468.0, 38.3145
43.978409266, 96.390, 1465.0, 38.2753
44.004669832, 96.390, 1473.0, 38.3797
44.030930397, 96.390, 1401.0, 37.4299
44.057190962, 96.390, 1377.0, 37.1080
44.083451528, 96.390, 1312.0, 36.2215
44.109712093, 96.390, 1333.0, 36.5103
44.135972658, 96.390, 1362.0, 36.9053
44.162233224, 96.390, 1389.0, 37.2693
44.188493789, 96.390, 1339.0, 36.5923
44.214754354, 96.390, 1456.0, 38.1576
44.241014920, 96.390, 1402.0, 37.4433
44.267275485, 96.390, 1471.0, 38.3536
44.293536051, 96.390, 1576.0, 39.6989
44.319796616, 96.390, 1579.0, 39.7366
44.346057181, 96.390, 1629.0, 40.3609
44.372317747, 96.390, 1743.0, 41.7493
44.398578312, 96.390, 1767.0, 42.0357
44.424838877, 96.390, 1700.0, 41.2311
44.451099443, 96.390, 1645.0, 40.5586
44.477360008, 96.390, 1678.0, 40.9634
44.503620573, 96.390, 1619.0, 40.2368
44.529881139, 96.390, 1582.0, 39.7744
44.556141704, 96.390, 1486.0, 38.5487
44.582402269, 96.390, 1569.0, 39.6106
44.608662835, 96.390, 1513.0, 38.8973
44.634923400, 96.390, 1401.0, 37.4299
44.661183966, 96.390, 1423.0, 37.7227
44.687444531, 96.390, 1418.0, 37.6563
44.713705096, 96.390, 1409.0, 37.5366
44.739965662, 96.390, 1407.0, 37.5100
44.766226227, 96.390, 1466.0, 38.2884
44.792486792, 96.390, 1502.0, 38.7556
44.818747358, 96.390, 1496.0, 38.6782
44.845007923, 96.390, 1537.0, 39.2046
44.871268488, 96.390, 1559.0, 39.4842
44.897529054, 96.390, 1589.0, 39.8623
44.923789619, 96.390, 1466.0, 38.2884
44.950050184, 96.390, 1482.0, 38.4968
44.976310750, 96.390, 1547.0, 39.3319
45.002571315, 96.390, 1598.0, 39.9750
45.028831880, 96.390, 1583.0, 39.7869
45.055092446, 96.390, 1725.0, 41.5331
45.081353011, 96.390, 1858.0, 43.1045
45.107613577, 96.390, 1979.0, 44.4860
45.133874142, 96.390, 1901.0, 43.6005
45.160134707, 96.390, 1997.0, 44.6878
45.186395273, 96.390, 1868.0, 43.2204
45.212655838, 96.390, 1851.0, 43.0232
45.238916403, 96.390, 1823.0, 42.6966
45.265176969, 96.390, 1851.0, 43.0232
45.291437534, 96.390, 1885.0, 43.4166
45.317698099, 96.390, 1926.0, 43.8862
45.343958665, 96.390, 1902.0, 43.6119
45.370219230, 96.390, 1858.0, 43.1045
45.396479795, 96.390, 1820.0, 42.6615
45.422740361, 96.390, 1862.0, 43.1509
45.449000926, 96.390, 1866.0, 43.1972
45.475261492, 96.390, 1895.0, 43.5316
45.501522057, 96.390, 2069.0, 45.4863
45.527782622, 96.390, 1857.0, 43.0929
45.554043188, 96.390, 1702.0, 41.2553
45.580303753, 96.390, 1644.0, 40.5463
45.606564318, 96.390, 1644.0, 40.5463
45.632824884, 96.390, 1708.0, 41.3280
45.659085449, 96.390, 1625.0, 40.3113
45.685346014, 96.390, 1525.0, 39.0512
45.711606580, 96.390, 1512.0, 38.8844
45.737867145, 96.390, 1578.0, 39.7240
45.764127710, 96.390, 1466.0, 38.2884
45.790388276, 96.390, 1477.0, 38.4318
45.816648841, 96.390, 1525.0, 39.0512
45.842909406, 96.390, 1530.0, 39.1152
45.869169972, 96.390, 1458.0, 38.1838
45.895430537, 96.390, 1430.0, 37.8153
45.921691103, 96.390, 1492.0, 38.6264
45.947951668, 96.390, 1506.0, 38.8072
45.974212233, 96.390, 1485.0, 38.5357
46.000472799, 96.390, 1548.0, 39.3446
46.026733364, 96.390, 1568.0, 39.5980
46.052993929, 96.390, 1504.0, 38.7814
46.079254495, 96.390, 1548.0, 39.3446
46.105515060, 96.390, 1511.0, 38.8716
46.131775625, 96.390, 1643.0, 40.5339
46.158036191, 96.390, 1682.0, 41.0122
46.184296756, 96.390, 1739.0, 41.7013
46.210557321, 96.390, 1823.0, 42.6966
46.236817887, 96.390, 1894.0, 43.5201
46.263078452, 96.390, 1994.0, 44.6542
46.289339017, 96.390, 2045.0, 45.2217
46.315599583, 96.390, 1983.0, 44.5309
46.341860148, 96.390, 1792.0, 42.3320
46.368120714, 96.390, 1778.0, 42.1663
46.394381279, 96.390, 1738.0, 41.6893
46.420641844, 96.390, 1820.0, 42.6615
46.446902410, 96.390, 1847.0, 42.9767
46.473162975, 96.390, 1755.0, 41.8927
46.499423540, 96.390, 1641.0, 40.5093
46.525684106, 96.390, 1578.0, 39.7240
46.551944671, 96.390, 1531.0, 39.1280
46.578205236, 96.390, 1560.0, 39.4968
46.604465802, 96.390, 1556.0, 39.4462
46.630726367, 96.390, 1484.0, 38.5227
46.656986932, 96.390, 1473.0, 38.3797
46.683247498, 96.390, 1495.0, 38.6652
46.709508063, 96.390, 1635.0, 40.4351
46.735768629, 96.390, 1611.0, 40.1373
46.762029194, 96.390, 1561.0, 39.5095
46.788289759, 96.390, 1444.0, 38.0000
46.814550325, 96.390, 1402.0, 37.4433
46.840810890, 96.390, 1541.0, 39.2556
46.867071455, 96.390, 1444.0, 38.0000
46.893332021, 96.390, 1484.0, 38.5227
46.919592586, 96.390, 1477.0, 38.4318
46.945853151, 96.390, 1475.0, 38.4057
46.972113717, 96.390, 1573.0, 39.6611
46.998374282, 96.390, 1603.0, 40.0375
47.024634847, 96.390, 1616.0, 40.1995
47.050895413, 96.390, 1611.0, 40.1373
47.077155978, 96.390, 1459.0, 38.1969
47.103416543, 96.390, 1436.0, 37.8946
47.129677109, 96.390, 1476.0, 38.4187
47.155937674, 96.390, 1447.0, 38.0395
47.182198240, 96.390, 1416.0, 37.6298
47.208458805, 96.390, 1373.0, 37.0540
47.234719370, 96.390, 1356.0, 36.8239
47.260979936, 96.390, 1416.0, 37.6298
47.287240501, 96.390, 1401.0, 37.4299
47.313501066, 96.390, 1391.0, 37.2961
47.339761632, 96.390, 1399.0, 37.4032
47.366022197, 96.390, 1412.0, 37.5766
47.392282762, 96.390, 1415.0, 37.6165
47.418543328, 96.390, 1372.0, 37.0405
47.444803893, 96.390, 1342.0, 36.6333
47.471064458, 96.390, 1346.0, 36.6879
47.497325024, 96.390, 1423.0, 37.7227
47.523585589, 96.390, 1389.0, 37.2693
47.549846155, 96.390, 1426.0, 37.7624
47.576106720, 96.390, 1354.0, 36.7967
47.602367285, 96.390, 1449.0, 38.0657
47.628627851, 96.390, 1368.0, 36.9865
47.654888416, 96.390, 1312.0, 36.2215
47.681148981, 96.390, 1313.0, 36.2353
47.707409547, 96.390, 1306.0, 36.1386
47.733670112, 96.390, 1270.0, 35.6371
47.759930677, 96.390, 1291.0, 35.9305
47.786191243, 96.390, 1249.0, 35.3412
47.812451808, 96.390, 1273.0, 35.6791
47.838712373, 96.390, 1206.0, 34.7275
47.864972939, 96.390, 1272.0, 35.6651
47.891233504, 96.390, 1303.0, 36.0971
47.917494069, 96.390, 1291.0, 35.9305
47.943754635, 96.390, 1268.0, 35.6090
47.970015200, 96.390, 1335.0, 36.5377
47.996275766, 96.390, 1310.0, 36.1939
48.022536331, 96.390, 1330.0, 36.4692
48.048796896, 96.390, 1320.0, 36.3318
48.075057462, 96.390, 1388.0, 37.2559
48.101318027, 96.390, 1527.0, 39.0768
48.127578592, 96.390, 1514.0, 38.9102
48.153839158, 96.390, 1546.0, 39.3192
48.180099723, 96.390, 1501.0, 38.7427
48.206360288, 96.390, 1402.0, 37.4433
48.232620854, 96.390, 1438.0, 37.9210
48.258881419, 96.390, 1444.0, 38.0000
48.285141984, 96.390, 1417.0, 37.6431
48.311402550, 96.390, 1345.0, 36.6742
48.337663115, 96.390, 1320.0, 36.3318
48.363923681, 96.390, 1401.0, 37.4299
48.390184246, 96.390, 1388.0, 37.2559
48.416444811, 96.390, 1445.0, 38.0132
48.442705377, 96.390, 1516.0, 38.9358
48.468965942, 96.390, 1504.0, 38.7814
48.495226507, 96.390, 1575.0, 39.6863
48.521487073, 96.390, 1602.0, 40.0250
48.547747638, 96.390, 1559.0, 39.4842
48.574008203, 96.390, 1466.0, 38.2884
48.600268769, 96.390, 1432.0, 37.8418
48.626529334, 96.390, 1441.0, 37.9605
48.652789899, 96.390, 1412.0, 37.5766
48.679050465, 96.390, 1342.0, 36.6333
48.705311030, 96.390, 1233.0, 35.1141
48.731571595, 96.390, 1247.0, 35.3129
48.757832161, 96.390, 1187.0, 34.4529
48.784092726, 96.390, 1269.0, 35.6230
48.810353292, 96.390, 1166.0, 34.1467
48.836613857, 96.390, 1200.0, 34.6410
48.862874422, 96.390, 1249.0, 35.3412
48.889134988, 96.390, 1145.0, 33.8378
48.915395553, 96.390, 1184.0, 34.4093
48.941656118, 96.390, 1238.0, 35.1852
48.967916684, 96.390, 1201.0, 34.6554
48.994177249, 96.390, 1177.0, 34.3074
49.020437814, 96.390, 1214.0, 34.8425
49.046698380, 96.390, 1197.0, 34.5977
49.072958945, 96.390, 1188.0, 34.4674
49.099219510, 96.390, 1214.0, 34.8425
49.125480076, 96.390, 1134.0, 33.6749
49.151740641, 96.390, 1199.0, 34.6266
49.178001207, 96.390, 1212.0, 34.8138
49.204261772, 96.390, 1217.0, 34.8855
49.230522337, 96.390, 1074.0, 32.7719
49.256782903, 96.390, 1212.0, 34.8138
49.283043468, 96.390, 1200.0, 34.6410
49.309304033, 96.390, 1141.0, 33.7787
49.335564599, 96.390, 1129.0, 33.6006
49.361825164, 96.390, 1236.0, 35.1568
49.388085729, 96.390, 1193.0, 34.5398
49.414346295, 96.390, 1277.0, 35.7351
49.440606860, 96.390, 1288.0, 35.8887
49.466867425, 96.390, 1247.0, 35.3129
49.493127991, 96.390, 1148.0, 33.8821
49.519388556, 96.390, 1219.0, 34.9142
49.545649121, 96.390, 1237.0, 35.1710
49.571909687, 96.390, 1209.0, 34.7707
49.598170252, 96.390, 1139.0, 33.7491
49.624430818, 96.390, 1215.0, 34.8569
49.650691383, 96.390, 1245.0, 35.2846
49.676951948, 96.390, 1185.0, 34.4238
49.703212514, 96.390, 1282.0, 35.8050
49.729473079, 96.390, 1306.0, 36.1386
49.755733644, 96.390, 1220.0, 34.9285
49.781994210, 96.390, 1146.0, 33.8526
49.808254775, 96.390, 1144.0, 33.8231
49.834515340, 96.390, 1144.0, 33.8231
49.860775906, 96.390, 1183.0, 34.3948
49.887036471, 96.390, 1075.0, 32.7872
49.913297036, 96.390, 1123.0, 33.5112
49.939557602, 96.390, 1167.0, 34.1614
49.965818167, 96.390, 1078.0, 32.8329
49.992078732, 96.390, 1048.0, 32.3728
50.018339298, 96.390, 1157.0, 34.0147
50.044599863, 96.390, 1095.0, 33.0908
50.070860429, 96.390, 1134.0, 33.6749
50.097120994, 96.390, 1071.0, 32.7261
50.123381559, 96.390, 1152.0, 33.9411
50.149642125, 96.390, 1211.0, 34.7994
50.175902690, 96.390, 1281.0, 35.7911
50.202163255, 96.390, 1302.0, 36.0832
50.228423821, 96.390, 1334.0, 36.5240
50.254684386, 96.390, 1481.0, 38.4838
50.280944951, 96.390, 1499.0, 38.7169
50.307205517, 96.390, 1415.0, 37.6165
50.333466082, 96.390, 1279.0, 35.7631
50.359726647, 96.390, 1310.0, 36.1939
50.385987213, 96.390, 1353.0, 36.7831
50.412247778, 96.390, 1302.0, 36.0832
50.438508344, 96.390, 1231.0, 35.0856
50.464768909, 96.390, 1137.0, 33.7194
50.491029474, 96.390, 1136.0, 33.7046
50.517290040, 96.390, 1089.0, 33.0000
50.543550605, 96.390, 1150.0, 33.9116
50.569811170, 96.390, 1091.0, 33.0303
50.596071736, 96.390, 1074.0, 32.7719
50.622332301, 96.390, 1051.0, 32.4191
50.648592866, 96.390, 1041.0, 32.2645
50.674853432, 96.390, 1109.0, 33.3017
50.701113997, 96.390, 1065.0, 32.6343
50.727374562, 96.390, 1001.0, 31.6386
50.753635128, 96.390, 1054.0, 32.4654
50.779895693, 96.390, 951.0, 30.8383
50.806156258, 96.390, 983.0, 31.3528
50.832416824, 96.390, 1098.0, 33.1361
50.858677389, 96.390, 1051.0, 32.4191
50.884937955, 96.390, 1101.0, 33.1813
50.911198520, 96.390, 1056.0, 32.4962
50.937459085, 96.390, 1081.0, 32.8786
50.963719651, 96.390, 1046.0, 32.3419
50.989980216, 96.390, 1138.0, 33.7343
51.016240781, 96.390, 1058.0, 32.5269
51.042501347, 96.390, 1091.0, 33.0303
51.068761912, 96.390, 1125.0, 33.5410
51.095022477, 96.390, 1138.0, 33.7343
51.121283043, 96.390, 1164.0, 34.1174
51.147543608, 96.390, 1205.0, 34.7131
51.173804173, 96.390, 1190.0, 34.4964
51.200064739, 96.390, 1173.0, 34.2491
51.226325304, 96.390, 1157.0, 34.0147
51.252585870, 96.390, 1195.0, 34.5688
51.278846435, 96.390, 1154.0, 33.9706
51.305107000, 96.390, 1096.0, 33.1059
51.331367566, 96.390, 1137.0, 33.7194
51.357628131, 96.390, 1144.0, 33.8231
51.383888696, 96.390, 1192.0, 34.5254
51.410149262, 96.390, 1117.0, 33.4215
51.436409827, 96.390, 1088.0, 32.9848
51.462670392, 96.390, 1073.0, 32.7567
51.488930958, 96.390, 980.0, 31.3050
51.515191523, 96.390, 1067.0, 32.6650
51.541452088, 96.390, 1003.0, 31.6702
51.567712654, 96.390, 1062.0, 32.5883
51.593973219, 96.390, 1036.0, 32.1870
51.620233784, 96.390, 1008.0, 31.7490
51.646494350, 96.390, 962.0, 31.0161
51.672754915, 96.390, 1027.0, 32.0468
51.699015481, 96.390, 1039.0, 32.2335
51.725276046, 96.390, 968.0, 31.1127
51.751536611, 96.390, 1038.0, 32.2180
51.777797177, 96.390, 1000.0, 31.6228
51.804057742, 96.390, 1080.0, 32.8634
51.830318307, 96.390, 1092.0, 33.0454
51.856578873, 96.390, 1107.0, 33.2716
51.882839438, 96.390, 1059.0, 32.5423
51.909100003, 96.390, 1095.0, 33.0908
51.935360569, 96.390, 1098.0, 33.1361
51.961621134, 96.390, 1119.0, 33.4515
51.987881699, 96.390, 1062.0, 32.5883
52.014142265, 96.390, 1102.0, 33.1964
52.040402830, 96.390, 1073.0, 32.7567
52.066663396, 96.390, 1110.0, 33.3167
52.092923961, 96.390, 1167.0, 34.1614
52.119184526, 96.390, 1185.0, 34.4238
52.145445092, 96.390, 1212.0, 34.8138
52.171705657, 96.390, 1294.0, 35.9722
52.197966222, 96.390, 1409.0, 37.5366
52.224226788, 96.390, 1389.0, 37.2693
52.250487353, 96.390, 1441.0, 37.9605
52.276747918, 96.390, 1410.0, 37.5500
52.303008484, 96.390, 1433.0, 37.8550
52.329269049, 96.390, 1339.0, 36.5923
52.355529614, 96.390, 1349.0, 36.7287
52.381790180, 96.390, 1296.0, 36.0000
52.408050745, 96.390, 1288.0, 35.8887
52.434311310, 96.390, 1212.0, 34.8138
52.460571876, 96.390, 1180.0, 34.3511
52.486832441, 96.390, 1122.0, 33.4963
52.513093007, 96.390, 1165.0, 34.1321
52.539353572, 96.390, 1109.0, 33.3017
52.565614137, 96.390, 1138.0, 33.7343
52.591874703, 96.390, 1178.0, 34.3220
52.618135268, 96.390, 1140.0, 33.7639
52.644395833, 96.390, 1020.0, 31.9374
52.670656399, 96.390, 1061.0, 32.5730
52.696916964, 96.390, 1073.0, 32.7567
52.723177529, 96.390, 1153.0, 33.9559
52.749438095, 96.390, 1086.0, 32.9545
52.775698660, 96.390, 1134.0, 33.6749
52.801959225, 96.390, 1067.0, 32.6650
52.828219791, 96.390, 1079.0, 32.8481
52.854480356, 96.390, 1080.0, 32.8634
52.880740922, 96.390, 1175.0, 34.2783
52.907001487, 96.390, 1154.0, 33.9706
52.933262052, 96.390, 1070.0, 32.7109
52.959522618, 96.390, 1112.0, 33.3467
52.985783183, 96.390, 1045.0, 32.3265
53.012043748, 96.390, 1071.0, 32.7261
53.038304314, 96.390, 1101.0, 33.1813
53.064564879, 96.390, 1046.0, 32.3419
53.090825444, 96.390, 1045.0, 32.3265
53.117086010, 96.390, 1042.0, 32.2800
53.143346575, 96.390, 1064.0, 32.6190
53.169607140, 96.390, 1089.0, 33.0000
53.195867706, 96.390, 1181.0, 34.3657
53.222128271, 96.390, 1081.0, 32.8786
53.248388836, 96.390, 1115.0, 33.3916
53.274649402, 96.390, 1110.0, 33.3167
53.300909967, 96.390, 1109.0, 33.3017
53.327170533, 96.390, 1124.0, 33.5261
53.353431098, 96.390, 1153.0, 33.9559
53.379691663, 96.390, 1087.0, 32.9697
53.405952229, 96.390, 1095.0, 33.0908
53.432212794, 96.390, 1027.0, 32.0468
53.458473359, 96.390, 1099.0, 33.1512
53.484733925, 96.390, 1044.0, 32.3110
53.510994490, 96.390, 1095.0, 33.0908
53.537255055, 96.390, 1037.0, 32.2025
53.563515621, 96.390, 999.0, 31.6070
53.589776186, 96.390, 1003.0, 31.6702
53.616036751, 96.390, 962.0, 31.0161
53.642297317, 96.390, 1017.0, 31.8904
53.668557882, 96.390, 1018.0, 31.9061
53.694818448, 96.390, 1024.0, 32.0000
53.721079013, 96.390, 949.0, 30.8058
53.747339578, 96.390, 918.0, 30.2985
53.773600144, 96.390, 994.0, 31.5278
53.799860709, 96.390, 994.0, 31.5278
53.826121274, 96.390, 932.0, 30.5287
53.852381840, 96.390, 990.0, 31.4643
53.878642405, 96.390, 984.0, 31.3688
53.904902970, 96.390, 996.0, 31.5595
53.931163536, 96.390, 1034.0, 32.1559
53.957424101, 96.390, 966.0, 31.0805
53.983684666, 96.390, 1035.0, 32.1714
54.009945232, 96.390, 1046.0, 32.3419
54.036205797, 96.390, 1058.0, 32.5269
54.062466362, 96.390, 1134.0, 33.6749
54.088726928, 96.390, 1095.0, 33.0908
54.114987493, 96.390, 1114.0, 33.3766
54.141248059, 96.390, 1219.0, 34.9142
54.167508624, 96.390, 1211.0, 34.7994
54.193769189, 96.390, 1212.0, 34.8138
54.220029755, 96.390, 1140.0, 33.7639
54.246290320, 96.390, 1150.0, 33.9116
54.272550885, 96.390, 1174.0, 34.2637
54.298811451, 96.390, 1195.0, 34.5688
54.325072016, 96.390, 1161.0, 34.0735
54.351332581, 96.390, 1259.0, 35.4824
54.377593147, 96.390, 1210.0, 34.7851
54.403853712, 96.390, 1015.0, 31.8591
54.430114277, 96.390, 1130.0, 33.6155
54.456374843, 96.390, 1069.0, 32.6956
54.482635408, 96.390, 1023.0, 31.9844
54.508895973, 96.390, 1039.0, 32.2335
54.535156539, 96.390, 1047.0, 32.3574
54.561417104, 96.390, 1097.0, 33.1210
54.587677670, 96.390, 1016.0, 31.8748
54.613938235, 96.390, 1016.0, 31.8748
54.640198800, 96.390, 1000.0, 31.6228
54.666459366, 96.390, 979.0, 31.2890
54.692719931, 96.390, 985.0, 31.3847
54.718980496, 96.390, 997.0, 31.5753
54.745241062, 96.390, 968.0, 31.1127
54.771501627, 96.390, 985.0, 31.3847
54.797762192, 96.390, 936.0, 30.5941
54.824022758, 96.390, 997.0, 31.5753
54.850283323, 96.390, 904.0, 30.0666
54.876543888, 96.390, 905.0, 30.0832
54.902804454, 96.390, 1003.0, 31.6702
54.929065019, 96.390, 989.0, 31.4484
54.955325585, 96.390, 969.0, 31.1288
54.981586150, 96.390, 928.0, 30.4631
55.007846715, 96.390, 969.0, 31.1288
55.034107281, 96.390, 915.0, 30.2490
55.060367846, 96.390, 932.0, 30.5287
55.086628411, 96.390, 1016.0, 31.8748
55.112888977, 96.390, 979.0, 31.2890
55.139149542, 96.390, 1051.0, 32.4191
55.165410107, 96.390, 953.0, 30.8707
55.191670673, 96.390, 960.0, 30.9839
55.217931238, 96.390, 959.0, 30.9677
55.244191803, 96.390, 1013.0, 31.8277
55.270452369, 96.390, 932.0, 30.5287
55.296712934, 96.390, 931.0, 30.5123
55.322973499, 96.390, 878.0, 29.6311
55.349234065, 96.390, 890.0, 29.8329
55.375494630, 96.390, 944.0, 30.7246
55.401755196, 96.390, 935.0, 30.5778
55.428015761, 96.390, 939.0, 30.6431
55.454276326, 96.390, 962.0, 31.0161
55.480536892, 96.390, 956.0, 30.9192
55.506797457, 96.390, 999.0, 31.6070
55.533058022, 96.390, 1068.0, 32.6803
55.559318588, 96.390, 1009.0, 31.7648
55.585579153, 96.390, 1053.0, 32.4500
55.611839718, 96.390, 1112.0, 33.3467
55.638100284, 96.390, 997.0, 31.5753
55.664360849, 96.390, 998.0, 31.5911
55.690621414, 96.390, 1007.0, 31.7333
55.716881980, 96.390, 977.0, 31.2570
55.743142545, 96.390, 941.0, 30.6757
55.769403111, 96.390, 983.0, 31.3528
55.795663676, 96.390, 1033.0, 32.1403
55.821924241, 96.390, 949.0, 30.8058
55.848184807, 96.390, 965.0, 31.0644
55.874445372, 96.390, 933.0, 30.5450
55.900705937, 96.390, 890.0, 29.8329
55.926966503, 96.390, 946.0, 30.7571
55.953227068, 96.390, 875.0, 29.5804
55.979487633, 96.390, 904.0, 30.0666
56.005748199, 96.390, 901.0, 30.0167
56.032008764, 96.390, 940.0, 30.6594
56.058269329, 96.390, 971.0, 31.1609
56.084529895, 96.390, 914.0, 30.2324
56.110790460, 96.390, 1018.0, 31.9061
56.137051025, 96.390, 948.0, 30.7896
56.163311591, 96.390, 929.0, 30.4795
56.189572156, 96.390, 929.0, 30.4795
56.215832722, 96.390, 970.0, 31.1448
56.242093287, 96.390, 958.0, 30.9516
56.268353852, 96.390, 916.0, 30.2655
56.294614418, 96.390, 942.0, 30.6920
56.320874983, 96.390, 899.0, 29.9833
56.347135548, 96.390, 858.0, 29.2916
56.373396114, 96.390, 883.0, 29.7153
56.399656679, 96.390, 912.0, 30.1993
56.425917244, 96.390, 877.0, 29.6142
56.452177810, 96.390, 902.0, 30.0333
56.478438375, 96.390, 927.0, 30.4467
56.504698940, 96.390, 949.0, 30.8058
56.530959506, 96.390, 916.0, 30.2655
56.557220071, 96.390, 867.0, 29.4449
56.583480637, 96.390, 1005.0, 31.7017
56.609741202, 96.390, 926.0, 30.4302
56.636001767, 96.390, 884.0, 29.7321
56.662262333, 96.390, 925.0, 30.4138
56.688522898, 96.390, 878.0, 29.6311
56.714783463, 96.390, 882.0, 29.6985
56.741044029, 96.390, 855.0, 29.2404
56.767304594, 96.390, 897.0, 29.9500
56.793565159, 96.390, 953.0, 30.8707
56.819825725, 96.390, 911.0, 30.1828
56.846086290, 96.390, 886.0, 29.7658
56.872346855, 96.390, 904.0, 30.0666
56.898607421, 96.390, 904.0, 30.0666
56.924867986, 96.390, 861.0, 29.3428
56.951128551, 96.390, 915.0, 30.2490
56.977389117, 96.390, 875.0, 29.5804
57.003649682, 96.390, 932.0, 30.5287
57.029910248, 96.390, 949.0, 30.8058
57.056170813, 96.390, 879.0, 29.6479
57.082431378, 96.390, 900.0, 30.0000
57.108691944, 96.390, 883.0, 29.7153
57.134952509, 96.390, 883.0, 29.7153
57.161213074, 96.390, 902.0, 30.0333
57.187473640, 96.390, 890.0, 29.8329
57.213734205, 96.390, 846.0, 29.0861
57.239994770, 96.390, 887.0, 29.7825
57.266255336, 96.390, 919.0, 30.3150
57.292515901, 96.390, 917.0, 30.2820
57.318776466, 96.390, 936.0, 30.5941
57.345037032, 96.390, 945.0, 30.7409
57.371297597, 96.390, 987.0, 31.4166
57.397558163, 96.390, 902.0, 30.0333
57.423818728, 96.390, 897.0, 29.9500
57.450079293, 96.390, 974.0, 31.2090
57.476339859, 96.390, 967.0, 31.0966
57.502600424, 96.390, 978.0, 31.2730
57.528860989, 96.390, 1009.0, 31.7648
57.555121555, 96.390, 922.0, 30.3645
57.581382120, 96.390, 935.0, 30.5778
57.607642685, 96.390, 904.0, 30.0666
57.633903251, 96.390, 981.0, 31.3209
57.660163816, 96.390, 955.0, 30.9031
57.686424381, 96.390, 946.0, 30.7571
57.712684947, 96.390, 1027.0, 32.0468
57.738945512, 96.390, 1017.0, 31.8904
57.765206077, 96.390, 985.0, 31.3847
57.791466643, 96.390, 958.0, 30.9516
57.817727208, 96.390, 959.0, 30.9677
57.843987774, 96.390, 888.0, 29.7993
57.870248339, 96.390, 980.0, 31.3050
57.896508904, 96.390, 1017.0, 31.8904
57.922769470, 96.390, 958.0, 30.9516
57.949030035, 96.390, 1046.0, 32.3419
57.975290600, 96.390, 990.0, 31.4643
58.001551166, 96.390, 1059.0, 32.5423
58.027811731, 96.390, 1084.0, 32.9242
58.054072296, 96.390, 1215.0, 34.8569
58.080332862, 96.390, 1206.0, 34.7275
58.106593427, 96.390, 1204.0, 34.6987
58.132853992, 96.390, 1126.0, 33.5559
58.159114558, 96.390, 997.0, 31.5753
58.185375123, 96.390, 1065.0, 32.6343
58.211635689, 96.390, 1036.0, 32.1870
58.237896254, 96.390, 1107.0, 33.2716
58.264156819, 96.390, 1094.0, 33.0757
58.290417385, 96.390, 995.0, 31.5436
58.316677950, 96.390, 955.0, 30.9031
58.342938515, 96.390, 922.0, 30.3645
58.369199081, 96.390, 980.0, 31.3050
58.395459646, 96.390, 964.0, 31.0483
58.421720211, 96.390, 885.0, 29.7489
58.447980777, 96.390, 930.0, 30.4959
58.474241342, 96.390, 864.0, 29.3939
58.500501907, 96.390, 843.0, 29.0345
58.526762473, 96.390, 931.0, 30.5123
58.553023038, 96.390, 947.0, 30.7734
58.579283603, 96.390, 931.0, 30.5123
58.605544169, 96.390, 929.0, 30.4795
58.631804734, 96.390, 927.0, 30.4467
58.658065300, 96.390, 978.0, 31.2730
58.684325865, 96.390, 969.0, 31.1288
58.710586430, 96.390, 898.0, 29.9666
58.736846996, 96.390, 944.0, 30.7246
58.763107561, 96.390, 934.0, 30.5614
58.789368126, 96.390, 941.0, 30.6757
58.815628692, 96.390, 917.0, 30.2820
58.841889257, 96.390, 884.0, 29.7321
58.868149822, 96.390, 930.0, 30.4959
58.894410388, 96.390, 879.0, 29.6479
58.920670953, 96.390, 903.0, 30.0500
58.946931518, 96.390, 946.0, 30.7571
58.973192084, 96.390, 872.0, 29.5296
58.999452649, 96.390, 931.0, 30.5123
59.025713214, 96.390, 917.0, 30.2820
59.051973780, 96.390, 939.0, 30.6431
59.078234345, 96.390, 925.0, 30.4138
59.104494911, 96.390, 902.0, 30.0333
59.130755476, 96.390, 940.0, 30.6594
59.157016041, 96.390, 940.0, 30.6594
59.183276607, 96.390, 1032.0, 32.1248
59.209537172, 96.390, 988.0, 31.4325
59.235797737, 96.390, 1122.0, 33.4963
59.262058303, 96.390, 1048.0, 32.3728
59.288318868, 96.390, 1061.0, 32.5730
59.314579433, 96.390, 1040.0, 32.2490
59.340839999, 96.390, 1017.0, 31.8904
59.367100564, 96.390, 1096.0, 33.1059
59.393361129, 96.390, 1014.0, 31.8434
59.419621695, 96.390, 1021.0, 31.9531
59.445882260, 96.390, 1026.0, 32.0312
59.472142826, 96.390, 1066.0, 32.6497
59.498403391, 96.390, 1098.0, 33.1361
59.524663956, 96.390, 1101.0, 33.1813
59.550924522, 96.390, 1113.0, 33.3617
59.577185087, 96.390, 1147.0, 33.8674
59.603445652, 96.390, 1160.0, 34.0588
59.629706218, 96.390, 1024.0, 32.0000
59.655966783, 96.390, 1110.0, 33.3167
59.682227348, 96.390, 1142.0, 33.7935
59.708487914, 96.390, 1126.0, 33.5559
59.734748479, 96.390, 1144.0, 33.8231
59.761009044, 96.390, 1176.0, 34.2929
59.787269610, 96.390, 1135.0, 33.6898
59.813530175, 96.390, 1180.0, 34.3511
59.839790740, 96.390, 1239.0, 35.1994
59.866051306, 96.390, 1264.0, 35.5528
59.892311871, 96.390, 1159.0, 34.0441
59.918572437, 96.390, 1227.0, 35.0286
59.944833002, 96.390, 1247.0, 35.3129
59.971093567, 96.390, 1295.0, 35.9861
59.997354133, 96.390, 1344.0, 36.6606
60.023614698, 96.390, 1332.0, 36.4966
60.049875263, 96.390, 1342.0, 36.6333
60.076135829, 96.390, 1312.0, 36.2215
60.102396394, 96.390, 1328.0, 36.4417
60.128656959, 96.390, 1409.0, 37.5366
60.154917525, 96.390, 1396.0, 37.3631
60.181178090, 96.390, 1363.0, 36.9188
60.207438655, 96.390, 1407.0, 37.5100
60.233699221, 96.390, 1382.0, 37.1753
60.259959786, 96.390, 1429.0, 37.8021
60.286220352, 96.390, 1520.0, 38.9872
60.312480917, 96.390, 1445.0, 38.0132
60.338741482, 96.390, 1398.0, 37.3898
60.365002048, 96.390, 1515.0, 38.9230
60.391262613, 96.390, 1526.0, 39.0640
60.417523178, 96.390, 1537.0, 39.2046
60.443783744, 96.390, 1560.0, 39.4968
60.470044309, 96.390, 1521.0, 39.0000
60.496304874, 96.390, 1604.0, 40.0500
60.522565440, 96.390, 1579.0, 39.7366
60.548826005, 96.390, 1605.0, 40.0625
60.575086570, 96.390, 1579.0, 39.7366
60.601347136, 96.390, 1540.0, 39.2428
60.627607701, 96.390, 1643.0, 40.5339
60.653868266, 96.390, 1667.0, 40.8289
60.680128832, 96.390, 1659.0, 40.7308
60.706389397, 96.390, 1708.0, 41.3280
60.732649963, 96.390, 1638.0, 40.4722
60.758910528, 96.390, 1644.0, 40.5463
60.785171093, 96.390, 1637.0, 40.4599
60.811431659, 96.390, 1654.0, 40.6694
60.837692224, 96.390, 1665.0, 40.8044
60.863952789, 96.390, 1619.0, 40.2368
60.890213355, 96.390, 1630.0, 40.3733
60.916473920, 96.390, 1624.0, 40.2989
60.942734485, 96.390, 1560.0, 39.4968
60.968995051, 96.390, 1590.0, 39.8748
60.995255616, 96.390, 1560.0, 39.4968
61.021516181, 96.390, 1600.0, 40.0000
61.047776747, 96.390, 1594.0, 39.9249
61.074037312, 96.390, 1487.0, 38.5616
61.100297878, 96.390, 1604.0, 40.0500
61.126558443, 96.390, 1582.0, 39.7744
61.152819008, 96.390, 1454.0, 38.1314
61.179079574, 96.390, 1464.0, 38.2623
61.205340139, 96.390, 1535.0, 39.1791
61.231600704, 96.390, 1554.0, 39.4208
61.257861270, 96.390, 1519.0, 38.9744
61.284121835, 96.390, 1434.0, 37.8682
61.310382400, 96.390, 1540.0, 39.2428
61.336642966, 96.390, 1473.0, 38.3797
61.362903531, 96.390, 1522.0, 39.0128
61.389164096, 96.390, 1516.0, 38.9358
61.415424662, 96.390, 1490.0, 38.6005
61.441685227, 96.390, 1527.0, 39.0768
61.467945792, 96.390, 1539.0, 39.2301
61.494206358, 96.390, 1493.0, 38.6394
61.520466923, 96.390, 1626.0, 40.3237
61.546727489, 96.390, 1523.0, 39.0256
61.572988054, 96.390, 1466.0, 38.2884
61.599248619, 96.390, 1525.0, 39.0512
61.625509185, 96.390, 1440.0, 37.9473
61.651769750, 96.390, 1461.0, 38.2230
61.678030315, 96.390, 1485.0, 38.5357
61.704290881, 96.390, 1562.0, 39.5221
61.730551446, 96.390, 1416.0, 37.6298
61.756812011, 96.390, 1441.0, 37.9605
61.783072577, 96.390, 1310.0, 36.1939
61.809333142, 96.390, 1434.0, 37.8682
61.835593707, 96.390, 1369.0, 37.0000
61.861854273, 96.390, 1408.0, 37.5233
61.888114838, 96.390, 1360.0, 36.8782
61.914375404, 96.390, 1346.0, 36.6879
61.940635969, 96.390, 1350.0, 36.7423
61.966896534, 96.390, 1337.0, 36.5650
61.993157100, 96.390, 1356.0, 36.8239
62.019417665, 96.390, 1253.0, 35.3977
62.045678230, 96.390, 1291.0, 35.9305
62.071938796, 96.390, 1207.0, 34.7419
62.098199361, 96.390, 1269.0, 35.6230
62.124459926, 96.390, 1262.0, 35.5246
62.150720492, 96.390, 1230.0, 35.0714
62.176981057, 96.390, 1223.0, 34.9714
62.203241622, 96.390, 1194.0, 34.5543
62.229502188, 96.390, 1266.0, 35.5809
62.255762753, 96.390, 1145.0, 33.8378
62.282023318, 96.390, 1120.0, 33.4664
62.308283884, 96.390, 1166.0, 34.1467
62.334544449, 96.390, 1118.0, 33.4365
62.360805015, 96.390, 1101.0, 33.1813
62.387065580, 96.390, 1098.0, 33.1361
62.413326145, 96.390, 1054.0, 32.4654
62.439586711, 96.390, 1098.0, 33.1361
62.465847276, 96.390, 1122.0, 33.4963
62.492107841, 96.390, 1101.0, 33.1813
62.518368407, 96.390, 1056.0, 32.4962
62.544628972, 96.390, 1044.0, 32.3110
62.570889537, 96.390, 1098.0, 33.1361
62.597150103, 96.390, 1039.0, 32.2335
62.623410668, 96.390, 1086.0, 32.9545
62.649671233, 96.390, 1148.0, 33.8821
62.675931799, 96.390, 1163.0, 34.1028
62.702192364, 96.390, 1071.0, 32.7261
62.728452930, 96.390, 1095.0, 33.0908
62.754713495, 96.390, 1059.0, 32.5423
62.780974060, 96.390, 1013.0, 31.8277
62.807234626, 96.390, 1050.0, 32.4037
62.833495191, 96.390, 1036.0, 32.1870
62.859755756, 96.390, 998.0, 31.5911
62.886016322, 96.390, 1014.0, 31.8434
62.912276887, 96.390, 974.0, 31.2090
62.938537452, 96.390, 949.0, 30.8058
62.964798018, 96.390, 981.0, 31.3209
62.991058583, 96.390, 886.0, 29.7658
63.017319148, 96.390, 968.0, 31.1127
63.043579714, 96.390, 879.0, 29.6479
63.069840279, 96.390, 889.0, 29.8161
63.096100844, 96.390, 812.0, 28.4956
63.122361410, 96.390, 875.0, 29.5804
63.148621975, 96.390, 878.0, 29.6311
63.174882541, 96.390, 801.0, 28.3019
63.201143106, 96.390, 804.0, 28.3549
63.227403671, 96.390, 858.0, 29.2916
63.253664237, 96.390, 874.0, 29.5635
63.279924802, 96.390, 868.0, 29.4618
63.306185367, 96.390, 830.0, 28.8097
63.332445933, 96.390, 799.0, 28.2666
63.358706498, 96.390, 877.0, 29.6142
63.384967063, 96.390, 812.0, 28.4956
63.411227629, 96.390, 789.0, 28.0891
63.437488194, 96.390, 827.0, 28.7576
63.463748759, 96.390, 851.0, 29.1719
63.490009325, 96.390, 843.0, 29.0345
63.516269890, 96.390, 829.0, 28.7924
63.542530455, 96.390, 850.0, 29.1548
63.568791021, 96.390, 807.0, 28.4077
63.595051586, 96.390, 788.0, 28.0713
63.621312152, 96.390, 827.0, 28.7576
63.647572717, 96.390, 815.0, 28.5482
63.673833282, 96.390, 827.0, 28.7576
63.700093848, 96.390, 796.0, 28.2135
63.726354413, 96.390, 875.0, 29.5804
63.752614978, 96.390, 908.0, 30.1330
63.778875544, 96.390, 906.0, 30.0998
63.805136109, 96.390, 904.0, 30.0666
63.831396674, 96.390, 893.0, 29.8831
63.857657240, 96.390, 937.0, 30.6105
63.883917805, 96.390, 834.0, 28.8791
63.910178370, 96.390, 915.0, 30.2490
63.936438936, 96.390, 855.0, 29.2404
63.962699501, 96.390, 854.0, 29.2233
63.988960067, 96.390, 888.0, 29.7993
64.015220632, 96.390, 948.0, 30.7896
64.041481197, 96.390, 884.0, 29.7321
64.067741763, 96.390, 832.0, 28.8444
64.094002328, 96.390, 888.0, 29.7993
64.120262893, 96.390, 790.0, 28.1069
64.146523459, 96.390, 857.0, 29.2746
64.172784024, 96.390, 866.0, 29.4279
64.199044589, 96.390, 820.0, 28.6356
64.225305155, 96.390, 861.0, 29.3428
64.251565720, 96.390, 875.0, 29.5804
64.277826285, 96.390, 867.0, 29.4449
64.304086851, 96.390, 859.0, 29.3087
64.330347416, 96.390, 835.0, 28.8964
64.356607981, 96.390, 871.0, 29.5127
64.382868547, 96.390, 785.0, 28.0179
64.409129112, 96.390, 775.0, 27.8388
64.435389678, 96.390, 870.0, 29.4958
64.461650243, 96.390, 784.0, 28.0000
64.487910808, 96.390, 831.0, 28.8271
64.514171374, 96.390, 817.0, 28.5832
64.540431939, 96.390, 771.0, 27.7669
64.566692504, 96.390, 764.0, 27.6405
64.592953070, 96.390, 783.0, 27.9821
64.619213635, 96.390, 766.0, 27.6767
64.645474200, 96.390, 769.0, 27.7308
64.671734766, 96.390, 772.0, 27.7849
64.697995331, 96.390, 779.0, 27.9106
64.724255896, 96.390, 770.0, 27.7489
64.750516462, 96.390, 743.0, 27.2580
64.776777027, 96.390, 715.0, 26.7395
64.803037593, 96.390, 776.0, 27.8568
64.829298158, 96.390, 754.0, 27.4591
64.855558723, 96.390, 797.0, 28.2312
64.881819289, 96.390, 725.0, 26.9258
64.908079854, 96.390, 783.0, 27.9821
64.934340419, 96.390, 777.0, 27.8747
64.960600985, 96.390, 748.0, 27.3496
64.986861550, 96.390, 754.0, 27.4591
