[Measurement conditions]
Sample identification,XRD_PAxialnul_Act03May22_B1_1000M_NaOH_LS0133_1
Comment - 1,"Configuration=Stage for Flat Samples/Holders, Owner=User-1, Creation date=7/1/2020 9:53:24 AM"
Comment - 2,"Goniometer=Theta/Theta; Minimum step size 2Theta:0.0001; Minimum step size Omega:0.0001"
Comment - 3,"Sample stage=Stage for flat samples/holders"
Comment - 4,"Diffractometer system=EMPYREAN"
Comment - 5,"Measurement program=C:\Users\ibo5034\OneDrive - The Pennsylvania State University\NEUP\Zerobackground scan.xrdmp, Identifier={98A3B11C-88F9-4AA6-982C-73314A311EF5}"
Anode material,Cu
K-Alpha1 wavelength,1.5405980
K-Alpha2 wavelength,1.5444260
Ratio K-Alpha2/K-Alpha1,0.500
Divergence slit,Fixed,0.25
Monochromator used,NO
Generator voltage, 45
Tube current, 40
File date and time,03/Jun/2022 15:46
Unit cell,
h k l, 0 0 0
Scan axis,Gonio
Scan range,4.994599997,64.999991833
Scan step size,0.0262606
No. of points, 2285
Scan type,CONTINUOUS
Time per step,96.390
[Scan points]
Angle, TimePerStep, Intensity, ESD
5.007730280, 96.390, 4287.0, 65.4752
5.033990845, 96.390, 4096.0, 64.0000
5.060251411, 96.390, 4175.0, 64.6142
5.086511976, 96.390, 4060.0, 63.7181
5.112772541, 96.390, 4050.0, 63.6396
5.139033107, 96.390, 3984.0, 63.1189
5.165293672, 96.390, 4033.0, 63.5059
5.191554237, 96.390, 3958.0, 62.9126
5.217814803, 96.390, 3852.0, 62.0645
5.244075368, 96.390, 4015.0, 63.3640
5.270335934, 96.390, 3900.0, 62.4500
5.296596499, 96.390, 3920.0, 62.6099
5.322857064, 96.390, 3909.0, 62.5220
5.349117630, 96.390, 3996.0, 63.2139
5.375378195, 96.390, 3871.0, 62.2174
5.401638760, 96.390, 3884.0, 62.3217
5.427899326, 96.390, 3862.0, 62.1450
5.454159891, 96.390, 3787.0, 61.5386
5.480420456, 96.390, 3788.0, 61.5467
5.506681022, 96.390, 3732.0, 61.0901
5.532941587, 96.390, 3755.0, 61.2781
5.559202152, 96.390, 3660.0, 60.4979
5.585462718, 96.390, 3648.0, 60.3987
5.611723283, 96.390, 3723.0, 61.0164
5.637983849, 96.390, 3679.0, 60.6548
5.664244414, 96.390, 3606.0, 60.0500
5.690504979, 96.390, 3805.0, 61.6847
5.716765545, 96.390, 3631.0, 60.2578
5.743026110, 96.390, 3637.0, 60.3075
5.769286675, 96.390, 3679.0, 60.6548
5.795547241, 96.390, 3618.0, 60.1498
5.821807806, 96.390, 3622.0, 60.1831
5.848068371, 96.390, 3536.0, 59.4643
5.874328937, 96.390, 3597.0, 59.9750
5.900589502, 96.390, 3559.0, 59.6574
5.926850067, 96.390, 3509.0, 59.2368
5.953110633, 96.390, 3656.0, 60.4649
5.979371198, 96.390, 3565.0, 59.7076
6.005631763, 96.390, 3604.0, 60.0333
6.031892329, 96.390, 3579.0, 59.8247
6.058152894, 96.390, 3463.0, 58.8473
6.084413460, 96.390, 3583.0, 59.8582
6.110674025, 96.390, 3481.0, 59.0000
6.136934590, 96.390, 3529.0, 59.4054
6.163195156, 96.390, 3499.0, 59.1523
6.189455721, 96.390, 3548.0, 59.5651
6.215716286, 96.390, 3427.0, 58.5406
6.241976852, 96.390, 3483.0, 59.0169
6.268237417, 96.390, 3420.0, 58.4808
6.294497982, 96.390, 3499.0, 59.1523
6.320758548, 96.390, 3483.0, 59.0169
6.347019113, 96.390, 3505.0, 59.2030
6.373279678, 96.390, 3547.0, 59.5567
6.399540244, 96.390, 3595.0, 59.9583
6.425800809, 96.390, 3569.0, 59.7411
6.452061375, 96.390, 3423.0, 58.5064
6.478321940, 96.390, 3479.0, 58.9830
6.504582505, 96.390, 3515.0, 59.2874
6.530843071, 96.390, 3526.0, 59.3801
6.557103636, 96.390, 3421.0, 58.4893
6.583364201, 96.390, 3424.0, 58.5150
6.609624767, 96.390, 3446.0, 58.7026
6.635885332, 96.390, 3417.0, 58.4551
6.662145897, 96.390, 3479.0, 58.9830
6.688406463, 96.390, 3516.0, 59.2959
6.714667028, 96.390, 3417.0, 58.4551
6.740927593, 96.390, 3415.0, 58.4380
6.767188159, 96.390, 3423.0, 58.5064
6.793448724, 96.390, 3506.0, 59.2115
6.819709289, 96.390, 3391.0, 58.2323
6.845969855, 96.390, 3390.0, 58.2237
6.872230420, 96.390, 3472.0, 58.9237
6.898490986, 96.390, 3464.0, 58.8558
6.924751551, 96.390, 3444.0, 58.6856
6.951012116, 96.390, 3522.0, 59.3464
6.977272682, 96.390, 3374.0, 58.0861
7.003533247, 96.390, 3468.0, 58.8897
7.029793812, 96.390, 3467.0, 58.8812
7.056054378, 96.390, 3350.0, 57.8792
7.082314943, 96.390, 3510.0, 59.2453
7.108575508, 96.390, 3463.0, 58.8473
7.134836074, 96.390, 3452.0, 58.7537
7.161096639, 96.390, 3486.0, 59.0424
7.187357204, 96.390, 3482.0, 59.0085
7.213617770, 96.390, 3376.0, 58.1034
7.239878335, 96.390, 3629.0, 60.2412
7.266138900, 96.390, 3430.0, 58.5662
7.292399466, 96.390, 3499.0, 59.1523
7.318660031, 96.390, 3537.0, 59.4727
7.344920597, 96.390, 3522.0, 59.3464
7.371181162, 96.390, 3597.0, 59.9750
7.397441727, 96.390, 3495.0, 59.1185
7.423702293, 96.390, 3589.0, 59.9083
7.449962858, 96.390, 3790.0, 61.5630
7.476223423, 96.390, 3768.0, 61.3840
7.502483989, 96.390, 3697.0, 60.8030
7.528744554, 96.390, 3704.0, 60.8605
7.555005119, 96.390, 3832.0, 61.9032
7.581265685, 96.390, 3874.0, 62.2415
7.607526250, 96.390, 3897.0, 62.4260
7.633786815, 96.390, 3846.0, 62.0161
7.660047381, 96.390, 3930.0, 62.6897
7.686307946, 96.390, 4060.0, 63.7181
7.712568512, 96.390, 3891.0, 62.3779
7.738829077, 96.390, 4061.0, 63.7260
7.765089642, 96.390, 4116.0, 64.1561
7.791350208, 96.390, 4152.0, 64.4360
7.817610773, 96.390, 4382.0, 66.1967
7.843871338, 96.390, 4441.0, 66.6408
7.870131904, 96.390, 4500.0, 67.0820
7.896392469, 96.390, 4666.0, 68.3081
7.922653034, 96.390, 4682.0, 68.4251
7.948913600, 96.390, 4726.0, 68.7459
7.975174165, 96.390, 5053.0, 71.0845
8.001434730, 96.390, 5194.0, 72.0694
8.027695296, 96.390, 5324.0, 72.9657
8.053955861, 96.390, 5591.0, 74.7730
8.080216426, 96.390, 5840.0, 76.4199
8.106476992, 96.390, 6010.0, 77.5242
8.132737557, 96.390, 6341.0, 79.6304
8.158998123, 96.390, 6645.0, 81.5169
8.185258688, 96.390, 6795.0, 82.4318
8.211519253, 96.390, 6974.0, 83.5105
8.237779819, 96.390, 7312.0, 85.5102
8.264040384, 96.390, 7510.0, 86.6603
8.290300949, 96.390, 7631.0, 87.3556
8.316561515, 96.390, 7997.0, 89.4259
8.342822080, 96.390, 7929.0, 89.0449
8.369082645, 96.390, 8158.0, 90.3216
8.395343211, 96.390, 8111.0, 90.0611
8.421603776, 96.390, 8125.0, 90.1388
8.447864341, 96.390, 7963.0, 89.2356
8.474124907, 96.390, 7863.0, 88.6736
8.500385472, 96.390, 7444.0, 86.2786
8.526646038, 96.390, 7420.0, 86.1394
8.552906603, 96.390, 7095.0, 84.2318
8.579167168, 96.390, 6851.0, 82.7708
8.605427734, 96.390, 6728.0, 82.0244
8.631688299, 96.390, 6436.0, 80.2247
8.657948864, 96.390, 6582.0, 81.1295
8.684209430, 96.390, 6402.0, 80.0125
8.710469995, 96.390, 6478.0, 80.4860
8.736730560, 96.390, 6554.0, 80.9568
8.762991126, 96.390, 6343.0, 79.6430
8.789251691, 96.390, 6132.0, 78.3071
8.815512256, 96.390, 5945.0, 77.1038
8.841772822, 96.390, 5502.0, 74.1755
8.868033387, 96.390, 5320.0, 72.9383
8.894293952, 96.390, 5099.0, 71.4073
8.920554518, 96.390, 4989.0, 70.6329
8.946815083, 96.390, 4818.0, 69.4118
8.973075649, 96.390, 4710.0, 68.6294
8.999336214, 96.390, 4516.0, 67.2012
9.025596779, 96.390, 4526.0, 67.2756
9.051857345, 96.390, 4484.0, 66.9627
9.078117910, 96.390, 4432.0, 66.5733
9.104378475, 96.390, 4281.0, 65.4294
9.130639041, 96.390, 4233.0, 65.0615
9.156899606, 96.390, 4274.0, 65.3758
9.183160171, 96.390, 4035.0, 63.5216
9.209420737, 96.390, 4104.0, 64.0625
9.235681302, 96.390, 3884.0, 62.3217
9.261941867, 96.390, 3944.0, 62.8013
9.288202433, 96.390, 3938.0, 62.7535
9.314462998, 96.390, 3772.0, 61.4166
9.340723564, 96.390, 3863.0, 62.1530
9.366984129, 96.390, 3833.0, 61.9112
9.393244694, 96.390, 3707.0, 60.8851
9.419505260, 96.390, 3658.0, 60.4814
9.445765825, 96.390, 3740.0, 61.1555
9.472026390, 96.390, 3556.0, 59.6322
9.498286956, 96.390, 3609.0, 60.0750
9.524547521, 96.390, 3471.0, 58.9152
9.550808086, 96.390, 3496.0, 59.1270
9.577068652, 96.390, 3528.0, 59.3970
9.603329217, 96.390, 3392.0, 58.2409
9.629589782, 96.390, 3445.0, 58.6941
9.655850348, 96.390, 3445.0, 58.6941
9.682110913, 96.390, 3359.0, 57.9569
9.708371478, 96.390, 3447.0, 58.7112
9.734632044, 96.390, 3236.0, 56.8859
9.760892609, 96.390, 3352.0, 57.8965
9.787153175, 96.390, 3302.0, 57.4630
9.813413740, 96.390, 3326.0, 57.6715
9.839674305, 96.390, 3195.0, 56.5243
9.865934871, 96.390, 3313.0, 57.5587
9.892195436, 96.390, 3188.0, 56.4624
9.918456001, 96.390, 3241.0, 56.9298
9.944716567, 96.390, 3181.0, 56.4004
9.970977132, 96.390, 3226.0, 56.7979
9.997237697, 96.390, 3137.0, 56.0089
10.023498263, 96.390, 3142.0, 56.0535
10.049758828, 96.390, 3105.0, 55.7225
10.076019393, 96.390, 3157.0, 56.1872
10.102279959, 96.390, 3015.0, 54.9090
10.128540524, 96.390, 3035.0, 55.0908
10.154801090, 96.390, 3024.0, 54.9909
10.181061655, 96.390, 3016.0, 54.9181
10.207322220, 96.390, 3035.0, 55.0908
10.233582786, 96.390, 2990.0, 54.6809
10.259843351, 96.390, 2992.0, 54.6992
10.286103916, 96.390, 2914.0, 53.9815
10.312364482, 96.390, 2919.0, 54.0278
10.338625047, 96.390, 2998.0, 54.7540
10.364885612, 96.390, 2892.0, 53.7773
10.391146178, 96.390, 2923.0, 54.0648
10.417406743, 96.390, 2825.0, 53.1507
10.443667308, 96.390, 2823.0, 53.1319
10.469927874, 96.390, 2914.0, 53.9815
10.496188439, 96.390, 2884.0, 53.7029
10.522449004, 96.390, 2851.0, 53.3948
10.548709570, 96.390, 2688.0, 51.8459
10.574970135, 96.390, 2690.0, 51.8652
10.601230701, 96.390, 2657.0, 51.5461
10.627491266, 96.390, 2767.0, 52.6023
10.653751831, 96.390, 2686.0, 51.8266
10.680012397, 96.390, 2697.0, 51.9326
10.706272962, 96.390, 2586.0, 50.8527
10.732533527, 96.390, 2862.0, 53.4977
10.758794093, 96.390, 2656.0, 51.5364
10.785054658, 96.390, 2664.0, 51.6140
10.811315223, 96.390, 2659.0, 51.5655
10.837575789, 96.390, 2674.0, 51.7107
10.863836354, 96.390, 2653.0, 51.5073
10.890096919, 96.390, 2616.0, 51.1468
10.916357485, 96.390, 2627.0, 51.2543
10.942618050, 96.390, 2825.0, 53.1507
10.968878616, 96.390, 2741.0, 52.3546
10.995139181, 96.390, 2689.0, 51.8556
11.021399746, 96.390, 2671.0, 51.6817
11.047660312, 96.390, 2782.0, 52.7447
11.073920877, 96.390, 2900.0, 53.8516
11.100181442, 96.390, 2692.0, 51.8845
11.126442008, 96.390, 3016.0, 54.9181
11.152702573, 96.390, 3555.0, 59.6238
11.178963138, 96.390, 3867.0, 62.1852
11.205223704, 96.390, 4152.0, 64.4360
11.231484269, 96.390, 4537.0, 67.3573
11.257744834, 96.390, 4200.0, 64.8074
11.284005400, 96.390, 3174.0, 56.3383
11.310265965, 96.390, 2691.0, 51.8748
11.336526530, 96.390, 2506.0, 50.0600
11.362787096, 96.390, 2572.0, 50.7149
11.389047661, 96.390, 2545.0, 50.4480
11.415308227, 96.390, 2536.0, 50.3587
11.441568792, 96.390, 2504.0, 50.0400
11.467829357, 96.390, 2519.0, 50.1896
11.494089923, 96.390, 2447.0, 49.4672
11.520350488, 96.390, 2479.0, 49.7896
11.546611053, 96.390, 2479.0, 49.7896
11.572871619, 96.390, 2562.0, 50.6162
11.599132184, 96.390, 2452.0, 49.5177
11.625392749, 96.390, 2521.0, 50.2096
11.651653315, 96.390, 2425.0, 49.2443
11.677913880, 96.390, 2493.0, 49.9300
11.704174445, 96.390, 2365.0, 48.6313
11.730435011, 96.390, 2436.0, 49.3559
11.756695576, 96.390, 2434.0, 49.3356
11.782956141, 96.390, 2408.0, 49.0714
11.809216707, 96.390, 2421.0, 49.2037
11.835477272, 96.390, 2370.0, 48.6826
11.861737838, 96.390, 2373.0, 48.7134
11.887998403, 96.390, 2450.0, 49.4975
11.914258968, 96.390, 2417.0, 49.1630
11.940519534, 96.390, 2406.0, 49.0510
11.966780099, 96.390, 2373.0, 48.7134
11.993040664, 96.390, 2379.0, 48.7750
12.019301230, 96.390, 2398.0, 48.9694
12.045561795, 96.390, 2305.0, 48.0104
12.071822360, 96.390, 2393.0, 48.9183
12.098082926, 96.390, 2321.0, 48.1768
12.124343491, 96.390, 2332.0, 48.2908
12.150604056, 96.390, 2280.0, 47.7493
12.176864622, 96.390, 2228.0, 47.2017
12.203125187, 96.390, 2364.0, 48.6210
12.229385753, 96.390, 2417.0, 49.1630
12.255646318, 96.390, 2378.0, 48.7647
12.281906883, 96.390, 2223.0, 47.1487
12.308167449, 96.390, 2303.0, 47.9896
12.334428014, 96.390, 2259.0, 47.5289
12.360688579, 96.390, 2251.0, 47.4447
12.386949145, 96.390, 2300.0, 47.9583
12.413209710, 96.390, 2291.0, 47.8644
12.439470275, 96.390, 2269.0, 47.6340
12.465730841, 96.390, 2347.0, 48.4458
12.491991406, 96.390, 2267.0, 47.6130
12.518251971, 96.390, 2269.0, 47.6340
12.544512537, 96.390, 2271.0, 47.6550
12.570773102, 96.390, 2237.0, 47.2969
12.597033667, 96.390, 2314.0, 48.1041
12.623294233, 96.390, 2433.0, 49.3254
12.649554798, 96.390, 2456.0, 49.5580
12.675815364, 96.390, 2448.0, 49.4773
12.702075929, 96.390, 2583.0, 50.8232
12.728336494, 96.390, 2788.0, 52.8015
12.754597060, 96.390, 3368.0, 58.0345
12.780857625, 96.390, 3609.0, 60.0750
12.807118190, 96.390, 3637.0, 60.3075
12.833378756, 96.390, 3860.0, 62.1289
12.859639321, 96.390, 4103.0, 64.0547
12.885899886, 96.390, 3444.0, 58.6856
12.912160452, 96.390, 2612.0, 51.1077
12.938421017, 96.390, 2316.0, 48.1248
12.964681582, 96.390, 2286.0, 47.8121
12.990942148, 96.390, 2173.0, 46.6154
13.017202713, 96.390, 2193.0, 46.8295
13.043463279, 96.390, 2161.0, 46.4866
13.069723844, 96.390, 2194.0, 46.8402
13.095984409, 96.390, 2163.0, 46.5081
13.122244975, 96.390, 2185.0, 46.7440
13.148505540, 96.390, 2149.0, 46.3573
13.174766105, 96.390, 2134.0, 46.1952
13.201026671, 96.390, 2125.0, 46.0977
13.227287236, 96.390, 2197.0, 46.8722
13.253547801, 96.390, 2282.0, 47.7703
13.279808367, 96.390, 2217.0, 47.0850
13.306068932, 96.390, 2397.0, 48.9592
13.332329497, 96.390, 2409.0, 49.0816
13.358590063, 96.390, 2568.0, 50.6754
13.384850628, 96.390, 2764.0, 52.5738
13.411111193, 96.390, 2978.0, 54.5711
13.437371759, 96.390, 3183.0, 56.4181
13.463632324, 96.390, 4170.0, 64.5755
13.489892890, 96.390, 4782.0, 69.1520
13.516153455, 96.390, 5469.0, 73.9527
13.542414020, 96.390, 8719.0, 93.3756
13.568674586, 96.390, 9227.0, 96.0573
13.594935151, 96.390, 6885.0, 82.9759
13.621195716, 96.390, 4083.0, 63.8984
13.647456282, 96.390, 2553.0, 50.5272
13.673716847, 96.390, 2293.0, 47.8853
13.699977412, 96.390, 2183.0, 46.7226
13.726237978, 96.390, 2235.0, 47.2758
13.752498543, 96.390, 2290.0, 47.8539
13.778759108, 96.390, 2383.0, 48.8160
13.805019674, 96.390, 2521.0, 50.2096
13.831280239, 96.390, 2590.0, 50.8920
13.857540805, 96.390, 2970.0, 54.4977
13.883801370, 96.390, 3311.0, 57.5413
13.910061935, 96.390, 3633.0, 60.2744
13.936322501, 96.390, 3255.0, 57.0526
13.962583066, 96.390, 2760.0, 52.5357
13.988843631, 96.390, 2272.0, 47.6655
14.015104197, 96.390, 2131.0, 46.1628
14.041364762, 96.390, 2130.0, 46.1519
14.067625327, 96.390, 1932.0, 43.9545
14.093885893, 96.390, 2134.0, 46.1952
14.120146458, 96.390, 2026.0, 45.0111
14.146407023, 96.390, 2153.0, 46.4004
14.172667589, 96.390, 2012.0, 44.8553
14.198928154, 96.390, 2090.0, 45.7165
14.225188719, 96.390, 2114.0, 45.9783
14.251449285, 96.390, 2204.0, 46.9468
14.277709850, 96.390, 2329.0, 48.2597
14.303970416, 96.390, 2539.0, 50.3885
14.330230981, 96.390, 2559.0, 50.5866
14.356491546, 96.390, 3096.0, 55.6417
14.382752112, 96.390, 3627.0, 60.2246
14.409012677, 96.390, 4144.0, 64.3739
14.435273242, 96.390, 4063.0, 63.7417
14.461533808, 96.390, 3292.0, 57.3760
14.487794373, 96.390, 2497.0, 49.9700
14.514054938, 96.390, 2108.0, 45.9130
14.540315504, 96.390, 1993.0, 44.6430
14.566576069, 96.390, 2066.0, 45.4533
14.592836634, 96.390, 1949.0, 44.1475
14.619097200, 96.390, 1887.0, 43.4396
14.645357765, 96.390, 1869.0, 43.2319
14.671618331, 96.390, 1919.0, 43.8064
14.697878896, 96.390, 1937.0, 44.0114
14.724139461, 96.390, 1944.0, 44.0908
14.750400027, 96.390, 1856.0, 43.0813
14.776660592, 96.390, 1878.0, 43.3359
14.802921157, 96.390, 1928.0, 43.9090
14.829181723, 96.390, 1887.0, 43.4396
14.855442288, 96.390, 1949.0, 44.1475
14.881702853, 96.390, 1877.0, 43.3244
14.907963419, 96.390, 1933.0, 43.9659
14.934223984, 96.390, 1983.0, 44.5309
14.960484549, 96.390, 1929.0, 43.9204
14.986745115, 96.390, 1931.0, 43.9431
15.013005680, 96.390, 1964.0, 44.3170
15.039266245, 96.390, 1917.0, 43.7836
15.065526811, 96.390, 1954.0, 44.2041
15.091787376, 96.390, 1977.0, 44.4635
15.118047942, 96.390, 2019.0, 44.9333
15.144308507, 96.390, 2038.0, 45.1442
15.170569072, 96.390, 2026.0, 45.0111
15.196829638, 96.390, 2070.0, 45.4973
15.223090203, 96.390, 1970.0, 44.3847
15.249350768, 96.390, 1999.0, 44.7102
15.275611334, 96.390, 2081.0, 45.6180
15.301871899, 96.390, 1985.0, 44.5533
15.328132464, 96.390, 1874.0, 43.2897
15.354393030, 96.390, 1902.0, 43.6119
15.380653595, 96.390, 1972.0, 44.4072
15.406914160, 96.390, 1993.0, 44.6430
15.433174726, 96.390, 1892.0, 43.4971
15.459435291, 96.390, 1937.0, 44.0114
15.485695857, 96.390, 1919.0, 43.8064
15.511956422, 96.390, 1983.0, 44.5309
15.538216987, 96.390, 1861.0, 43.1393
15.564477553, 96.390, 1954.0, 44.2041
15.590738118, 96.390, 1934.0, 43.9773
15.616998683, 96.390, 1927.0, 43.8976
15.643259249, 96.390, 1918.0, 43.7950
15.669519814, 96.390, 1816.0, 42.6146
15.695780379, 96.390, 1945.0, 44.1022
15.722040945, 96.390, 1939.0, 44.0341
15.748301510, 96.390, 1925.0, 43.8748
15.774562075, 96.390, 1919.0, 43.8064
15.800822641, 96.390, 1980.0, 44.4972
15.827083206, 96.390, 2015.0, 44.8888
15.853343771, 96.390, 1981.0, 44.5084
15.879604337, 96.390, 1980.0, 44.4972
15.905864902, 96.390, 1931.0, 43.9431
15.932125468, 96.390, 1995.0, 44.6654
15.958386033, 96.390, 2070.0, 45.4973
15.984646598, 96.390, 2069.0, 45.4863
16.010907164, 96.390, 2273.0, 47.6760
16.037167729, 96.390, 2384.0, 48.8262
16.063428294, 96.390, 2678.0, 51.7494
16.089688860, 96.390, 2937.0, 54.1941
16.115949425, 96.390, 3299.0, 57.4369
16.142209990, 96.390, 4308.0, 65.6354
16.168470556, 96.390, 5206.0, 72.1526
16.194731121, 96.390, 5686.0, 75.4056
16.220991686, 96.390, 4601.0, 67.8307
16.247252252, 96.390, 3403.0, 58.3352
16.273512817, 96.390, 2419.0, 49.1833
16.299773382, 96.390, 2064.0, 45.4313
16.326033948, 96.390, 2061.0, 45.3982
16.352294513, 96.390, 1989.0, 44.5982
16.378555079, 96.390, 1996.0, 44.6766
16.404815644, 96.390, 2100.0, 45.8258
16.431076209, 96.390, 1988.0, 44.5870
16.457336775, 96.390, 1960.0, 44.2719
16.483597340, 96.390, 2001.0, 44.7325
16.509857905, 96.390, 2109.0, 45.9239
16.536118471, 96.390, 2103.0, 45.8585
16.562379036, 96.390, 1982.0, 44.5197
16.588639601, 96.390, 2067.0, 45.4643
16.614900167, 96.390, 2043.0, 45.1996
16.641160732, 96.390, 1972.0, 44.4072
16.667421297, 96.390, 2073.0, 45.5302
16.693681863, 96.390, 2032.0, 45.0777
16.719942428, 96.390, 1976.0, 44.4522
16.746202994, 96.390, 2039.0, 45.1553
16.772463559, 96.390, 2109.0, 45.9239
16.798724124, 96.390, 2083.0, 45.6399
16.824984690, 96.390, 2074.0, 45.5412
16.851245255, 96.390, 2139.0, 46.2493
16.877505820, 96.390, 2092.0, 45.7384
16.903766386, 96.390, 2167.0, 46.5510
16.930026951, 96.390, 2147.0, 46.3357
16.956287516, 96.390, 2204.0, 46.9468
16.982548082, 96.390, 2129.0, 46.1411
17.008808647, 96.390, 2152.0, 46.3897
17.035069212, 96.390, 2136.0, 46.2169
17.061329778, 96.390, 2163.0, 46.5081
17.087590343, 96.390, 2187.0, 46.7654
17.113850908, 96.390, 2198.0, 46.8828
17.140111474, 96.390, 2238.0, 47.3075
17.166372039, 96.390, 2251.0, 47.4447
17.192632605, 96.390, 2186.0, 46.7547
17.218893170, 96.390, 2276.0, 47.7074
17.245153735, 96.390, 2217.0, 47.0850
17.271414301, 96.390, 2323.0, 48.1975
17.297674866, 96.390, 2251.0, 47.4447
17.323935431, 96.390, 2378.0, 48.7647
17.350195997, 96.390, 2271.0, 47.6550
17.376456562, 96.390, 2334.0, 48.3115
17.402717127, 96.390, 2418.0, 49.1732
17.428977693, 96.390, 2389.0, 48.8774
17.455238258, 96.390, 2468.0, 49.6790
17.481498823, 96.390, 2514.0, 50.1398
17.507759389, 96.390, 2567.0, 50.6656
17.534019954, 96.390, 2448.0, 49.4773
17.560280520, 96.390, 2509.0, 50.0899
17.586541085, 96.390, 2406.0, 49.0510
17.612801650, 96.390, 2574.0, 50.7346
17.639062216, 96.390, 2499.0, 49.9900
17.665322781, 96.390, 2440.0, 49.3964
17.691583346, 96.390, 2376.0, 48.7442
17.717843912, 96.390, 2363.0, 48.6107
17.744104477, 96.390, 2354.0, 48.5180
17.770365042, 96.390, 2307.0, 48.0312
17.796625608, 96.390, 2200.0, 46.9042
17.822886173, 96.390, 2295.0, 47.9062
17.849146738, 96.390, 2180.0, 46.6905
17.875407304, 96.390, 2166.0, 46.5403
17.901667869, 96.390, 2227.0, 47.1911
17.927928434, 96.390, 2232.0, 47.2440
17.954189000, 96.390, 2204.0, 46.9468
17.980449565, 96.390, 2178.0, 46.6690
18.006710131, 96.390, 2180.0, 46.6905
18.032970696, 96.390, 2187.0, 46.7654
18.059231261, 96.390, 2188.0, 46.7761
18.085491827, 96.390, 2159.0, 46.4650
18.111752392, 96.390, 2242.0, 47.3498
18.138012957, 96.390, 2083.0, 45.6399
18.164273523, 96.390, 2156.0, 46.4327
18.190534088, 96.390, 2136.0, 46.2169
18.216794653, 96.390, 2059.0, 45.3762
18.243055219, 96.390, 2128.0, 46.1303
18.269315784, 96.390, 2083.0, 45.6399
18.295576349, 96.390, 2178.0, 46.6690
18.321836915, 96.390, 1962.0, 44.2945
18.348097480, 96.390, 2047.0, 45.2438
18.374358046, 96.390, 2071.0, 45.5082
18.400618611, 96.390, 2012.0, 44.8553
18.426879176, 96.390, 2114.0, 45.9783
18.453139742, 96.390, 2092.0, 45.7384
18.479400307, 96.390, 2150.0, 46.3681
18.505660872, 96.390, 2080.0, 45.6070
18.531921438, 96.390, 2151.0, 46.3789
18.558182003, 96.390, 2069.0, 45.4863
18.584442568, 96.390, 2051.0, 45.2880
18.610703134, 96.390, 2061.0, 45.3982
18.636963699, 96.390, 2060.0, 45.3872
18.663224264, 96.390, 2065.0, 45.4423
18.689484830, 96.390, 2081.0, 45.6180
18.715745395, 96.390, 1975.0, 44.4410
18.742005960, 96.390, 1997.0, 44.6878
18.768266526, 96.390, 1930.0, 43.9318
18.794527091, 96.390, 2043.0, 45.1996
18.820787657, 96.390, 2043.0, 45.1996
18.847048222, 96.390, 2154.0, 46.4112
18.873308787, 96.390, 2079.0, 45.5961
18.899569353, 96.390, 2045.0, 45.2217
18.925829918, 96.390, 2037.0, 45.1331
18.952090483, 96.390, 2065.0, 45.4423
18.978351049, 96.390, 2123.0, 46.0760
19.004611614, 96.390, 2082.0, 45.6289
19.030872179, 96.390, 2048.0, 45.2548
19.057132745, 96.390, 2070.0, 45.4973
19.083393310, 96.390, 2062.0, 45.4093
19.109653875, 96.390, 2024.0, 44.9889
19.135914441, 96.390, 2025.0, 45.0000
19.162175006, 96.390, 2072.0, 45.5192
19.188435572, 96.390, 2015.0, 44.8888
19.214696137, 96.390, 2051.0, 45.2880
19.240956702, 96.390, 2100.0, 45.8258
19.267217268, 96.390, 1972.0, 44.4072
19.293477833, 96.390, 2052.0, 45.2990
19.319738398, 96.390, 2112.0, 45.9565
19.345998964, 96.390, 2019.0, 44.9333
19.372259529, 96.390, 2097.0, 45.7930
19.398520094, 96.390, 2085.0, 45.6618
19.424780660, 96.390, 2066.0, 45.4533
19.451041225, 96.390, 2069.0, 45.4863
19.477301790, 96.390, 1992.0, 44.6318
19.503562356, 96.390, 2115.0, 45.9891
19.529822921, 96.390, 2033.0, 45.0888
19.556083486, 96.390, 2131.0, 46.1628
19.582344052, 96.390, 2109.0, 45.9239
19.608604617, 96.390, 2025.0, 45.0000
19.634865183, 96.390, 2129.0, 46.1411
19.661125748, 96.390, 2163.0, 46.5081
19.687386313, 96.390, 2038.0, 45.1442
19.713646879, 96.390, 2083.0, 45.6399
19.739907444, 96.390, 2053.0, 45.3100
19.766168009, 96.390, 2083.0, 45.6399
19.792428575, 96.390, 2071.0, 45.5082
19.818689140, 96.390, 2082.0, 45.6289
19.844949705, 96.390, 2138.0, 46.2385
19.871210271, 96.390, 2239.0, 47.3181
19.897470836, 96.390, 2249.0, 47.4236
19.923731401, 96.390, 2333.0, 48.3011
19.949991967, 96.390, 2488.0, 49.8799
19.976252532, 96.390, 2816.0, 53.0660
20.002513097, 96.390, 3057.0, 55.2901
20.028773663, 96.390, 3370.0, 58.0517
20.055034228, 96.390, 3649.0, 60.4070
20.081294794, 96.390, 3994.0, 63.1981
20.107555359, 96.390, 4452.0, 66.7233
20.133815924, 96.390, 4842.0, 69.5845
20.160076490, 96.390, 5810.0, 76.2234
20.186337055, 96.390, 7359.0, 85.7846
20.212597620, 96.390, 8339.0, 91.3181
20.238858186, 96.390, 8181.0, 90.4489
20.265118751, 96.390, 6139.0, 78.3518
20.291379316, 96.390, 4802.0, 69.2965
20.317639882, 96.390, 3374.0, 58.0861
20.343900447, 96.390, 2885.0, 53.7122
20.370161012, 96.390, 2750.0, 52.4404
20.396421578, 96.390, 2526.0, 50.2593
20.422682143, 96.390, 2361.0, 48.5901
20.448942709, 96.390, 2205.0, 46.9574
20.475203274, 96.390, 1994.0, 44.6542
20.501463839, 96.390, 2034.0, 45.0999
20.527724405, 96.390, 2051.0, 45.2880
20.553984970, 96.390, 2043.0, 45.1996
20.580245535, 96.390, 2029.0, 45.0444
20.606506101, 96.390, 2126.0, 46.1086
20.632766666, 96.390, 1984.0, 44.5421
20.659027231, 96.390, 2014.0, 44.8776
20.685287797, 96.390, 1994.0, 44.6542
20.711548362, 96.390, 2039.0, 45.1553
20.737808927, 96.390, 1994.0, 44.6542
20.764069493, 96.390, 1986.0, 44.5646
20.790330058, 96.390, 2068.0, 45.4753
20.816590623, 96.390, 1892.0, 43.4971
20.842851189, 96.390, 1935.0, 43.9886
20.869111754, 96.390, 2062.0, 45.4093
20.895372320, 96.390, 1956.0, 44.2267
20.921632885, 96.390, 2072.0, 45.5192
20.947893450, 96.390, 2050.0, 45.2769
20.974154016, 96.390, 1973.0, 44.4185
21.000414581, 96.390, 2008.0, 44.8107
21.026675146, 96.390, 1895.0, 43.5316
21.052935712, 96.390, 1974.0, 44.4297
21.079196277, 96.390, 2034.0, 45.0999
21.105456842, 96.390, 2049.0, 45.2659
21.131717408, 96.390, 1948.0, 44.1362
21.157977973, 96.390, 2098.0, 45.8039
21.184238538, 96.390, 2064.0, 45.4313
21.210499104, 96.390, 2009.0, 44.8219
21.236759669, 96.390, 2037.0, 45.1331
21.263020235, 96.390, 2068.0, 45.4753
21.289280800, 96.390, 2144.0, 46.3033
21.315541365, 96.390, 2220.0, 47.1169
21.341801931, 96.390, 2282.0, 47.7703
21.368062496, 96.390, 2228.0, 47.2017
21.394323061, 96.390, 2372.0, 48.7032
21.420583627, 96.390, 2538.0, 50.3786
21.446844192, 96.390, 2286.0, 47.8121
21.473104757, 96.390, 2327.0, 48.2390
21.499365323, 96.390, 2152.0, 46.3897
21.525625888, 96.390, 2054.0, 45.3211
21.551886453, 96.390, 2061.0, 45.3982
21.578147019, 96.390, 2129.0, 46.1411
21.604407584, 96.390, 2045.0, 45.2217
21.630668149, 96.390, 2050.0, 45.2769
21.656928715, 96.390, 2081.0, 45.6180
21.683189280, 96.390, 2053.0, 45.3100
21.709449846, 96.390, 1915.0, 43.7607
21.735710411, 96.390, 2044.0, 45.2106
21.761970976, 96.390, 2054.0, 45.3211
21.788231542, 96.390, 2131.0, 46.1628
21.814492107, 96.390, 2092.0, 45.7384
21.840752672, 96.390, 2089.0, 45.7056
21.867013238, 96.390, 2082.0, 45.6289
21.893273803, 96.390, 2010.0, 44.8330
21.919534368, 96.390, 2073.0, 45.5302
21.945794934, 96.390, 2139.0, 46.2493
21.972055499, 96.390, 1975.0, 44.4410
21.998316064, 96.390, 2000.0, 44.7214
22.024576630, 96.390, 2094.0, 45.7602
22.050837195, 96.390, 2088.0, 45.6946
22.077097761, 96.390, 2076.0, 45.5631
22.103358326, 96.390, 2145.0, 46.3141
22.129618891, 96.390, 2070.0, 45.4973
22.155879457, 96.390, 2074.0, 45.5412
22.182140022, 96.390, 2055.0, 45.3321
22.208400587, 96.390, 2170.0, 46.5833
22.234661153, 96.390, 2112.0, 45.9565
22.260921718, 96.390, 2120.0, 46.0435
22.287182283, 96.390, 2074.0, 45.5412
22.313442849, 96.390, 2151.0, 46.3789
22.339703414, 96.390, 2111.0, 45.9456
22.365963979, 96.390, 2154.0, 46.4112
22.392224545, 96.390, 2081.0, 45.6180
22.418485110, 96.390, 2203.0, 46.9361
22.444745675, 96.390, 2096.0, 45.7821
22.471006241, 96.390, 2114.0, 45.9783
22.497266806, 96.390, 2176.0, 46.6476
22.523527372, 96.390, 2159.0, 46.4650
22.549787937, 96.390, 2155.0, 46.4220
22.576048502, 96.390, 2214.0, 47.0532
22.602309068, 96.390, 2167.0, 46.5510
22.628569633, 96.390, 2176.0, 46.6476
22.654830198, 96.390, 2129.0, 46.1411
22.681090764, 96.390, 2060.0, 45.3872
22.707351329, 96.390, 2140.0, 46.2601
22.733611894, 96.390, 2162.0, 46.4973
22.759872460, 96.390, 2036.0, 45.1221
22.786133025, 96.390, 2042.0, 45.1885
22.812393590, 96.390, 2156.0, 46.4327
22.838654156, 96.390, 2131.0, 46.1628
22.864914721, 96.390, 2108.0, 45.9130
22.891175287, 96.390, 2038.0, 45.1442
22.917435852, 96.390, 2074.0, 45.5412
22.943696417, 96.390, 2033.0, 45.0888
22.969956983, 96.390, 2103.0, 45.8585
22.996217548, 96.390, 2062.0, 45.4093
23.022478113, 96.390, 2090.0, 45.7165
23.048738679, 96.390, 2161.0, 46.4866
23.074999244, 96.390, 2050.0, 45.2769
23.101259809, 96.390, 2160.0, 46.4758
23.127520375, 96.390, 2121.0, 46.0543
23.153780940, 96.390, 2254.0, 47.4763
23.180041505, 96.390, 2065.0, 45.4423
23.206302071, 96.390, 2127.0, 46.1194
23.232562636, 96.390, 2103.0, 45.8585
23.258823201, 96.390, 2233.0, 47.2546
23.285083767, 96.390, 2070.0, 45.4973
23.311344332, 96.390, 2068.0, 45.4753
23.337604898, 96.390, 2071.0, 45.5082
23.363865463, 96.390, 2040.0, 45.1664
23.390126028, 96.390, 2046.0, 45.2327
23.416386594, 96.390, 2101.0, 45.8367
23.442647159, 96.390, 2153.0, 46.4004
23.468907724, 96.390, 2099.0, 45.8148
23.495168290, 96.390, 2070.0, 45.4973
23.521428855, 96.390, 1976.0, 44.4522
23.547689420, 96.390, 2063.0, 45.4203
23.573949986, 96.390, 2040.0, 45.1664
23.600210551, 96.390, 1976.0, 44.4522
23.626471116, 96.390, 2066.0, 45.4533
23.652731682, 96.390, 2044.0, 45.2106
23.678992247, 96.390, 2080.0, 45.6070
23.705252813, 96.390, 2115.0, 45.9891
23.731513378, 96.390, 2118.0, 46.0217
23.757773943, 96.390, 2119.0, 46.0326
23.784034509, 96.390, 2247.0, 47.4025
23.810295074, 96.390, 2228.0, 47.2017
23.836555639, 96.390, 2438.0, 49.3761
23.862816205, 96.390, 2642.0, 51.4004
23.889076770, 96.390, 2935.0, 54.1756
23.915337335, 96.390, 3303.0, 57.4717
23.941597901, 96.390, 3536.0, 59.4643
23.967858466, 96.390, 3687.0, 60.7207
23.994119031, 96.390, 3594.0, 59.9500
24.020379597, 96.390, 3772.0, 61.4166
24.046640162, 96.390, 4168.0, 64.5600
24.072900727, 96.390, 4717.0, 68.6804
24.099161293, 96.390, 5675.0, 75.3326
24.125421858, 96.390, 5588.0, 74.7529
24.151682424, 96.390, 4544.0, 67.4092
24.177942989, 96.390, 3733.0, 61.0983
24.204203554, 96.390, 2988.0, 54.6626
24.230464120, 96.390, 2276.0, 47.7074
24.256724685, 96.390, 2157.0, 46.4435
24.282985250, 96.390, 2043.0, 45.1996
24.309245816, 96.390, 2043.0, 45.1996
24.335506381, 96.390, 1905.0, 43.6463
24.361766946, 96.390, 2104.0, 45.8694
24.388027512, 96.390, 2061.0, 45.3982
24.414288077, 96.390, 2065.0, 45.4423
24.440548642, 96.390, 2137.0, 46.2277
24.466809208, 96.390, 2123.0, 46.0760
24.493069773, 96.390, 2065.0, 45.4423
24.519330338, 96.390, 1954.0, 44.2041
24.545590904, 96.390, 2023.0, 44.9778
24.571851469, 96.390, 1971.0, 44.3959
24.598112035, 96.390, 1963.0, 44.3058
24.624372600, 96.390, 2033.0, 45.0888
24.650633165, 96.390, 1999.0, 44.7102
24.676893731, 96.390, 1979.0, 44.4860
24.703154296, 96.390, 2018.0, 44.9222
24.729414861, 96.390, 1987.0, 44.5758
24.755675427, 96.390, 2020.0, 44.9444
24.781935992, 96.390, 2042.0, 45.1885
24.808196557, 96.390, 1932.0, 43.9545
24.834457123, 96.390, 1962.0, 44.2945
24.860717688, 96.390, 1956.0, 44.2267
24.886978253, 96.390, 2000.0, 44.7214
24.913238819, 96.390, 1944.0, 44.0908
24.939499384, 96.390, 1931.0, 43.9431
24.965759950, 96.390, 1937.0, 44.0114
24.992020515, 96.390, 1884.0, 43.4051
25.018281080, 96.390, 1957.0, 44.2380
25.044541646, 96.390, 1928.0, 43.9090
25.070802211, 96.390, 1964.0, 44.3170
25.097062776, 96.390, 1817.0, 42.6263
25.123323342, 96.390, 1899.0, 43.5775
25.149583907, 96.390, 1836.0, 42.8486
25.175844472, 96.390, 1888.0, 43.4511
25.202105038, 96.390, 1839.0, 42.8836
25.228365603, 96.390, 1861.0, 43.1393
25.254626168, 96.390, 1801.0, 42.4382
25.280886734, 96.390, 1820.0, 42.6615
25.307147299, 96.390, 1857.0, 43.0929
25.333407864, 96.390, 1827.0, 42.7434
25.359668430, 96.390, 1910.0, 43.7035
25.385928995, 96.390, 1939.0, 44.0341
25.412189561, 96.390, 2045.0, 45.2217
25.438450126, 96.390, 2097.0, 45.7930
25.464710691, 96.390, 2396.0, 48.9490
25.490971257, 96.390, 2694.0, 51.9038
25.517231822, 96.390, 3026.0, 55.0091
25.543492387, 96.390, 3494.0, 59.1101
25.569752953, 96.390, 3808.0, 61.7090
25.596013518, 96.390, 3243.0, 56.9473
25.622274083, 96.390, 2896.0, 53.8145
25.648534649, 96.390, 2533.0, 50.3289
25.674795214, 96.390, 2153.0, 46.4004
25.701055779, 96.390, 2073.0, 45.5302
25.727316345, 96.390, 2035.0, 45.1110
25.753576910, 96.390, 2136.0, 46.2169
25.779837476, 96.390, 2371.0, 48.6929
25.806098041, 96.390, 2605.0, 51.0392
25.832358606, 96.390, 2769.0, 52.6213
25.858619172, 96.390, 2886.0, 53.7215
25.884879737, 96.390, 2549.0, 50.4876
25.911140302, 96.390, 2291.0, 47.8644
25.937400868, 96.390, 2227.0, 47.1911
25.963661433, 96.390, 1928.0, 43.9090
25.989921998, 96.390, 1789.0, 42.2966
26.016182564, 96.390, 1826.0, 42.7317
26.042443129, 96.390, 1769.0, 42.0595
26.068703694, 96.390, 1812.0, 42.5676
26.094964260, 96.390, 1901.0, 43.6005
26.121224825, 96.390, 1795.0, 42.3674
26.147485390, 96.390, 1786.0, 42.2611
26.173745956, 96.390, 1793.0, 42.3438
26.200006521, 96.390, 1793.0, 42.3438
26.226267087, 96.390, 1909.0, 43.6921
26.252527652, 96.390, 1936.0, 44.0000
26.278788217, 96.390, 2018.0, 44.9222
26.305048783, 96.390, 2082.0, 45.6289
26.331309348, 96.390, 2158.0, 46.4543
26.357569913, 96.390, 2324.0, 48.2079
26.383830479, 96.390, 2220.0, 47.1169
26.410091044, 96.390, 2368.0, 48.6621
26.436351609, 96.390, 2385.0, 48.8365
26.462612175, 96.390, 2229.0, 47.2123
26.488872740, 96.390, 2205.0, 46.9574
26.515133305, 96.390, 2246.0, 47.3920
26.541393871, 96.390, 2215.0, 47.0638
26.567654436, 96.390, 2146.0, 46.3249
26.593915002, 96.390, 2092.0, 45.7384
26.620175567, 96.390, 2124.0, 46.0869
26.646436132, 96.390, 2103.0, 45.8585
26.672696698, 96.390, 2015.0, 44.8888
26.698957263, 96.390, 2083.0, 45.6399
26.725217828, 96.390, 2021.0, 44.9555
26.751478394, 96.390, 2030.0, 45.0555
26.777738959, 96.390, 1995.0, 44.6654
26.803999524, 96.390, 2002.0, 44.7437
26.830260090, 96.390, 2061.0, 45.3982
26.856520655, 96.390, 1987.0, 44.5758
26.882781220, 96.390, 1894.0, 43.5201
26.909041786, 96.390, 2002.0, 44.7437
26.935302351, 96.390, 1980.0, 44.4972
26.961562916, 96.390, 2010.0, 44.8330
26.987823482, 96.390, 1945.0, 44.1022
27.014084047, 96.390, 2036.0, 45.1221
27.040344613, 96.390, 2005.0, 44.7772
27.066605178, 96.390, 1937.0, 44.0114
27.092865743, 96.390, 1958.0, 44.2493
27.119126309, 96.390, 1954.0, 44.2041
27.145386874, 96.390, 1914.0, 43.7493
27.171647439, 96.390, 1959.0, 44.2606
27.197908005, 96.390, 2009.0, 44.8219
27.224168570, 96.390, 2104.0, 45.8694
27.250429135, 96.390, 2336.0, 48.3322
27.276689701, 96.390, 2373.0, 48.7134
27.302950266, 96.390, 2585.0, 50.8429
27.329210831, 96.390, 2615.0, 51.1371
27.355471397, 96.390, 2296.0, 47.9166
27.381731962, 96.390, 2192.0, 46.8188
27.407992528, 96.390, 2074.0, 45.5412
27.434253093, 96.390, 1947.0, 44.1248
27.460513658, 96.390, 1891.0, 43.4856
27.486774224, 96.390, 1871.0, 43.2551
27.513034789, 96.390, 1800.0, 42.4264
27.539295354, 96.390, 1761.0, 41.9643
27.565555920, 96.390, 1779.0, 42.1782
27.591816485, 96.390, 1812.0, 42.5676
27.618077050, 96.390, 1731.0, 41.6053
27.644337616, 96.390, 1686.0, 41.0609
27.670598181, 96.390, 1783.0, 42.2256
27.696858746, 96.390, 1689.0, 41.0974
27.723119312, 96.390, 1701.0, 41.2432
27.749379877, 96.390, 1836.0, 42.8486
27.775640442, 96.390, 1849.0, 43.0000
27.801901008, 96.390, 1801.0, 42.4382
27.828161573, 96.390, 1764.0, 42.0000
27.854422139, 96.390, 1790.0, 42.3084
27.880682704, 96.390, 1816.0, 42.6146
27.906943269, 96.390, 1824.0, 42.7083
27.933203835, 96.390, 1824.0, 42.7083
27.959464400, 96.390, 1816.0, 42.6146
27.985724965, 96.390, 1876.0, 43.3128
28.011985531, 96.390, 1939.0, 44.0341
28.038246096, 96.390, 1927.0, 43.8976
28.064506661, 96.390, 1876.0, 43.3128
28.090767227, 96.390, 1865.0, 43.1856
28.117027792, 96.390, 1776.0, 42.1426
28.143288357, 96.390, 1853.0, 43.0465
28.169548923, 96.390, 1763.0, 41.9881
28.195809488, 96.390, 1791.0, 42.3202
28.222070054, 96.390, 1787.0, 42.2729
28.248330619, 96.390, 1674.0, 40.9145
28.274591184, 96.390, 1785.0, 42.2493
28.300851750, 96.390, 1722.0, 41.4970
28.327112315, 96.390, 1680.0, 40.9878
28.353372880, 96.390, 1673.0, 40.9023
28.379633446, 96.390, 1773.0, 42.1070
28.405894011, 96.390, 1716.0, 41.4246
28.432154576, 96.390, 1734.0, 41.6413
28.458415142, 96.390, 1835.0, 42.8369
28.484675707, 96.390, 1738.0, 41.6893
28.510936272, 96.390, 1835.0, 42.8369
28.537196838, 96.390, 1730.0, 41.5933
28.563457403, 96.390, 1788.0, 42.2847
28.589717968, 96.390, 1910.0, 43.7035
28.615978534, 96.390, 1916.0, 43.7721
28.642239099, 96.390, 2105.0, 45.8803
28.668499665, 96.390, 2254.0, 47.4763
28.694760230, 96.390, 2366.0, 48.6415
28.721020795, 96.390, 2462.0, 49.6185
28.747281361, 96.390, 2325.0, 48.2183
28.773541926, 96.390, 2271.0, 47.6550
28.799802491, 96.390, 2064.0, 45.4313
28.826063057, 96.390, 2002.0, 44.7437
28.852323622, 96.390, 1930.0, 43.9318
28.878584187, 96.390, 1887.0, 43.4396
28.904844753, 96.390, 1924.0, 43.8634
28.931105318, 96.390, 1955.0, 44.2154
28.957365883, 96.390, 2102.0, 45.8476
28.983626449, 96.390, 2433.0, 49.3254
29.009887014, 96.390, 2855.0, 53.4322
29.036147579, 96.390, 3321.0, 57.6281
29.062408145, 96.390, 3487.0, 59.0508
29.088668710, 96.390, 3249.0, 57.0000
29.114929276, 96.390, 2958.0, 54.3875
29.141189841, 96.390, 2609.0, 51.0784
29.167450406, 96.390, 2238.0, 47.3075
29.193710972, 96.390, 2080.0, 45.6070
29.219971537, 96.390, 1920.0, 43.8178
29.246232102, 96.390, 1846.0, 42.9651
29.272492668, 96.390, 1779.0, 42.1782
29.298753233, 96.390, 1839.0, 42.8836
29.325013798, 96.390, 1791.0, 42.3202
29.351274364, 96.390, 1937.0, 44.0114
29.377534929, 96.390, 1831.0, 42.7902
29.403795494, 96.390, 1930.0, 43.9318
29.430056060, 96.390, 1889.0, 43.4626
29.456316625, 96.390, 2080.0, 45.6070
29.482577191, 96.390, 2296.0, 47.9166
29.508837756, 96.390, 2371.0, 48.6929
29.535098321, 96.390, 2584.0, 50.8331
29.561358887, 96.390, 2538.0, 50.3786
29.587619452, 96.390, 2330.0, 48.2701
29.613880017, 96.390, 2346.0, 48.4355
29.640140583, 96.390, 2272.0, 47.6655
29.666401148, 96.390, 2193.0, 46.8295
29.692661713, 96.390, 2254.0, 47.4763
29.718922279, 96.390, 2427.0, 49.2646
29.745182844, 96.390, 2283.0, 47.7807
29.771443409, 96.390, 2176.0, 46.6476
29.797703975, 96.390, 2067.0, 45.4643
29.823964540, 96.390, 2087.0, 45.6837
29.850225105, 96.390, 1972.0, 44.4072
29.876485671, 96.390, 1928.0, 43.9090
29.902746236, 96.390, 2038.0, 45.1442
29.929006802, 96.390, 2176.0, 46.6476
29.955267367, 96.390, 2318.0, 48.1456
29.981527932, 96.390, 2561.0, 50.6063
30.007788498, 96.390, 2490.0, 49.8999
30.034049063, 96.390, 2437.0, 49.3660
30.060309628, 96.390, 2338.0, 48.3529
30.086570194, 96.390, 2262.0, 47.5605
30.112830759, 96.390, 2126.0, 46.1086
30.139091324, 96.390, 1919.0, 43.8064
30.165351890, 96.390, 1858.0, 43.1045
30.191612455, 96.390, 1888.0, 43.4511
30.217873020, 96.390, 1854.0, 43.0581
30.244133586, 96.390, 1820.0, 42.6615
30.270394151, 96.390, 1797.0, 42.3910
30.296654717, 96.390, 1941.0, 44.0568
30.322915282, 96.390, 1850.0, 43.0116
30.349175847, 96.390, 1883.0, 43.3935
30.375436413, 96.390, 1881.0, 43.3705
30.401696978, 96.390, 1919.0, 43.8064
30.427957543, 96.390, 1916.0, 43.7721
30.454218109, 96.390, 1894.0, 43.5201
30.480478674, 96.390, 1899.0, 43.5775
30.506739239, 96.390, 2047.0, 45.2438
30.532999805, 96.390, 2207.0, 46.9787
30.559260370, 96.390, 2361.0, 48.5901
30.585520935, 96.390, 2533.0, 50.3289
30.611781501, 96.390, 2574.0, 50.7346
30.638042066, 96.390, 2293.0, 47.8853
30.664302631, 96.390, 2211.0, 47.0213
30.690563197, 96.390, 2113.0, 45.9674
30.716823762, 96.390, 1959.0, 44.2606
30.743084328, 96.390, 1920.0, 43.8178
30.769344893, 96.390, 1884.0, 43.4051
30.795605458, 96.390, 1880.0, 43.3590
30.821866024, 96.390, 1879.0, 43.3474
30.848126589, 96.390, 1824.0, 42.7083
30.874387154, 96.390, 1857.0, 43.0929
30.900647720, 96.390, 1775.0, 42.1307
30.926908285, 96.390, 1777.0, 42.1545
30.953168850, 96.390, 1823.0, 42.6966
30.979429416, 96.390, 1887.0, 43.4396
31.005689981, 96.390, 1933.0, 43.9659
31.031950546, 96.390, 1963.0, 44.3058
31.058211112, 96.390, 1921.0, 43.8292
31.084471677, 96.390, 1896.0, 43.5431
31.110732243, 96.390, 2013.0, 44.8665
31.136992808, 96.390, 2024.0, 44.9889
31.163253373, 96.390, 2042.0, 45.1885
31.189513939, 96.390, 1970.0, 44.3847
31.215774504, 96.390, 1937.0, 44.0114
31.242035069, 96.390, 1914.0, 43.7493
31.268295635, 96.390, 1866.0, 43.1972
31.294556200, 96.390, 1907.0, 43.6692
31.320816765, 96.390, 1864.0, 43.1741
31.347077331, 96.390, 1815.0, 42.6028
31.373337896, 96.390, 1875.0, 43.3013
31.399598461, 96.390, 1935.0, 43.9886
31.425859027, 96.390, 1854.0, 43.0581
31.452119592, 96.390, 1917.0, 43.7836
31.478380157, 96.390, 1974.0, 44.4297
31.504640723, 96.390, 2052.0, 45.2990
31.530901288, 96.390, 2238.0, 47.3075
31.557161854, 96.390, 2551.0, 50.5074
31.583422419, 96.390, 2877.0, 53.6377
31.609682984, 96.390, 3210.0, 56.6569
31.635943550, 96.390, 3447.0, 58.7112
31.662204115, 96.390, 3509.0, 59.2368
31.688464680, 96.390, 3714.0, 60.9426
31.714725246, 96.390, 3259.0, 57.0877
31.740985811, 96.390, 3004.0, 54.8088
31.767246376, 96.390, 2864.0, 53.5164
31.793506942, 96.390, 2595.0, 50.9411
31.819767507, 96.390, 2419.0, 49.1833
31.846028072, 96.390, 2454.0, 49.5379
31.872288638, 96.390, 2590.0, 50.8920
31.898549203, 96.390, 2993.0, 54.7083
31.924809769, 96.390, 3337.0, 57.7668
31.951070334, 96.390, 4218.0, 64.9461
31.977330899, 96.390, 4562.0, 67.5426
32.003591465, 96.390, 4462.0, 66.7982
32.029852030, 96.390, 3425.0, 58.5235
32.056112595, 96.390, 3292.0, 57.3760
32.082373161, 96.390, 3176.0, 56.3560
32.108633726, 96.390, 2538.0, 50.3786
32.134894291, 96.390, 2422.0, 49.2138
32.161154857, 96.390, 2569.0, 50.6853
32.187415422, 96.390, 3006.0, 54.8270
32.213675987, 96.390, 3318.0, 57.6021
32.239936553, 96.390, 3784.0, 61.5142
32.266197118, 96.390, 4183.0, 64.6761
32.292457683, 96.390, 3427.0, 58.5406
32.318718249, 96.390, 2990.0, 54.6809
32.344978814, 96.390, 2987.0, 54.6535
32.371239380, 96.390, 2416.0, 49.1528
32.397499945, 96.390, 2187.0, 46.7654
32.423760510, 96.390, 2085.0, 45.6618
32.450021076, 96.390, 1907.0, 43.6692
32.476281641, 96.390, 1982.0, 44.5197
32.502542206, 96.390, 1916.0, 43.7721
32.528802772, 96.390, 1921.0, 43.8292
32.555063337, 96.390, 2031.0, 45.0666
32.581323902, 96.390, 2196.0, 46.8615
32.607584468, 96.390, 2323.0, 48.1975
32.633845033, 96.390, 2553.0, 50.5272
32.660105598, 96.390, 2743.0, 52.3737
32.686366164, 96.390, 3072.0, 55.4256
32.712626729, 96.390, 3196.0, 56.5332
32.738887295, 96.390, 2938.0, 54.2033
32.765147860, 96.390, 2845.0, 53.3385
32.791408425, 96.390, 2813.0, 53.0377
32.817668991, 96.390, 2602.0, 51.0098
32.843929556, 96.390, 2591.0, 50.9019
32.870190121, 96.390, 2639.0, 51.3712
32.896450687, 96.390, 2905.0, 53.8981
32.922711252, 96.390, 2791.0, 52.8299
32.948971817, 96.390, 2757.0, 52.5071
32.975232383, 96.390, 2630.0, 51.2835
33.001492948, 96.390, 2651.0, 51.4879
33.027753513, 96.390, 2706.0, 52.0192
33.054014079, 96.390, 2730.0, 52.2494
33.080274644, 96.390, 3257.0, 57.0701
33.106535209, 96.390, 3862.0, 62.1450
33.132795775, 96.390, 4526.0, 67.2756
33.159056340, 96.390, 4775.0, 69.1014
33.185316906, 96.390, 4039.0, 63.5531
33.211577471, 96.390, 3782.0, 61.4980
33.237838036, 96.390, 3593.0, 59.9416
33.264098602, 96.390, 3206.0, 56.6216
33.290359167, 96.390, 2765.0, 52.5833
33.316619732, 96.390, 2721.0, 52.1632
33.342880298, 96.390, 2685.0, 51.8170
33.369140863, 96.390, 2598.0, 50.9706
33.395401428, 96.390, 2441.0, 49.4065
33.421661994, 96.390, 2403.0, 49.0204
33.447922559, 96.390, 2371.0, 48.6929
33.474183124, 96.390, 2130.0, 46.1519
33.500443690, 96.390, 2140.0, 46.2601
33.526704255, 96.390, 2037.0, 45.1331
33.552964820, 96.390, 2100.0, 45.8258
33.579225386, 96.390, 2149.0, 46.3573
33.605485951, 96.390, 2201.0, 46.9148
33.631746517, 96.390, 2123.0, 46.0760
33.658007082, 96.390, 2040.0, 45.1664
33.684267647, 96.390, 2007.0, 44.7996
33.710528213, 96.390, 2051.0, 45.2880
33.736788778, 96.390, 2034.0, 45.0999
33.763049343, 96.390, 1997.0, 44.6878
33.789309909, 96.390, 1997.0, 44.6878
33.815570474, 96.390, 2019.0, 44.9333
33.841831039, 96.390, 2040.0, 45.1664
33.868091605, 96.390, 2158.0, 46.4543
33.894352170, 96.390, 2203.0, 46.9361
33.920612735, 96.390, 2339.0, 48.3632
33.946873301, 96.390, 2283.0, 47.7807
33.973133866, 96.390, 2518.0, 50.1797
33.999394432, 96.390, 2760.0, 52.5357
34.025654997, 96.390, 3115.0, 55.8122
34.051915562, 96.390, 3968.0, 62.9921
34.078176128, 96.390, 4249.0, 65.1844
34.104436693, 96.390, 5179.0, 71.9653
34.130697258, 96.390, 5694.0, 75.4586
34.156957824, 96.390, 4432.0, 66.5733
34.183218389, 96.390, 3920.0, 62.6099
34.209478954, 96.390, 3801.0, 61.6523
34.235739520, 96.390, 3178.0, 56.3738
34.262000085, 96.390, 2700.0, 51.9615
34.288260650, 96.390, 2382.0, 48.8057
34.314521216, 96.390, 2340.0, 48.3735
34.340781781, 96.390, 2420.0, 49.1935
34.367042346, 96.390, 2557.0, 50.5668
34.393302912, 96.390, 2372.0, 48.7032
34.419563477, 96.390, 2321.0, 48.1768
34.445824043, 96.390, 2170.0, 46.5833
34.472084608, 96.390, 2093.0, 45.7493
34.498345173, 96.390, 2109.0, 45.9239
34.524605739, 96.390, 1956.0, 44.2267
34.550866304, 96.390, 1926.0, 43.8862
34.577126869, 96.390, 1887.0, 43.4396
34.603387435, 96.390, 1966.0, 44.3396
34.629648000, 96.390, 1840.0, 42.8952
34.655908565, 96.390, 1957.0, 44.2380
34.682169131, 96.390, 1896.0, 43.5431
34.708429696, 96.390, 1789.0, 42.2966
34.734690261, 96.390, 1873.0, 43.2782
34.760950827, 96.390, 1812.0, 42.5676
34.787211392, 96.390, 1866.0, 43.1972
34.813471958, 96.390, 1717.0, 41.4367
34.839732523, 96.390, 1823.0, 42.6966
34.865993088, 96.390, 1815.0, 42.6028
34.892253654, 96.390, 1808.0, 42.5206
34.918514219, 96.390, 1894.0, 43.5201
34.944774784, 96.390, 1802.0, 42.4500
34.971035350, 96.390, 1748.0, 41.8091
34.997295915, 96.390, 1898.0, 43.5660
35.023556480, 96.390, 1787.0, 42.2729
35.049817046, 96.390, 1699.0, 41.2189
35.076077611, 96.390, 1864.0, 43.1741
35.102338176, 96.390, 1809.0, 42.5323
35.128598742, 96.390, 1803.0, 42.4617
35.154859307, 96.390, 1801.0, 42.4382
35.181119872, 96.390, 1895.0, 43.5316
35.207380438, 96.390, 1889.0, 43.4626
35.233641003, 96.390, 2042.0, 45.1885
35.259901569, 96.390, 2175.0, 46.6369
35.286162134, 96.390, 2589.0, 50.8822
35.312422699, 96.390, 3340.0, 57.7927
35.338683265, 96.390, 3712.0, 60.9262
35.364943830, 96.390, 4238.0, 65.0999
35.391204395, 96.390, 5596.0, 74.8064
35.417464961, 96.390, 4822.0, 69.4406
35.443725526, 96.390, 3365.0, 58.0086
35.469986091, 96.390, 3229.0, 56.8243
35.496246657, 96.390, 3558.0, 59.6490
35.522507222, 96.390, 2343.0, 48.4045
35.548767787, 96.390, 1879.0, 43.3474
35.575028353, 96.390, 1805.0, 42.4853
35.601288918, 96.390, 1760.0, 41.9524
35.627549484, 96.390, 1722.0, 41.4970
35.653810049, 96.390, 1733.0, 41.6293
35.680070614, 96.390, 1720.0, 41.4729
35.706331180, 96.390, 1647.0, 40.5832
35.732591745, 96.390, 1765.0, 42.0119
35.758852310, 96.390, 1722.0, 41.4970
35.785112876, 96.390, 1699.0, 41.2189
35.811373441, 96.390, 1717.0, 41.4367
35.837634006, 96.390, 1595.0, 39.9375
35.863894572, 96.390, 1697.0, 41.1947
35.890155137, 96.390, 1605.0, 40.0625
35.916415702, 96.390, 1584.0, 39.7995
35.942676268, 96.390, 1586.0, 39.8246
35.968936833, 96.390, 1632.0, 40.3980
35.995197398, 96.390, 1517.0, 38.9487
36.021457964, 96.390, 1626.0, 40.3237
36.047718529, 96.390, 1568.0, 39.5980
36.073979095, 96.390, 1553.0, 39.4081
36.100239660, 96.390, 1651.0, 40.6325
36.126500225, 96.390, 1513.0, 38.8973
36.152760791, 96.390, 1606.0, 40.0749
36.179021356, 96.390, 1533.0, 39.1535
36.205281921, 96.390, 1549.0, 39.3573
36.231542487, 96.390, 1595.0, 39.9375
36.257803052, 96.390, 1609.0, 40.1123
36.284063617, 96.390, 1555.0, 39.4335
36.310324183, 96.390, 1555.0, 39.4335
36.336584748, 96.390, 1658.0, 40.7185
36.362845313, 96.390, 1706.0, 41.3038
36.389105879, 96.390, 1797.0, 42.3910
36.415366444, 96.390, 1882.0, 43.3820
36.441627010, 96.390, 1824.0, 42.7083
36.467887575, 96.390, 1706.0, 41.3038
36.494148140, 96.390, 1808.0, 42.5206
36.520408706, 96.390, 1761.0, 41.9643
36.546669271, 96.390, 1765.0, 42.0119
36.572929836, 96.390, 1867.0, 43.2088
36.599190402, 96.390, 2177.0, 46.6583
36.625450967, 96.390, 2312.0, 48.0833
36.651711532, 96.390, 2678.0, 51.7494
36.677972098, 96.390, 2484.0, 49.8397
36.704232663, 96.390, 2503.0, 50.0300
36.730493228, 96.390, 2322.0, 48.1871
36.756753794, 96.390, 2149.0, 46.3573
36.783014359, 96.390, 1978.0, 44.4747
36.809274924, 96.390, 1867.0, 43.2088
36.835535490, 96.390, 1691.0, 41.1218
36.861796055, 96.390, 1574.0, 39.6737
36.888056621, 96.390, 1548.0, 39.3446
36.914317186, 96.390, 1398.0, 37.3898
36.940577751, 96.390, 1440.0, 37.9473
36.966838317, 96.390, 1365.0, 36.9459
36.993098882, 96.390, 1324.0, 36.3868
37.019359447, 96.390, 1389.0, 37.2693
37.045620013, 96.390, 1328.0, 36.4417
37.071880578, 96.390, 1411.0, 37.5633
37.098141143, 96.390, 1350.0, 36.7423
37.124401709, 96.390, 1401.0, 37.4299
37.150662274, 96.390, 1351.0, 36.7560
37.176922839, 96.390, 1425.0, 37.7492
37.203183405, 96.390, 1397.0, 37.3765
37.229443970, 96.390, 1386.0, 37.2290
37.255704535, 96.390, 1411.0, 37.5633
37.281965101, 96.390, 1413.0, 37.5899
37.308225666, 96.390, 1417.0, 37.6431
37.334486232, 96.390, 1429.0, 37.8021
37.360746797, 96.390, 1420.0, 37.6829
37.387007362, 96.390, 1429.0, 37.8021
37.413267928, 96.390, 1457.0, 38.1707
37.439528493, 96.390, 1404.0, 37.4700
37.465789058, 96.390, 1352.0, 36.7696
37.492049624, 96.390, 1404.0, 37.4700
37.518310189, 96.390, 1295.0, 35.9861
37.544570754, 96.390, 1288.0, 35.8887
37.570831320, 96.390, 1325.0, 36.4005
37.597091885, 96.390, 1314.0, 36.2491
37.623352450, 96.390, 1248.0, 35.3270
37.649613016, 96.390, 1258.0, 35.4683
37.675873581, 96.390, 1359.0, 36.8646
37.702134147, 96.390, 1406.0, 37.4967
37.728394712, 96.390, 1546.0, 39.3192
37.754655277, 96.390, 1504.0, 38.7814
37.780915843, 96.390, 1591.0, 39.8873
37.807176408, 96.390, 1650.0, 40.6202
37.833436973, 96.390, 1552.0, 39.3954
37.859697539, 96.390, 1466.0, 38.2884
37.885958104, 96.390, 1516.0, 38.9358
37.912218669, 96.390, 1439.0, 37.9342
37.938479235, 96.390, 1287.0, 35.8748
37.964739800, 96.390, 1242.0, 35.2420
37.991000365, 96.390, 1294.0, 35.9722
38.017260931, 96.390, 1206.0, 34.7275
38.043521496, 96.390, 1317.0, 36.2905
38.069782061, 96.390, 1196.0, 34.5832
38.096042627, 96.390, 1267.0, 35.5949
38.122303192, 96.390, 1241.0, 35.2278
38.148563758, 96.390, 1228.0, 35.0428
38.174824323, 96.390, 1196.0, 34.5832
38.201084888, 96.390, 1219.0, 34.9142
38.227345454, 96.390, 1181.0, 34.3657
38.253606019, 96.390, 1184.0, 34.4093
38.279866584, 96.390, 1284.0, 35.8329
38.306127150, 96.390, 1211.0, 34.7994
38.332387715, 96.390, 1283.0, 35.8190
38.358648280, 96.390, 1443.0, 37.9868
38.384908846, 96.390, 1425.0, 37.7492
38.411169411, 96.390, 1525.0, 39.0512
38.437429976, 96.390, 1520.0, 38.9872
38.463690542, 96.390, 1490.0, 38.6005
38.489951107, 96.390, 1465.0, 38.2753
38.516211673, 96.390, 1520.0, 38.9872
38.542472238, 96.390, 1624.0, 40.2989
38.568732803, 96.390, 1715.0, 41.4126
38.594993369, 96.390, 1876.0, 43.3128
38.621253934, 96.390, 2188.0, 46.7761
38.647514499, 96.390, 2443.0, 49.4267
38.673775065, 96.390, 2603.0, 51.0196
38.700035630, 96.390, 2402.0, 49.0102
38.726296195, 96.390, 2003.0, 44.7549
38.752556761, 96.390, 2049.0, 45.2659
38.778817326, 96.390, 1929.0, 43.9204
38.805077891, 96.390, 1758.0, 41.9285
38.831338457, 96.390, 1578.0, 39.7240
38.857599022, 96.390, 1430.0, 37.8153
38.883859587, 96.390, 1398.0, 37.3898
38.910120153, 96.390, 1368.0, 36.9865
38.936380718, 96.390, 1310.0, 36.1939
38.962641284, 96.390, 1254.0, 35.4119
38.988901849, 96.390, 1270.0, 35.6371
39.015162414, 96.390, 1255.0, 35.4260
39.041422980, 96.390, 1301.0, 36.0694
39.067683545, 96.390, 1280.0, 35.7771
39.093944110, 96.390, 1229.0, 35.0571
39.120204676, 96.390, 1220.0, 34.9285
39.146465241, 96.390, 1254.0, 35.4119
39.172725806, 96.390, 1213.0, 34.8281
39.198986372, 96.390, 1258.0, 35.4683
39.225246937, 96.390, 1318.0, 36.3043
39.251507502, 96.390, 1272.0, 35.6651
39.277768068, 96.390, 1339.0, 36.5923
39.304028633, 96.390, 1504.0, 38.7814
39.330289199, 96.390, 1591.0, 39.8873
39.356549764, 96.390, 1676.0, 40.9390
39.382810329, 96.390, 1603.0, 40.0375
39.409070895, 96.390, 1483.0, 38.5097
39.435331460, 96.390, 1462.0, 38.2361
39.461592025, 96.390, 1419.0, 37.6696
39.487852591, 96.390, 1431.0, 37.8286
39.514113156, 96.390, 1401.0, 37.4299
39.540373721, 96.390, 1525.0, 39.0512
39.566634287, 96.390, 1625.0, 40.3113
39.592894852, 96.390, 1915.0, 43.7607
39.619155417, 96.390, 2020.0, 44.9444
39.645415983, 96.390, 1844.0, 42.9418
39.671676548, 96.390, 1718.0, 41.4488
39.697937113, 96.390, 1618.0, 40.2244
39.724197679, 96.390, 1715.0, 41.4126
39.750458244, 96.390, 1498.0, 38.7040
39.776718810, 96.390, 1541.0, 39.2556
39.802979375, 96.390, 1583.0, 39.7869
39.829239940, 96.390, 1755.0, 41.8927
39.855500506, 96.390, 1855.0, 43.0697
39.881761071, 96.390, 1833.0, 42.8135
39.908021636, 96.390, 1890.0, 43.4741
39.934282202, 96.390, 1746.0, 41.7852
39.960542767, 96.390, 1501.0, 38.7427
39.986803332, 96.390, 1548.0, 39.3446
40.013063898, 96.390, 1461.0, 38.2230
40.039324463, 96.390, 1337.0, 36.5650
40.065585028, 96.390, 1274.0, 35.6931
40.091845594, 96.390, 1205.0, 34.7131
40.118106159, 96.390, 1363.0, 36.9188
40.144366725, 96.390, 1289.0, 35.9026
40.170627290, 96.390, 1352.0, 36.7696
40.196887855, 96.390, 1222.0, 34.9571
40.223148421, 96.390, 1185.0, 34.4238
40.249408986, 96.390, 1237.0, 35.1710
40.275669551, 96.390, 1245.0, 35.2846
40.301930117, 96.390, 1113.0, 33.3617
40.328190682, 96.390, 1076.0, 32.8024
40.354451247, 96.390, 1036.0, 32.1870
40.380711813, 96.390, 1112.0, 33.3467
40.406972378, 96.390, 1127.0, 33.5708
40.433232943, 96.390, 1057.0, 32.5115
40.459493509, 96.390, 1113.0, 33.3617
40.485754074, 96.390, 1072.0, 32.7414
40.512014639, 96.390, 1043.0, 32.2955
40.538275205, 96.390, 1023.0, 31.9844
40.564535770, 96.390, 1069.0, 32.6956
40.590796336, 96.390, 1132.0, 33.6452
40.617056901, 96.390, 1055.0, 32.4808
40.643317466, 96.390, 1069.0, 32.6956
40.669578032, 96.390, 1118.0, 33.4365
40.695838597, 96.390, 1097.0, 33.1210
40.722099162, 96.390, 1214.0, 34.8425
40.748359728, 96.390, 1129.0, 33.6006
40.774620293, 96.390, 1078.0, 32.8329
40.800880858, 96.390, 1131.0, 33.6303
40.827141424, 96.390, 1136.0, 33.7046
40.853401989, 96.390, 1051.0, 32.4191
40.879662554, 96.390, 1122.0, 33.4963
40.905923120, 96.390, 1123.0, 33.5112
40.932183685, 96.390, 1148.0, 33.8821
40.958444251, 96.390, 1096.0, 33.1059
40.984704816, 96.390, 1170.0, 34.2053
41.010965381, 96.390, 1196.0, 34.5832
41.037225947, 96.390, 1208.0, 34.7563
41.063486512, 96.390, 1397.0, 37.3765
41.089747077, 96.390, 1315.0, 36.2629
41.116007643, 96.390, 1233.0, 35.1141
41.142268208, 96.390, 1259.0, 35.4824
41.168528773, 96.390, 1163.0, 34.1028
41.194789339, 96.390, 1255.0, 35.4260
41.221049904, 96.390, 1216.0, 34.8712
41.247310469, 96.390, 1103.0, 33.2114
41.273571035, 96.390, 1143.0, 33.8083
41.299831600, 96.390, 1056.0, 32.4962
41.326092165, 96.390, 1076.0, 32.8024
41.352352731, 96.390, 1027.0, 32.0468
41.378613296, 96.390, 1107.0, 33.2716
41.404873862, 96.390, 1069.0, 32.6956
41.431134427, 96.390, 1071.0, 32.7261
41.457394992, 96.390, 1103.0, 33.2114
41.483655558, 96.390, 1036.0, 32.1870
41.509916123, 96.390, 1078.0, 32.8329
41.536176688, 96.390, 1100.0, 33.1662
41.562437254, 96.390, 1093.0, 33.0606
41.588697819, 96.390, 1067.0, 32.6650
41.614958384, 96.390, 1072.0, 32.7414
41.641218950, 96.390, 1108.0, 33.2866
41.667479515, 96.390, 1145.0, 33.8378
41.693740080, 96.390, 1158.0, 34.0294
41.720000646, 96.390, 1371.0, 37.0270
41.746261211, 96.390, 1542.0, 39.2683
41.772521776, 96.390, 1513.0, 38.8973
41.798782342, 96.390, 1467.0, 38.3014
41.825042907, 96.390, 1326.0, 36.4143
41.851303473, 96.390, 1347.0, 36.7015
41.877564038, 96.390, 1310.0, 36.1939
41.903824603, 96.390, 1235.0, 35.1426
41.930085169, 96.390, 1174.0, 34.2637
41.956345734, 96.390, 1122.0, 33.4963
41.982606299, 96.390, 1097.0, 33.1210
42.008866865, 96.390, 1109.0, 33.3017
42.035127430, 96.390, 1091.0, 33.0303
42.061387995, 96.390, 1154.0, 33.9706
42.087648561, 96.390, 1220.0, 34.9285
42.113909126, 96.390, 1298.0, 36.0278
42.140169691, 96.390, 1405.0, 37.4833
42.166430257, 96.390, 1548.0, 39.3446
42.192690822, 96.390, 1580.0, 39.7492
42.218951388, 96.390, 1334.0, 36.5240
42.245211953, 96.390, 1224.0, 34.9857
42.271472518, 96.390, 1270.0, 35.6371
42.297733084, 96.390, 1262.0, 35.5246
42.323993649, 96.390, 1168.0, 34.1760
42.350254214, 96.390, 1149.0, 33.8969
42.376514780, 96.390, 1051.0, 32.4191
42.402775345, 96.390, 1125.0, 33.5410
42.429035910, 96.390, 1111.0, 33.3317
42.455296476, 96.390, 1119.0, 33.4515
42.481557041, 96.390, 1104.0, 33.2265
42.507817606, 96.390, 1118.0, 33.4365
42.534078172, 96.390, 1164.0, 34.1174
42.560338737, 96.390, 1239.0, 35.1994
42.586599302, 96.390, 1238.0, 35.1852
42.612859868, 96.390, 1180.0, 34.3511
42.639120433, 96.390, 1230.0, 35.0714
42.665380999, 96.390, 1235.0, 35.1426
42.691641564, 96.390, 1298.0, 36.0278
42.717902129, 96.390, 1334.0, 36.5240
42.744162695, 96.390, 1413.0, 37.5899
42.770423260, 96.390, 1560.0, 39.4968
42.796683825, 96.390, 1405.0, 37.4833
42.822944391, 96.390, 1338.0, 36.5787
42.849204956, 96.390, 1301.0, 36.0694
42.875465521, 96.390, 1258.0, 35.4683
42.901726087, 96.390, 1249.0, 35.3412
42.927986652, 96.390, 1168.0, 34.1760
42.954247217, 96.390, 1112.0, 33.3467
42.980507783, 96.390, 998.0, 31.5911
43.006768348, 96.390, 1069.0, 32.6956
43.033028914, 96.390, 1081.0, 32.8786
43.059289479, 96.390, 1011.0, 31.7962
43.085550044, 96.390, 1123.0, 33.5112
43.111810610, 96.390, 1116.0, 33.4066
43.138071175, 96.390, 1055.0, 32.4808
43.164331740, 96.390, 1164.0, 34.1174
43.190592306, 96.390, 1140.0, 33.7639
43.216852871, 96.390, 1108.0, 33.2866
43.243113436, 96.390, 1194.0, 34.5543
43.269374002, 96.390, 1247.0, 35.3129
43.295634567, 96.390, 1348.0, 36.7151
43.321895132, 96.390, 1396.0, 37.3631
43.348155698, 96.390, 1377.0, 37.1080
43.374416263, 96.390, 1251.0, 35.3695
43.400676828, 96.390, 1231.0, 35.0856
43.426937394, 96.390, 1165.0, 34.1321
43.453197959, 96.390, 1249.0, 35.3412
43.479458525, 96.390, 1121.0, 33.4813
43.505719090, 96.390, 1178.0, 34.3220
43.531979655, 96.390, 1124.0, 33.5261
43.558240221, 96.390, 1196.0, 34.5832
43.584500786, 96.390, 1190.0, 34.4964
43.610761351, 96.390, 1214.0, 34.8425
43.637021917, 96.390, 1167.0, 34.1614
43.663282482, 96.390, 1169.0, 34.1906
43.689543047, 96.390, 1113.0, 33.3617
43.715803613, 96.390, 1158.0, 34.0294
43.742064178, 96.390, 1086.0, 32.9545
43.768324743, 96.390, 1146.0, 33.8526
43.794585309, 96.390, 1134.0, 33.6749
43.820845874, 96.390, 1162.0, 34.0881
43.847106440, 96.390, 1178.0, 34.3220
43.873367005, 96.390, 1240.0, 35.2136
43.899627570, 96.390, 1126.0, 33.5559
43.925888136, 96.390, 1150.0, 33.9116
43.952148701, 96.390, 1195.0, 34.5688
43.978409266, 96.390, 1145.0, 33.8378
44.004669832, 96.390, 1051.0, 32.4191
44.030930397, 96.390, 1177.0, 34.3074
44.057190962, 96.390, 1059.0, 32.5423
44.083451528, 96.390, 1048.0, 32.3728
44.109712093, 96.390, 1112.0, 33.3467
44.135972658, 96.390, 1084.0, 32.9242
44.162233224, 96.390, 1072.0, 32.7414
44.188493789, 96.390, 1018.0, 31.9061
44.214754354, 96.390, 1049.0, 32.3883
44.241014920, 96.390, 1048.0, 32.3728
44.267275485, 96.390, 1101.0, 33.1813
44.293536051, 96.390, 1082.0, 32.8938
44.319796616, 96.390, 1069.0, 32.6956
44.346057181, 96.390, 1106.0, 33.2566
44.372317747, 96.390, 1025.0, 32.0156
44.398578312, 96.390, 1069.0, 32.6956
44.424838877, 96.390, 1093.0, 33.0606
44.451099443, 96.390, 1069.0, 32.6956
44.477360008, 96.390, 1017.0, 31.8904
44.503620573, 96.390, 1042.0, 32.2800
44.529881139, 96.390, 1117.0, 33.4215
44.556141704, 96.390, 1047.0, 32.3574
44.582402269, 96.390, 1107.0, 33.2716
44.608662835, 96.390, 1076.0, 32.8024
44.634923400, 96.390, 1131.0, 33.6303
44.661183966, 96.390, 1111.0, 33.3317
44.687444531, 96.390, 1040.0, 32.2490
44.713705096, 96.390, 1137.0, 33.7194
44.739965662, 96.390, 1060.0, 32.5576
44.766226227, 96.390, 1092.0, 33.0454
44.792486792, 96.390, 1051.0, 32.4191
44.818747358, 96.390, 1057.0, 32.5115
44.845007923, 96.390, 1029.0, 32.0780
44.871268488, 96.390, 1107.0, 33.2716
44.897529054, 96.390, 1139.0, 33.7491
44.923789619, 96.390, 1166.0, 34.1467
44.950050184, 96.390, 1204.0, 34.6987
44.976310750, 96.390, 1309.0, 36.1801
45.002571315, 96.390, 1392.0, 37.3095
45.028831880, 96.390, 1678.0, 40.9634
45.055092446, 96.390, 1767.0, 42.0357
45.081353011, 96.390, 1635.0, 40.4351
45.107613577, 96.390, 1411.0, 37.5633
45.133874142, 96.390, 1428.0, 37.7889
45.160134707, 96.390, 1384.0, 37.2022
45.186395273, 96.390, 1333.0, 36.5103
45.212655838, 96.390, 1282.0, 35.8050
45.238916403, 96.390, 1183.0, 34.3948
45.265176969, 96.390, 1077.0, 32.8177
45.291437534, 96.390, 1036.0, 32.1870
45.317698099, 96.390, 1089.0, 33.0000
45.343958665, 96.390, 1017.0, 31.8904
45.370219230, 96.390, 1039.0, 32.2335
45.396479795, 96.390, 1042.0, 32.2800
45.422740361, 96.390, 1036.0, 32.1870
45.449000926, 96.390, 1038.0, 32.2180
45.475261492, 96.390, 957.0, 30.9354
45.501522057, 96.390, 1023.0, 31.9844
45.527782622, 96.390, 1020.0, 31.9374
45.554043188, 96.390, 919.0, 30.3150
45.580303753, 96.390, 1063.0, 32.6037
45.606564318, 96.390, 1059.0, 32.5423
45.632824884, 96.390, 985.0, 31.3847
45.659085449, 96.390, 1074.0, 32.7719
45.685346014, 96.390, 1060.0, 32.5576
45.711606580, 96.390, 1218.0, 34.8999
45.737867145, 96.390, 1080.0, 32.8634
45.764127710, 96.390, 1144.0, 33.8231
45.790388276, 96.390, 1075.0, 32.7872
45.816648841, 96.390, 1133.0, 33.6601
45.842909406, 96.390, 1084.0, 32.9242
45.869169972, 96.390, 1073.0, 32.7567
45.895430537, 96.390, 1077.0, 32.8177
45.921691103, 96.390, 1069.0, 32.6956
45.947951668, 96.390, 1063.0, 32.6037
45.974212233, 96.390, 1044.0, 32.3110
46.000472799, 96.390, 1124.0, 33.5261
46.026733364, 96.390, 1139.0, 33.7491
46.052993929, 96.390, 1158.0, 34.0294
46.079254495, 96.390, 1163.0, 34.1028
46.105515060, 96.390, 1103.0, 33.2114
46.131775625, 96.390, 1143.0, 33.8083
46.158036191, 96.390, 1097.0, 33.1210
46.184296756, 96.390, 1138.0, 33.7343
46.210557321, 96.390, 1082.0, 32.8938
46.236817887, 96.390, 1057.0, 32.5115
46.263078452, 96.390, 1108.0, 33.2866
46.289339017, 96.390, 1130.0, 33.6155
46.315599583, 96.390, 1142.0, 33.7935
46.341860148, 96.390, 1082.0, 32.8938
46.368120714, 96.390, 1125.0, 33.5410
46.394381279, 96.390, 1140.0, 33.7639
46.420641844, 96.390, 1083.0, 32.9090
46.446902410, 96.390, 1096.0, 33.1059
46.473162975, 96.390, 1185.0, 34.4238
46.499423540, 96.390, 1122.0, 33.4963
46.525684106, 96.390, 1201.0, 34.6554
46.551944671, 96.390, 1224.0, 34.9857
46.578205236, 96.390, 1374.0, 37.0675
46.604465802, 96.390, 1413.0, 37.5899
46.630726367, 96.390, 1480.0, 38.4708
46.656986932, 96.390, 1545.0, 39.3065
46.683247498, 96.390, 1587.0, 39.8372
46.709508063, 96.390, 1532.0, 39.1408
46.735768629, 96.390, 1536.0, 39.1918
46.762029194, 96.390, 1430.0, 37.8153
46.788289759, 96.390, 1287.0, 35.8748
46.814550325, 96.390, 1351.0, 36.7560
46.840810890, 96.390, 1303.0, 36.0971
46.867071455, 96.390, 1250.0, 35.3553
46.893332021, 96.390, 1143.0, 33.8083
46.919592586, 96.390, 1094.0, 33.0757
46.945853151, 96.390, 1129.0, 33.6006
46.972113717, 96.390, 1082.0, 32.8938
46.998374282, 96.390, 1071.0, 32.7261
47.024634847, 96.390, 1090.0, 33.0151
47.050895413, 96.390, 1070.0, 32.7109
47.077155978, 96.390, 1029.0, 32.0780
47.103416543, 96.390, 1082.0, 32.8938
47.129677109, 96.390, 1118.0, 33.4365
47.155937674, 96.390, 1090.0, 33.0151
47.182198240, 96.390, 1105.0, 33.2415
47.208458805, 96.390, 1141.0, 33.7787
47.234719370, 96.390, 1144.0, 33.8231
47.260979936, 96.390, 1170.0, 34.2053
47.287240501, 96.390, 1205.0, 34.7131
47.313501066, 96.390, 1145.0, 33.8378
47.339761632, 96.390, 1165.0, 34.1321
47.366022197, 96.390, 1240.0, 35.2136
47.392282762, 96.390, 1227.0, 35.0286
47.418543328, 96.390, 1229.0, 35.0571
47.444803893, 96.390, 1280.0, 35.7771
47.471064458, 96.390, 1308.0, 36.1663
47.497325024, 96.390, 1358.0, 36.8511
47.523585589, 96.390, 1492.0, 38.6264
47.549846155, 96.390, 1473.0, 38.3797
47.576106720, 96.390, 1596.0, 39.9500
47.602367285, 96.390, 1502.0, 38.7556
47.628627851, 96.390, 1438.0, 37.9210
47.654888416, 96.390, 1359.0, 36.8646
47.681148981, 96.390, 1356.0, 36.8239
47.707409547, 96.390, 1246.0, 35.2987
47.733670112, 96.390, 1201.0, 34.6554
47.759930677, 96.390, 1131.0, 33.6303
47.786191243, 96.390, 1077.0, 32.8177
47.812451808, 96.390, 1062.0, 32.5883
47.838712373, 96.390, 1076.0, 32.8024
47.864972939, 96.390, 1042.0, 32.2800
47.891233504, 96.390, 1064.0, 32.6190
47.917494069, 96.390, 1022.0, 31.9687
47.943754635, 96.390, 1063.0, 32.6037
47.970015200, 96.390, 980.0, 31.3050
47.996275766, 96.390, 1062.0, 32.5883
48.022536331, 96.390, 1039.0, 32.2335
48.048796896, 96.390, 1015.0, 31.8591
48.075057462, 96.390, 1000.0, 31.6228
48.101318027, 96.390, 986.0, 31.4006
48.127578592, 96.390, 1032.0, 32.1248
48.153839158, 96.390, 1017.0, 31.8904
48.180099723, 96.390, 1006.0, 31.7175
48.206360288, 96.390, 994.0, 31.5278
48.232620854, 96.390, 983.0, 31.3528
48.258881419, 96.390, 968.0, 31.1127
48.285141984, 96.390, 1019.0, 31.9218
48.311402550, 96.390, 988.0, 31.4325
48.337663115, 96.390, 976.0, 31.2410
48.363923681, 96.390, 986.0, 31.4006
48.390184246, 96.390, 960.0, 30.9839
48.416444811, 96.390, 964.0, 31.0483
48.442705377, 96.390, 1007.0, 31.7333
48.468965942, 96.390, 1028.0, 32.0624
48.495226507, 96.390, 1052.0, 32.4345
48.521487073, 96.390, 972.0, 31.1769
48.547747638, 96.390, 963.0, 31.0322
48.574008203, 96.390, 968.0, 31.1127
48.600268769, 96.390, 990.0, 31.4643
48.626529334, 96.390, 1015.0, 31.8591
48.652789899, 96.390, 1033.0, 32.1403
48.679050465, 96.390, 1063.0, 32.6037
48.705311030, 96.390, 1126.0, 33.5559
48.731571595, 96.390, 1124.0, 33.5261
48.757832161, 96.390, 1128.0, 33.5857
48.784092726, 96.390, 1156.0, 34.0000
48.810353292, 96.390, 1172.0, 34.2345
48.836613857, 96.390, 1088.0, 32.9848
48.862874422, 96.390, 1046.0, 32.3419
48.889134988, 96.390, 1067.0, 32.6650
48.915395553, 96.390, 1069.0, 32.6956
48.941656118, 96.390, 967.0, 31.0966
48.967916684, 96.390, 1037.0, 32.2025
48.994177249, 96.390, 958.0, 30.9516
49.020437814, 96.390, 892.0, 29.8664
49.046698380, 96.390, 1011.0, 31.7962
49.072958945, 96.390, 1000.0, 31.6228
49.099219510, 96.390, 1005.0, 31.7017
49.125480076, 96.390, 1068.0, 32.6803
49.151740641, 96.390, 1299.0, 36.0416
49.178001207, 96.390, 1813.0, 42.5793
49.204261772, 96.390, 1671.0, 40.8779
49.230522337, 96.390, 1252.0, 35.3836
49.256782903, 96.390, 1041.0, 32.2645
49.283043468, 96.390, 1109.0, 33.3017
49.309304033, 96.390, 1273.0, 35.6791
49.335564599, 96.390, 1322.0, 36.3593
49.361825164, 96.390, 1076.0, 32.8024
49.388085729, 96.390, 927.0, 30.4467
49.414346295, 96.390, 928.0, 30.4631
49.440606860, 96.390, 912.0, 30.1993
49.466867425, 96.390, 882.0, 29.6985
49.493127991, 96.390, 872.0, 29.5296
49.519388556, 96.390, 922.0, 30.3645
49.545649121, 96.390, 912.0, 30.1993
49.571909687, 96.390, 949.0, 30.8058
49.598170252, 96.390, 904.0, 30.0666
49.624430818, 96.390, 925.0, 30.4138
49.650691383, 96.390, 924.0, 30.3974
49.676951948, 96.390, 945.0, 30.7409
49.703212514, 96.390, 927.0, 30.4467
49.729473079, 96.390, 966.0, 31.0805
49.755733644, 96.390, 952.0, 30.8545
49.781994210, 96.390, 960.0, 30.9839
49.808254775, 96.390, 1007.0, 31.7333
49.834515340, 96.390, 946.0, 30.7571
49.860775906, 96.390, 913.0, 30.2159
49.887036471, 96.390, 921.0, 30.3480
49.913297036, 96.390, 862.0, 29.3598
49.939557602, 96.390, 937.0, 30.6105
49.965818167, 96.390, 882.0, 29.6985
49.992078732, 96.390, 870.0, 29.4958
50.018339298, 96.390, 898.0, 29.9666
50.044599863, 96.390, 914.0, 30.2324
50.070860429, 96.390, 847.0, 29.1033
50.097120994, 96.390, 871.0, 29.5127
50.123381559, 96.390, 892.0, 29.8664
50.149642125, 96.390, 927.0, 30.4467
50.175902690, 96.390, 878.0, 29.6311
50.202163255, 96.390, 934.0, 30.5614
50.228423821, 96.390, 923.0, 30.3809
50.254684386, 96.390, 975.0, 31.2250
50.280944951, 96.390, 936.0, 30.5941
50.307205517, 96.390, 940.0, 30.6594
50.333466082, 96.390, 978.0, 31.2730
50.359726647, 96.390, 976.0, 31.2410
50.385987213, 96.390, 965.0, 31.0644
50.412247778, 96.390, 1024.0, 32.0000
50.438508344, 96.390, 949.0, 30.8058
50.464768909, 96.390, 982.0, 31.3369
50.491029474, 96.390, 996.0, 31.5595
50.517290040, 96.390, 1038.0, 32.2180
50.543550605, 96.390, 1064.0, 32.6190
50.569811170, 96.390, 1113.0, 33.3617
50.596071736, 96.390, 1265.0, 35.5668
50.622332301, 96.390, 1378.0, 37.1214
50.648592866, 96.390, 1315.0, 36.2629
50.674853432, 96.390, 1275.0, 35.7071
50.701113997, 96.390, 1218.0, 34.8999
50.727374562, 96.390, 1164.0, 34.1174
50.753635128, 96.390, 1132.0, 33.6452
50.779895693, 96.390, 1093.0, 33.0606
50.806156258, 96.390, 1045.0, 32.3265
50.832416824, 96.390, 971.0, 31.1609
50.858677389, 96.390, 1016.0, 31.8748
50.884937955, 96.390, 873.0, 29.5466
50.911198520, 96.390, 923.0, 30.3809
50.937459085, 96.390, 990.0, 31.4643
50.963719651, 96.390, 934.0, 30.5614
50.989980216, 96.390, 898.0, 29.9666
51.016240781, 96.390, 925.0, 30.4138
51.042501347, 96.390, 853.0, 29.2062
51.068761912, 96.390, 889.0, 29.8161
51.095022477, 96.390, 946.0, 30.7571
51.121283043, 96.390, 855.0, 29.2404
51.147543608, 96.390, 871.0, 29.5127
51.173804173, 96.390, 855.0, 29.2404
51.200064739, 96.390, 831.0, 28.8271
51.226325304, 96.390, 788.0, 28.0713
51.252585870, 96.390, 840.0, 28.9828
51.278846435, 96.390, 817.0, 28.5832
51.305107000, 96.390, 829.0, 28.7924
51.331367566, 96.390, 840.0, 28.9828
51.357628131, 96.390, 831.0, 28.8271
51.383888696, 96.390, 829.0, 28.7924
51.410149262, 96.390, 843.0, 29.0345
51.436409827, 96.390, 831.0, 28.8271
51.462670392, 96.390, 847.0, 29.1033
51.488930958, 96.390, 846.0, 29.0861
51.515191523, 96.390, 826.0, 28.7402
51.541452088, 96.390, 821.0, 28.6531
51.567712654, 96.390, 810.0, 28.4605
51.593973219, 96.390, 843.0, 29.0345
51.620233784, 96.390, 871.0, 29.5127
51.646494350, 96.390, 894.0, 29.8998
51.672754915, 96.390, 882.0, 29.6985
51.699015481, 96.390, 867.0, 29.4449
51.725276046, 96.390, 908.0, 30.1330
51.751536611, 96.390, 986.0, 31.4006
51.777797177, 96.390, 991.0, 31.4802
51.804057742, 96.390, 987.0, 31.4166
51.830318307, 96.390, 932.0, 30.5287
51.856578873, 96.390, 958.0, 30.9516
51.882839438, 96.390, 997.0, 31.5753
51.909100003, 96.390, 989.0, 31.4484
51.935360569, 96.390, 1062.0, 32.5883
51.961621134, 96.390, 1108.0, 33.2866
51.987881699, 96.390, 1224.0, 34.9857
52.014142265, 96.390, 1502.0, 38.7556
52.040402830, 96.390, 1573.0, 39.6611
52.066663396, 96.390, 1571.0, 39.6358
52.092923961, 96.390, 1349.0, 36.7287
52.119184526, 96.390, 1145.0, 33.8378
52.145445092, 96.390, 1192.0, 34.5254
52.171705657, 96.390, 1263.0, 35.5387
52.197966222, 96.390, 1229.0, 35.0571
52.224226788, 96.390, 1095.0, 33.0908
52.250487353, 96.390, 922.0, 30.3645
52.276747918, 96.390, 915.0, 30.2490
52.303008484, 96.390, 799.0, 28.2666
52.329269049, 96.390, 784.0, 28.0000
52.355529614, 96.390, 834.0, 28.8791
52.381790180, 96.390, 856.0, 29.2575
52.408050745, 96.390, 840.0, 28.9828
52.434311310, 96.390, 887.0, 29.7825
52.460571876, 96.390, 862.0, 29.3598
52.486832441, 96.390, 882.0, 29.6985
52.513093007, 96.390, 846.0, 29.0861
52.539353572, 96.390, 886.0, 29.7658
52.565614137, 96.390, 874.0, 29.5635
52.591874703, 96.390, 818.0, 28.6007
52.618135268, 96.390, 935.0, 30.5778
52.644395833, 96.390, 883.0, 29.7153
52.670656399, 96.390, 960.0, 30.9839
52.696916964, 96.390, 954.0, 30.8869
52.723177529, 96.390, 960.0, 30.9839
52.749438095, 96.390, 1089.0, 33.0000
52.775698660, 96.390, 1115.0, 33.3916
52.801959225, 96.390, 1069.0, 32.6956
52.828219791, 96.390, 983.0, 31.3528
52.854480356, 96.390, 1046.0, 32.3419
52.880740922, 96.390, 1168.0, 34.1760
52.907001487, 96.390, 1139.0, 33.7491
52.933262052, 96.390, 1111.0, 33.3317
52.959522618, 96.390, 1085.0, 32.9393
52.985783183, 96.390, 1213.0, 34.8281
53.012043748, 96.390, 1390.0, 37.2827
53.038304314, 96.390, 1443.0, 37.9868
53.064564879, 96.390, 1389.0, 37.2693
53.090825444, 96.390, 1311.0, 36.2077
53.117086010, 96.390, 1250.0, 35.3553
53.143346575, 96.390, 1117.0, 33.4215
53.169607140, 96.390, 1140.0, 33.7639
53.195867706, 96.390, 1087.0, 32.9697
53.222128271, 96.390, 1012.0, 31.8119
53.248388836, 96.390, 1012.0, 31.8119
53.274649402, 96.390, 932.0, 30.5287
53.300909967, 96.390, 883.0, 29.7153
53.327170533, 96.390, 876.0, 29.5973
53.353431098, 96.390, 832.0, 28.8444
53.379691663, 96.390, 890.0, 29.8329
53.405952229, 96.390, 844.0, 29.0517
53.432212794, 96.390, 876.0, 29.5973
53.458473359, 96.390, 876.0, 29.5973
53.484733925, 96.390, 900.0, 30.0000
53.510994490, 96.390, 930.0, 30.4959
53.537255055, 96.390, 932.0, 30.5287
53.563515621, 96.390, 823.0, 28.6880
53.589776186, 96.390, 878.0, 29.6311
53.616036751, 96.390, 884.0, 29.7321
53.642297317, 96.390, 878.0, 29.6311
53.668557882, 96.390, 837.0, 28.9310
53.694818448, 96.390, 924.0, 30.3974
53.721079013, 96.390, 804.0, 28.3549
53.747339578, 96.390, 814.0, 28.5307
53.773600144, 96.390, 817.0, 28.5832
53.799860709, 96.390, 862.0, 29.3598
53.826121274, 96.390, 862.0, 29.3598
53.852381840, 96.390, 811.0, 28.4781
53.878642405, 96.390, 822.0, 28.6705
53.904902970, 96.390, 883.0, 29.7153
53.931163536, 96.390, 834.0, 28.8791
53.957424101, 96.390, 928.0, 30.4631
53.983684666, 96.390, 960.0, 30.9839
54.009945232, 96.390, 931.0, 30.5123
54.036205797, 96.390, 927.0, 30.4467
54.062466362, 96.390, 912.0, 30.1993
54.088726928, 96.390, 830.0, 28.8097
54.114987493, 96.390, 887.0, 29.7825
54.141248059, 96.390, 908.0, 30.1330
54.167508624, 96.390, 961.0, 31.0000
54.193769189, 96.390, 886.0, 29.7658
54.220029755, 96.390, 912.0, 30.1993
54.246290320, 96.390, 901.0, 30.0167
54.272550885, 96.390, 930.0, 30.4959
54.298811451, 96.390, 894.0, 29.8998
54.325072016, 96.390, 904.0, 30.0666
54.351332581, 96.390, 950.0, 30.8221
54.377593147, 96.390, 921.0, 30.3480
54.403853712, 96.390, 940.0, 30.6594
54.430114277, 96.390, 878.0, 29.6311
54.456374843, 96.390, 954.0, 30.8869
54.482635408, 96.390, 1052.0, 32.4345
54.508895973, 96.390, 1016.0, 31.8748
54.535156539, 96.390, 1126.0, 33.5559
54.561417104, 96.390, 1106.0, 33.2566
54.587677670, 96.390, 1072.0, 32.7414
54.613938235, 96.390, 1019.0, 31.9218
54.640198800, 96.390, 991.0, 31.4802
54.666459366, 96.390, 1026.0, 32.0312
54.692719931, 96.390, 1004.0, 31.6860
54.718980496, 96.390, 1061.0, 32.5730
54.745241062, 96.390, 896.0, 29.9333
54.771501627, 96.390, 902.0, 30.0333
54.797762192, 96.390, 897.0, 29.9500
54.824022758, 96.390, 964.0, 31.0483
54.850283323, 96.390, 969.0, 31.1288
54.876543888, 96.390, 963.0, 31.0322
54.902804454, 96.390, 1075.0, 32.7872
54.929065019, 96.390, 1147.0, 33.8674
54.955325585, 96.390, 1221.0, 34.9428
54.981586150, 96.390, 1180.0, 34.3511
55.007846715, 96.390, 1068.0, 32.6803
55.034107281, 96.390, 973.0, 31.1929
55.060367846, 96.390, 1007.0, 31.7333
55.086628411, 96.390, 1020.0, 31.9374
55.112888977, 96.390, 1040.0, 32.2490
55.139149542, 96.390, 928.0, 30.4631
55.165410107, 96.390, 869.0, 29.4788
55.191670673, 96.390, 865.0, 29.4109
55.217931238, 96.390, 850.0, 29.1548
55.244191803, 96.390, 862.0, 29.3598
55.270452369, 96.390, 835.0, 28.8964
55.296712934, 96.390, 791.0, 28.1247
55.322973499, 96.390, 816.0, 28.5657
55.349234065, 96.390, 842.0, 29.0172
55.375494630, 96.390, 768.0, 27.7128
55.401755196, 96.390, 822.0, 28.6705
55.428015761, 96.390, 797.0, 28.2312
55.454276326, 96.390, 817.0, 28.5832
55.480536892, 96.390, 896.0, 29.9333
55.506797457, 96.390, 817.0, 28.5832
55.533058022, 96.390, 819.0, 28.6182
55.559318588, 96.390, 788.0, 28.0713
55.585579153, 96.390, 853.0, 29.2062
55.611839718, 96.390, 756.0, 27.4955
55.638100284, 96.390, 786.0, 28.0357
55.664360849, 96.390, 814.0, 28.5307
55.690621414, 96.390, 736.0, 27.1293
55.716881980, 96.390, 762.0, 27.6043
55.743142545, 96.390, 697.0, 26.4008
55.769403111, 96.390, 786.0, 28.0357
55.795663676, 96.390, 732.0, 27.0555
55.821924241, 96.390, 770.0, 27.7489
55.848184807, 96.390, 805.0, 28.3725
55.874445372, 96.390, 732.0, 27.0555
55.900705937, 96.390, 735.0, 27.1109
55.926966503, 96.390, 772.0, 27.7849
55.953227068, 96.390, 729.0, 27.0000
55.979487633, 96.390, 788.0, 28.0713
56.005748199, 96.390, 763.0, 27.6225
56.032008764, 96.390, 761.0, 27.5862
56.058269329, 96.390, 776.0, 27.8568
56.084529895, 96.390, 813.0, 28.5132
56.110790460, 96.390, 856.0, 29.2575
56.137051025, 96.390, 948.0, 30.7896
56.163311591, 96.390, 934.0, 30.5614
56.189572156, 96.390, 847.0, 29.1033
56.215832722, 96.390, 865.0, 29.4109
56.242093287, 96.390, 877.0, 29.6142
56.268353852, 96.390, 818.0, 28.6007
56.294614418, 96.390, 831.0, 28.8271
56.320874983, 96.390, 797.0, 28.2312
56.347135548, 96.390, 844.0, 29.0517
56.373396114, 96.390, 724.0, 26.9072
56.399656679, 96.390, 696.0, 26.3818
56.425917244, 96.390, 760.0, 27.5681
56.452177810, 96.390, 680.0, 26.0768
56.478438375, 96.390, 770.0, 27.7489
56.504698940, 96.390, 703.0, 26.5141
56.530959506, 96.390, 667.0, 25.8263
56.557220071, 96.390, 735.0, 27.1109
56.583480637, 96.390, 727.0, 26.9629
56.609741202, 96.390, 718.0, 26.7955
56.636001767, 96.390, 767.0, 27.6948
56.662262333, 96.390, 739.0, 27.1846
56.688522898, 96.390, 760.0, 27.5681
56.714783463, 96.390, 787.0, 28.0535
56.741044029, 96.390, 752.0, 27.4226
56.767304594, 96.390, 807.0, 28.4077
56.793565159, 96.390, 764.0, 27.6405
56.819825725, 96.390, 738.0, 27.1662
56.846086290, 96.390, 761.0, 27.5862
56.872346855, 96.390, 770.0, 27.7489
56.898607421, 96.390, 767.0, 27.6948
56.924867986, 96.390, 779.0, 27.9106
56.951128551, 96.390, 732.0, 27.0555
56.977389117, 96.390, 770.0, 27.7489
57.003649682, 96.390, 756.0, 27.4955
57.029910248, 96.390, 750.0, 27.3861
57.056170813, 96.390, 738.0, 27.1662
57.082431378, 96.390, 810.0, 28.4605
57.108691944, 96.390, 810.0, 28.4605
57.134952509, 96.390, 805.0, 28.3725
57.161213074, 96.390, 814.0, 28.5307
57.187473640, 96.390, 749.0, 27.3679
57.213734205, 96.390, 727.0, 26.9629
57.239994770, 96.390, 766.0, 27.6767
57.266255336, 96.390, 790.0, 28.1069
57.292515901, 96.390, 787.0, 28.0535
57.318776466, 96.390, 817.0, 28.5832
57.345037032, 96.390, 784.0, 28.0000
57.371297597, 96.390, 829.0, 28.7924
57.397558163, 96.390, 857.0, 29.2746
57.423818728, 96.390, 938.0, 30.6268
57.450079293, 96.390, 871.0, 29.5127
57.476339859, 96.390, 851.0, 29.1719
57.502600424, 96.390, 803.0, 28.3373
57.528860989, 96.390, 809.0, 28.4429
57.555121555, 96.390, 826.0, 28.7402
57.581382120, 96.390, 838.0, 28.9482
57.607642685, 96.390, 807.0, 28.4077
57.633903251, 96.390, 789.0, 28.0891
57.660163816, 96.390, 745.0, 27.2947
57.686424381, 96.390, 811.0, 28.4781
57.712684947, 96.390, 747.0, 27.3313
57.738945512, 96.390, 791.0, 28.1247
57.765206077, 96.390, 886.0, 29.7658
57.791466643, 96.390, 948.0, 30.7896
57.817727208, 96.390, 1128.0, 33.5857
57.843987774, 96.390, 1293.0, 35.9583
57.870248339, 96.390, 1319.0, 36.3180
57.896508904, 96.390, 1281.0, 35.7911
57.922769470, 96.390, 1152.0, 33.9411
57.949030035, 96.390, 1136.0, 33.7046
57.975290600, 96.390, 1090.0, 33.0151
58.001551166, 96.390, 1009.0, 31.7648
58.027811731, 96.390, 1021.0, 31.9531
58.054072296, 96.390, 1064.0, 32.6190
58.080332862, 96.390, 936.0, 30.5941
58.106593427, 96.390, 822.0, 28.6705
58.132853992, 96.390, 761.0, 27.5862
58.159114558, 96.390, 783.0, 27.9821
58.185375123, 96.390, 723.0, 26.8887
58.211635689, 96.390, 769.0, 27.7308
58.237896254, 96.390, 729.0, 27.0000
58.264156819, 96.390, 706.0, 26.5707
58.290417385, 96.390, 717.0, 26.7769
58.316677950, 96.390, 740.0, 27.2029
58.342938515, 96.390, 760.0, 27.5681
58.369199081, 96.390, 751.0, 27.4044
58.395459646, 96.390, 707.0, 26.5895
58.421720211, 96.390, 722.0, 26.8701
58.447980777, 96.390, 707.0, 26.5895
58.474241342, 96.390, 693.0, 26.3249
58.500501907, 96.390, 700.0, 26.4575
58.526762473, 96.390, 710.0, 26.6458
58.553023038, 96.390, 683.0, 26.1343
58.579283603, 96.390, 730.0, 27.0185
58.605544169, 96.390, 700.0, 26.4575
58.631804734, 96.390, 704.0, 26.5330
58.658065300, 96.390, 720.0, 26.8328
58.684325865, 96.390, 658.0, 25.6515
58.710586430, 96.390, 707.0, 26.5895
58.736846996, 96.390, 683.0, 26.1343
58.763107561, 96.390, 749.0, 27.3679
58.789368126, 96.390, 699.0, 26.4386
58.815628692, 96.390, 698.0, 26.4197
58.841889257, 96.390, 715.0, 26.7395
58.868149822, 96.390, 746.0, 27.3130
58.894410388, 96.390, 802.0, 28.3196
58.920670953, 96.390, 774.0, 27.8209
58.946931518, 96.390, 795.0, 28.1957
58.973192084, 96.390, 816.0, 28.5657
58.999452649, 96.390, 809.0, 28.4429
59.025713214, 96.390, 767.0, 27.6948
59.051973780, 96.390, 736.0, 27.1293
59.078234345, 96.390, 708.0, 26.6083
59.104494911, 96.390, 783.0, 27.9821
59.130755476, 96.390, 779.0, 27.9106
59.157016041, 96.390, 769.0, 27.7308
59.183276607, 96.390, 718.0, 26.7955
59.209537172, 96.390, 767.0, 27.6948
59.235797737, 96.390, 738.0, 27.1662
59.262058303, 96.390, 749.0, 27.3679
59.288318868, 96.390, 758.0, 27.5318
59.314579433, 96.390, 771.0, 27.7669
59.340839999, 96.390, 772.0, 27.7849
59.367100564, 96.390, 719.0, 26.8142
59.393361129, 96.390, 796.0, 28.2135
59.419621695, 96.390, 832.0, 28.8444
59.445882260, 96.390, 748.0, 27.3496
59.472142826, 96.390, 741.0, 27.2213
59.498403391, 96.390, 791.0, 28.1247
59.524663956, 96.390, 730.0, 27.0185
59.550924522, 96.390, 733.0, 27.0740
59.577185087, 96.390, 723.0, 26.8887
59.603445652, 96.390, 770.0, 27.7489
59.629706218, 96.390, 766.0, 27.6767
59.655966783, 96.390, 826.0, 28.7402
59.682227348, 96.390, 771.0, 27.7669
59.708487914, 96.390, 748.0, 27.3496
59.734748479, 96.390, 809.0, 28.4429
59.761009044, 96.390, 834.0, 28.8791
59.787269610, 96.390, 851.0, 29.1719
59.813530175, 96.390, 837.0, 28.9310
59.839790740, 96.390, 803.0, 28.3373
59.866051306, 96.390, 792.0, 28.1425
59.892311871, 96.390, 784.0, 28.0000
59.918572437, 96.390, 799.0, 28.2666
59.944833002, 96.390, 759.0, 27.5500
59.971093567, 96.390, 818.0, 28.6007
59.997354133, 96.390, 798.0, 28.2489
60.023614698, 96.390, 771.0, 27.7669
60.049875263, 96.390, 787.0, 28.0535
60.076135829, 96.390, 749.0, 27.3679
60.102396394, 96.390, 755.0, 27.4773
60.128656959, 96.390, 772.0, 27.7849
60.154917525, 96.390, 759.0, 27.5500
60.181178090, 96.390, 777.0, 27.8747
60.207438655, 96.390, 761.0, 27.5862
60.233699221, 96.390, 758.0, 27.5318
60.259959786, 96.390, 793.0, 28.1603
60.286220352, 96.390, 765.0, 27.6586
60.312480917, 96.390, 750.0, 27.3861
60.338741482, 96.390, 830.0, 28.8097
60.365002048, 96.390, 743.0, 27.2580
60.391262613, 96.390, 755.0, 27.4773
60.417523178, 96.390, 722.0, 26.8701
60.443783744, 96.390, 764.0, 27.6405
60.470044309, 96.390, 789.0, 28.0891
60.496304874, 96.390, 819.0, 28.6182
60.522565440, 96.390, 769.0, 27.7308
60.548826005, 96.390, 804.0, 28.3549
60.575086570, 96.390, 788.0, 28.0713
60.601347136, 96.390, 753.0, 27.4408
60.627607701, 96.390, 779.0, 27.9106
60.653868266, 96.390, 740.0, 27.2029
60.680128832, 96.390, 763.0, 27.6225
60.706389397, 96.390, 780.0, 27.9285
60.732649963, 96.390, 796.0, 28.2135
60.758910528, 96.390, 821.0, 28.6531
60.785171093, 96.390, 782.0, 27.9643
60.811431659, 96.390, 781.0, 27.9464
60.837692224, 96.390, 814.0, 28.5307
60.863952789, 96.390, 804.0, 28.3549
60.890213355, 96.390, 866.0, 29.4279
60.916473920, 96.390, 841.0, 29.0000
60.942734485, 96.390, 825.0, 28.7228
60.968995051, 96.390, 887.0, 29.7825
60.995255616, 96.390, 795.0, 28.1957
61.021516181, 96.390, 820.0, 28.6356
61.047776747, 96.390, 801.0, 28.3019
61.074037312, 96.390, 894.0, 29.8998
61.100297878, 96.390, 860.0, 29.3258
61.126558443, 96.390, 874.0, 29.5635
61.152819008, 96.390, 845.0, 29.0689
61.179079574, 96.390, 884.0, 29.7321
61.205340139, 96.390, 881.0, 29.6816
61.231600704, 96.390, 1003.0, 31.6702
61.257861270, 96.390, 1061.0, 32.5730
61.284121835, 96.390, 963.0, 31.0322
61.310382400, 96.390, 918.0, 30.2985
61.336642966, 96.390, 899.0, 29.9833
61.362903531, 96.390, 845.0, 29.0689
61.389164096, 96.390, 907.0, 30.1164
61.415424662, 96.390, 971.0, 31.1609
61.441685227, 96.390, 895.0, 29.9166
61.467945792, 96.390, 885.0, 29.7489
61.494206358, 96.390, 845.0, 29.0689
61.520466923, 96.390, 811.0, 28.4781
61.546727489, 96.390, 870.0, 29.4958
61.572988054, 96.390, 809.0, 28.4429
61.599248619, 96.390, 870.0, 29.4958
61.625509185, 96.390, 881.0, 29.6816
61.651769750, 96.390, 865.0, 29.4109
61.678030315, 96.390, 990.0, 31.4643
61.704290881, 96.390, 867.0, 29.4449
61.730551446, 96.390, 893.0, 29.8831
61.756812011, 96.390, 965.0, 31.0644
61.783072577, 96.390, 872.0, 29.5296
61.809333142, 96.390, 867.0, 29.4449
61.835593707, 96.390, 852.0, 29.1890
61.861854273, 96.390, 812.0, 28.4956
61.888114838, 96.390, 852.0, 29.1890
61.914375404, 96.390, 847.0, 29.1033
61.940635969, 96.390, 884.0, 29.7321
61.966896534, 96.390, 773.0, 27.8029
61.993157100, 96.390, 785.0, 28.0179
62.019417665, 96.390, 778.0, 27.8927
62.045678230, 96.390, 788.0, 28.0713
62.071938796, 96.390, 819.0, 28.6182
62.098199361, 96.390, 761.0, 27.5862
62.124459926, 96.390, 819.0, 28.6182
62.150720492, 96.390, 755.0, 27.4773
62.176981057, 96.390, 776.0, 27.8568
62.203241622, 96.390, 827.0, 28.7576
62.229502188, 96.390, 769.0, 27.7308
62.255762753, 96.390, 731.0, 27.0370
62.282023318, 96.390, 727.0, 26.9629
62.308283884, 96.390, 825.0, 28.7228
62.334544449, 96.390, 783.0, 27.9821
62.360805015, 96.390, 775.0, 27.8388
62.387065580, 96.390, 747.0, 27.3313
62.413326145, 96.390, 777.0, 27.8747
62.439586711, 96.390, 743.0, 27.2580
62.465847276, 96.390, 725.0, 26.9258
62.492107841, 96.390, 756.0, 27.4955
62.518368407, 96.390, 727.0, 26.9629
62.544628972, 96.390, 705.0, 26.5518
62.570889537, 96.390, 762.0, 27.6043
62.597150103, 96.390, 730.0, 27.0185
62.623410668, 96.390, 708.0, 26.6083
62.649671233, 96.390, 680.0, 26.0768
62.675931799, 96.390, 678.0, 26.0384
62.702192364, 96.390, 706.0, 26.5707
62.728452930, 96.390, 722.0, 26.8701
62.754713495, 96.390, 746.0, 27.3130
62.780974060, 96.390, 746.0, 27.3130
62.807234626, 96.390, 770.0, 27.7489
62.833495191, 96.390, 796.0, 28.2135
62.859755756, 96.390, 834.0, 28.8791
62.886016322, 96.390, 736.0, 27.1293
62.912276887, 96.390, 764.0, 27.6405
62.938537452, 96.390, 749.0, 27.3679
62.964798018, 96.390, 788.0, 28.0713
62.991058583, 96.390, 762.0, 27.6043
63.017319148, 96.390, 826.0, 28.7402
63.043579714, 96.390, 783.0, 27.9821
63.069840279, 96.390, 812.0, 28.4956
63.096100844, 96.390, 762.0, 27.6043
63.122361410, 96.390, 722.0, 26.8701
63.148621975, 96.390, 752.0, 27.4226
63.174882541, 96.390, 783.0, 27.9821
63.201143106, 96.390, 753.0, 27.4408
63.227403671, 96.390, 699.0, 26.4386
63.253664237, 96.390, 732.0, 27.0555
63.279924802, 96.390, 653.0, 25.5539
63.306185367, 96.390, 730.0, 27.0185
63.332445933, 96.390, 707.0, 26.5895
63.358706498, 96.390, 677.0, 26.0192
63.384967063, 96.390, 711.0, 26.6646
63.411227629, 96.390, 664.0, 25.7682
63.437488194, 96.390, 677.0, 26.0192
63.463748759, 96.390, 708.0, 26.6083
63.490009325, 96.390, 639.0, 25.2784
63.516269890, 96.390, 692.0, 26.3059
63.542530455, 96.390, 650.0, 25.4951
63.568791021, 96.390, 718.0, 26.7955
63.595051586, 96.390, 717.0, 26.7769
63.621312152, 96.390, 771.0, 27.7669
63.647572717, 96.390, 689.0, 26.2488
63.673833282, 96.390, 742.0, 27.2397
63.700093848, 96.390, 774.0, 27.8209
63.726354413, 96.390, 814.0, 28.5307
63.752614978, 96.390, 807.0, 28.4077
63.778875544, 96.390, 773.0, 27.8029
63.805136109, 96.390, 804.0, 28.3549
63.831396674, 96.390, 836.0, 28.9137
63.857657240, 96.390, 786.0, 28.0357
63.883917805, 96.390, 799.0, 28.2666
63.910178370, 96.390, 763.0, 27.6225
63.936438936, 96.390, 764.0, 27.6405
63.962699501, 96.390, 713.0, 26.7021
63.988960067, 96.390, 699.0, 26.4386
64.015220632, 96.390, 737.0, 27.1477
64.041481197, 96.390, 717.0, 26.7769
64.067741763, 96.390, 743.0, 27.2580
64.094002328, 96.390, 721.0, 26.8514
64.120262893, 96.390, 707.0, 26.5895
64.146523459, 96.390, 739.0, 27.1846
64.172784024, 96.390, 674.0, 25.9615
64.199044589, 96.390, 731.0, 27.0370
64.225305155, 96.390, 730.0, 27.0185
64.251565720, 96.390, 693.0, 26.3249
64.277826285, 96.390, 757.0, 27.5136
64.304086851, 96.390, 730.0, 27.0185
64.330347416, 96.390, 691.0, 26.2869
64.356607981, 96.390, 700.0, 26.4575
64.382868547, 96.390, 693.0, 26.3249
64.409129112, 96.390, 659.0, 25.6710
64.435389678, 96.390, 605.0, 24.5967
64.461650243, 96.390, 655.0, 25.5930
64.487910808, 96.390, 713.0, 26.7021
64.514171374, 96.390, 664.0, 25.7682
64.540431939, 96.390, 689.0, 26.2488
64.566692504, 96.390, 707.0, 26.5895
64.592953070, 96.390, 718.0, 26.7955
64.619213635, 96.390, 717.0, 26.7769
64.645474200, 96.390, 717.0, 26.7769
64.671734766, 96.390, 741.0, 27.2213
64.697995331, 96.390, 771.0, 27.7669
64.724255896, 96.390, 683.0, 26.1343
64.750516462, 96.390, 683.0, 26.1343
64.776777027, 96.390, 724.0, 26.9072
64.803037593, 96.390, 700.0, 26.4575
64.829298158, 96.390, 719.0, 26.8142
64.855558723, 96.390, 670.0, 25.8844
64.881819289, 96.390, 710.0, 26.6458
64.908079854, 96.390, 684.0, 26.1534
64.934340419, 96.390, 690.0, 26.2679
64.960600985, 96.390, 695.0, 26.3629
64.986861550, 96.390, 655.0, 25.5930
