[Measurement conditions]
Sample identification,XRD_SiCornernul_Act03May22_B1_0714M_NaOH_LS0173_1
Comment - 1,"Configuration=Stage for Flat Samples/Holders, Owner=User-1, Creation date=7/1/2020 9:53:24 AM"
Comment - 2,"Goniometer=Theta/Theta; Minimum step size 2Theta:0.0001; Minimum step size Omega:0.0001"
Comment - 3,"Sample stage=Stage for flat samples/holders"
Comment - 4,"Diffractometer system=EMPYREAN"
Comment - 5,"Measurement program=C:\Users\ibo5034\OneDrive - The Pennsylvania State University\NEUP\Zerobackground scan.xrdmp, Identifier={98A3B11C-88F9-4AA6-982C-73314A311EF5}"
Anode material,Cu
K-Alpha1 wavelength,1.5405980
K-Alpha2 wavelength,1.5444260
Ratio K-Alpha2/K-Alpha1,0.500
Divergence slit,Fixed,0.25
Monochromator used,NO
Generator voltage, 45
Tube current, 40
File date and time,03/Jun/2022 13:31
Unit cell,
h k l, 0 0 0
Scan axis,Gonio
Scan range,4.994599997,64.999991833
Scan step size,0.0262606
No. of points, 2285
Scan type,CONTINUOUS
Time per step,96.390
[Scan points]
Angle, TimePerStep, Intensity, ESD
5.007730280, 96.390, 3846.0, 62.0161
5.033990845, 96.390, 4041.0, 63.5689
5.060251411, 96.390, 4066.0, 63.7652
5.086511976, 96.390, 3903.0, 62.4740
5.112772541, 96.390, 3775.0, 61.4410
5.139033107, 96.390, 3910.0, 62.5300
5.165293672, 96.390, 3795.0, 61.6036
5.191554237, 96.390, 3884.0, 62.3217
5.217814803, 96.390, 3836.0, 61.9355
5.244075368, 96.390, 3867.0, 62.1852
5.270335934, 96.390, 3708.0, 60.8933
5.296596499, 96.390, 3731.0, 61.0819
5.322857064, 96.390, 3634.0, 60.2827
5.349117630, 96.390, 3647.0, 60.3904
5.375378195, 96.390, 3723.0, 61.0164
5.401638760, 96.390, 3733.0, 61.0983
5.427899326, 96.390, 3637.0, 60.3075
5.454159891, 96.390, 3630.0, 60.2495
5.480420456, 96.390, 3672.0, 60.5970
5.506681022, 96.390, 3685.0, 60.7042
5.532941587, 96.390, 3723.0, 61.0164
5.559202152, 96.390, 3552.0, 59.5987
5.585462718, 96.390, 3543.0, 59.5231
5.611723283, 96.390, 3618.0, 60.1498
5.637983849, 96.390, 3615.0, 60.1249
5.664244414, 96.390, 3546.0, 59.5483
5.690504979, 96.390, 3631.0, 60.2578
5.716765545, 96.390, 3609.0, 60.0750
5.743026110, 96.390, 3525.0, 59.3717
5.769286675, 96.390, 3531.0, 59.4222
5.795547241, 96.390, 3455.0, 58.7792
5.821807806, 96.390, 3580.0, 59.8331
5.848068371, 96.390, 3670.0, 60.5805
5.874328937, 96.390, 3486.0, 59.0424
5.900589502, 96.390, 3514.0, 59.2790
5.926850067, 96.390, 3428.0, 58.5491
5.953110633, 96.390, 3524.0, 59.3633
5.979371198, 96.390, 3489.0, 59.0678
6.005631763, 96.390, 3451.0, 58.7452
6.031892329, 96.390, 3507.0, 59.2199
6.058152894, 96.390, 3464.0, 58.8558
6.084413460, 96.390, 3543.0, 59.5231
6.110674025, 96.390, 3485.0, 59.0339
6.136934590, 96.390, 3495.0, 59.1185
6.163195156, 96.390, 3475.0, 58.9491
6.189455721, 96.390, 3468.0, 58.8897
6.215716286, 96.390, 3407.0, 58.3695
6.241976852, 96.390, 3525.0, 59.3717
6.268237417, 96.390, 3517.0, 59.3043
6.294497982, 96.390, 3462.0, 58.8388
6.320758548, 96.390, 3467.0, 58.8812
6.347019113, 96.390, 3300.0, 57.4456
6.373279678, 96.390, 3328.0, 57.6888
6.399540244, 96.390, 3514.0, 59.2790
6.425800809, 96.390, 3475.0, 58.9491
6.452061375, 96.390, 3460.0, 58.8218
6.478321940, 96.390, 3390.0, 58.2237
6.504582505, 96.390, 3420.0, 58.4808
6.530843071, 96.390, 3460.0, 58.8218
6.557103636, 96.390, 3347.0, 57.8533
6.583364201, 96.390, 3356.0, 57.9310
6.609624767, 96.390, 3367.0, 58.0259
6.635885332, 96.390, 3515.0, 59.2874
6.662145897, 96.390, 3401.0, 58.3181
6.688406463, 96.390, 3356.0, 57.9310
6.714667028, 96.390, 3351.0, 57.8878
6.740927593, 96.390, 3383.0, 58.1636
6.767188159, 96.390, 3433.0, 58.5918
6.793448724, 96.390, 3436.0, 58.6174
6.819709289, 96.390, 3277.0, 57.2451
6.845969855, 96.390, 3330.0, 57.7062
6.872230420, 96.390, 3364.0, 58.0000
6.898490986, 96.390, 3415.0, 58.4380
6.924751551, 96.390, 3374.0, 58.0861
6.951012116, 96.390, 3362.0, 57.9828
6.977272682, 96.390, 3342.0, 57.8100
7.003533247, 96.390, 3467.0, 58.8812
7.029793812, 96.390, 3328.0, 57.6888
7.056054378, 96.390, 3390.0, 58.2237
7.082314943, 96.390, 3461.0, 58.8303
7.108575508, 96.390, 3329.0, 57.6975
7.134836074, 96.390, 3424.0, 58.5150
7.161096639, 96.390, 3431.0, 58.5747
7.187357204, 96.390, 3381.0, 58.1464
7.213617770, 96.390, 3499.0, 59.1523
7.239878335, 96.390, 3371.0, 58.0603
7.266138900, 96.390, 3428.0, 58.5491
7.292399466, 96.390, 3436.0, 58.6174
7.318660031, 96.390, 3412.0, 58.4123
7.344920597, 96.390, 3403.0, 58.3352
7.371181162, 96.390, 3387.0, 58.1979
7.397441727, 96.390, 3414.0, 58.4294
7.423702293, 96.390, 3336.0, 57.7581
7.449962858, 96.390, 3420.0, 58.4808
7.476223423, 96.390, 3429.0, 58.5577
7.502483989, 96.390, 3351.0, 57.8878
7.528744554, 96.390, 3373.0, 58.0775
7.555005119, 96.390, 3301.0, 57.4543
7.581265685, 96.390, 3416.0, 58.4466
7.607526250, 96.390, 3407.0, 58.3695
7.633786815, 96.390, 3470.0, 58.9067
7.660047381, 96.390, 3416.0, 58.4466
7.686307946, 96.390, 3469.0, 58.8982
7.712568512, 96.390, 3419.0, 58.4722
7.738829077, 96.390, 3371.0, 58.0603
7.765089642, 96.390, 3440.0, 58.6515
7.791350208, 96.390, 3323.0, 57.6455
7.817610773, 96.390, 3385.0, 58.1808
7.843871338, 96.390, 3393.0, 58.2495
7.870131904, 96.390, 3388.0, 58.2065
7.896392469, 96.390, 3423.0, 58.5064
7.922653034, 96.390, 3305.0, 57.4891
7.948913600, 96.390, 3385.0, 58.1808
7.975174165, 96.390, 3415.0, 58.4380
8.001434730, 96.390, 3430.0, 58.5662
8.027695296, 96.390, 3297.0, 57.4195
8.053955861, 96.390, 3400.0, 58.3095
8.080216426, 96.390, 3408.0, 58.3781
8.106476992, 96.390, 3425.0, 58.5235
8.132737557, 96.390, 3402.0, 58.3267
8.158998123, 96.390, 3327.0, 57.6802
8.185258688, 96.390, 3373.0, 58.0775
8.211519253, 96.390, 3313.0, 57.5587
8.237779819, 96.390, 3311.0, 57.5413
8.264040384, 96.390, 3362.0, 57.9828
8.290300949, 96.390, 3352.0, 57.8965
8.316561515, 96.390, 3389.0, 58.2151
8.342822080, 96.390, 3433.0, 58.5918
8.369082645, 96.390, 3423.0, 58.5064
8.395343211, 96.390, 3411.0, 58.4038
8.421603776, 96.390, 3342.0, 57.8100
8.447864341, 96.390, 3349.0, 57.8705
8.474124907, 96.390, 3374.0, 58.0861
8.500385472, 96.390, 3428.0, 58.5491
8.526646038, 96.390, 3507.0, 59.2199
8.552906603, 96.390, 3436.0, 58.6174
8.579167168, 96.390, 3569.0, 59.7411
8.605427734, 96.390, 3553.0, 59.6070
8.631688299, 96.390, 3547.0, 59.5567
8.657948864, 96.390, 3463.0, 58.8473
8.684209430, 96.390, 3339.0, 57.7841
8.710469995, 96.390, 3269.0, 57.1752
8.736730560, 96.390, 3313.0, 57.5587
8.762991126, 96.390, 3353.0, 57.9051
8.789251691, 96.390, 3333.0, 57.7321
8.815512256, 96.390, 3259.0, 57.0877
8.841772822, 96.390, 3325.0, 57.6628
8.868033387, 96.390, 3203.0, 56.5951
8.894293952, 96.390, 3280.0, 57.2713
8.920554518, 96.390, 3345.0, 57.8360
8.946815083, 96.390, 3250.0, 57.0088
8.973075649, 96.390, 3164.0, 56.2494
8.999336214, 96.390, 3230.0, 56.8331
9.025596779, 96.390, 3282.0, 57.2887
9.051857345, 96.390, 3249.0, 57.0000
9.078117910, 96.390, 3293.0, 57.3847
9.104378475, 96.390, 3247.0, 56.9825
9.130639041, 96.390, 3253.0, 57.0351
9.156899606, 96.390, 3269.0, 57.1752
9.183160171, 96.390, 3317.0, 57.5934
9.209420737, 96.390, 3306.0, 57.4978
9.235681302, 96.390, 3213.0, 56.6833
9.261941867, 96.390, 3184.0, 56.4269
9.288202433, 96.390, 3238.0, 56.9034
9.314462998, 96.390, 3232.0, 56.8507
9.340723564, 96.390, 3188.0, 56.4624
9.366984129, 96.390, 3351.0, 57.8878
9.393244694, 96.390, 3160.0, 56.2139
9.419505260, 96.390, 3182.0, 56.4092
9.445765825, 96.390, 3166.0, 56.2672
9.472026390, 96.390, 3232.0, 56.8507
9.498286956, 96.390, 3244.0, 56.9561
9.524547521, 96.390, 3219.0, 56.7362
9.550808086, 96.390, 3199.0, 56.5597
9.577068652, 96.390, 3096.0, 55.6417
9.603329217, 96.390, 3218.0, 56.7274
9.629589782, 96.390, 3117.0, 55.8301
9.655850348, 96.390, 3250.0, 57.0088
9.682110913, 96.390, 3108.0, 55.7494
9.708371478, 96.390, 3189.0, 56.4712
9.734632044, 96.390, 3178.0, 56.3738
9.760892609, 96.390, 3193.0, 56.5066
9.787153175, 96.390, 3122.0, 55.8749
9.813413740, 96.390, 3249.0, 57.0000
9.839674305, 96.390, 3198.0, 56.5509
9.865934871, 96.390, 3167.0, 56.2761
9.892195436, 96.390, 3058.0, 55.2992
9.918456001, 96.390, 3152.0, 56.1427
9.944716567, 96.390, 3127.0, 55.9196
9.970977132, 96.390, 3148.0, 56.1070
9.997237697, 96.390, 3127.0, 55.9196
10.023498263, 96.390, 3123.0, 55.8838
10.049758828, 96.390, 3121.0, 55.8659
10.076019393, 96.390, 3064.0, 55.3534
10.102279959, 96.390, 3041.0, 55.1453
10.128540524, 96.390, 3028.0, 55.0273
10.154801090, 96.390, 3021.0, 54.9636
10.181061655, 96.390, 3019.0, 54.9454
10.207322220, 96.390, 3228.0, 56.8155
10.233582786, 96.390, 3136.0, 56.0000
10.259843351, 96.390, 3110.0, 55.7674
10.286103916, 96.390, 2970.0, 54.4977
10.312364482, 96.390, 3070.0, 55.4076
10.338625047, 96.390, 3028.0, 55.0273
10.364885612, 96.390, 3010.0, 54.8635
10.391146178, 96.390, 3044.0, 55.1725
10.417406743, 96.390, 3068.0, 55.3895
10.443667308, 96.390, 3031.0, 55.0545
10.469927874, 96.390, 3190.0, 56.4801
10.496188439, 96.390, 3397.0, 58.2838
10.522449004, 96.390, 3313.0, 57.5587
10.548709570, 96.390, 3085.0, 55.5428
10.574970135, 96.390, 3043.0, 55.1634
10.601230701, 96.390, 3045.0, 55.1815
10.627491266, 96.390, 2891.0, 53.7680
10.653751831, 96.390, 2927.0, 54.1018
10.680012397, 96.390, 2910.0, 53.9444
10.706272962, 96.390, 2936.0, 54.1849
10.732533527, 96.390, 2927.0, 54.1018
10.758794093, 96.390, 2901.0, 53.8609
10.785054658, 96.390, 3033.0, 55.0727
10.811315223, 96.390, 2933.0, 54.1572
10.837575789, 96.390, 2903.0, 53.8795
10.863836354, 96.390, 2878.0, 53.6470
10.890096919, 96.390, 2898.0, 53.8331
10.916357485, 96.390, 3034.0, 55.0818
10.942618050, 96.390, 2920.0, 54.0370
10.968878616, 96.390, 2866.0, 53.5350
10.995139181, 96.390, 2846.0, 53.3479
11.021399746, 96.390, 3033.0, 55.0727
11.047660312, 96.390, 2877.0, 53.6377
11.073920877, 96.390, 2886.0, 53.7215
11.100181442, 96.390, 2901.0, 53.8609
11.126442008, 96.390, 2924.0, 54.0740
11.152702573, 96.390, 2787.0, 52.7920
11.178963138, 96.390, 2795.0, 52.8678
11.205223704, 96.390, 2767.0, 52.6023
11.231484269, 96.390, 2682.0, 51.7880
11.257744834, 96.390, 2864.0, 53.5164
11.284005400, 96.390, 2813.0, 53.0377
11.310265965, 96.390, 2774.0, 52.6688
11.336526530, 96.390, 2769.0, 52.6213
11.362787096, 96.390, 2816.0, 53.0660
11.389047661, 96.390, 2786.0, 52.7826
11.415308227, 96.390, 2701.0, 51.9711
11.441568792, 96.390, 2651.0, 51.4879
11.467829357, 96.390, 2760.0, 52.5357
11.494089923, 96.390, 2690.0, 51.8652
11.520350488, 96.390, 2684.0, 51.8073
11.546611053, 96.390, 2747.0, 52.4118
11.572871619, 96.390, 2625.0, 51.2348
11.599132184, 96.390, 2735.0, 52.2972
11.625392749, 96.390, 2728.0, 52.2303
11.651653315, 96.390, 2749.0, 52.4309
11.677913880, 96.390, 2712.0, 52.0769
11.704174445, 96.390, 2796.0, 52.8772
11.730435011, 96.390, 2670.0, 51.6720
11.756695576, 96.390, 2759.0, 52.5262
11.782956141, 96.390, 2560.0, 50.5964
11.809216707, 96.390, 2633.0, 51.3128
11.835477272, 96.390, 2528.0, 50.2792
11.861737838, 96.390, 2598.0, 50.9706
11.887998403, 96.390, 2580.0, 50.7937
11.914258968, 96.390, 2617.0, 51.1566
11.940519534, 96.390, 2709.0, 52.0481
11.966780099, 96.390, 2605.0, 51.0392
11.993040664, 96.390, 2652.0, 51.4976
12.019301230, 96.390, 2643.0, 51.4101
12.045561795, 96.390, 2638.0, 51.3615
12.071822360, 96.390, 2588.0, 50.8724
12.098082926, 96.390, 2556.0, 50.5569
12.124343491, 96.390, 2565.0, 50.6458
12.150604056, 96.390, 2583.0, 50.8232
12.176864622, 96.390, 2472.0, 49.7192
12.203125187, 96.390, 2532.0, 50.3190
12.229385753, 96.390, 2572.0, 50.7149
12.255646318, 96.390, 2514.0, 50.1398
12.281906883, 96.390, 2560.0, 50.5964
12.308167449, 96.390, 2576.0, 50.7543
12.334428014, 96.390, 2460.0, 49.5984
12.360688579, 96.390, 2536.0, 50.3587
12.386949145, 96.390, 2552.0, 50.5173
12.413209710, 96.390, 2543.0, 50.4282
12.439470275, 96.390, 2480.0, 49.7996
12.465730841, 96.390, 2463.0, 49.6286
12.491991406, 96.390, 2534.0, 50.3389
12.518251971, 96.390, 2436.0, 49.3559
12.544512537, 96.390, 2540.0, 50.3984
12.570773102, 96.390, 2478.0, 49.7795
12.597033667, 96.390, 2526.0, 50.2593
12.623294233, 96.390, 2571.0, 50.7050
12.649554798, 96.390, 2496.0, 49.9600
12.675815364, 96.390, 2530.0, 50.2991
12.702075929, 96.390, 2678.0, 51.7494
12.728336494, 96.390, 2652.0, 51.4976
12.754597060, 96.390, 2602.0, 51.0098
12.780857625, 96.390, 2566.0, 50.6557
12.807118190, 96.390, 2432.0, 49.3153
12.833378756, 96.390, 2475.0, 49.7494
12.859639321, 96.390, 2410.0, 49.0918
12.885899886, 96.390, 2472.0, 49.7192
12.912160452, 96.390, 2452.0, 49.5177
12.938421017, 96.390, 2397.0, 48.9592
12.964681582, 96.390, 2428.0, 49.2747
12.990942148, 96.390, 2410.0, 49.0918
13.017202713, 96.390, 2394.0, 48.9285
13.043463279, 96.390, 2325.0, 48.2183
13.069723844, 96.390, 2397.0, 48.9592
13.095984409, 96.390, 2436.0, 49.3559
13.122244975, 96.390, 2400.0, 48.9898
13.148505540, 96.390, 2368.0, 48.6621
13.174766105, 96.390, 2323.0, 48.1975
13.201026671, 96.390, 2405.0, 49.0408
13.227287236, 96.390, 2367.0, 48.6518
13.253547801, 96.390, 2256.0, 47.4974
13.279808367, 96.390, 2435.0, 49.3457
13.306068932, 96.390, 2310.0, 48.0625
13.332329497, 96.390, 2448.0, 49.4773
13.358590063, 96.390, 2320.0, 48.1664
13.384850628, 96.390, 2457.0, 49.5681
13.411111193, 96.390, 2407.0, 49.0612
13.437371759, 96.390, 2651.0, 51.4879
13.463632324, 96.390, 2655.0, 51.5267
13.489892890, 96.390, 2800.0, 52.9150
13.516153455, 96.390, 2898.0, 53.8331
13.542414020, 96.390, 3001.0, 54.7814
13.568674586, 96.390, 2782.0, 52.7447
13.594935151, 96.390, 2601.0, 51.0000
13.621195716, 96.390, 2412.0, 49.1121
13.647456282, 96.390, 2323.0, 48.1975
13.673716847, 96.390, 2299.0, 47.9479
13.699977412, 96.390, 2380.0, 48.7852
13.726237978, 96.390, 2316.0, 48.1248
13.752498543, 96.390, 2423.0, 49.2240
13.778759108, 96.390, 2530.0, 50.2991
13.805019674, 96.390, 2676.0, 51.7301
13.831280239, 96.390, 2917.0, 54.0093
13.857540805, 96.390, 2928.0, 54.1110
13.883801370, 96.390, 2819.0, 53.0943
13.910061935, 96.390, 2678.0, 51.7494
13.936322501, 96.390, 2560.0, 50.5964
13.962583066, 96.390, 2469.0, 49.6890
13.988843631, 96.390, 2443.0, 49.4267
14.015104197, 96.390, 2247.0, 47.4025
14.041364762, 96.390, 2330.0, 48.2701
14.067625327, 96.390, 2287.0, 47.8226
14.093885893, 96.390, 2298.0, 47.9375
14.120146458, 96.390, 2375.0, 48.7340
14.146407023, 96.390, 2434.0, 49.3356
14.172667589, 96.390, 2496.0, 49.9600
14.198928154, 96.390, 2527.0, 50.2693
14.225188719, 96.390, 2769.0, 52.6213
14.251449285, 96.390, 3111.0, 55.7763
14.277709850, 96.390, 3493.0, 59.1016
14.303970416, 96.390, 3724.0, 61.0246
14.330230981, 96.390, 3564.0, 59.6992
14.356491546, 96.390, 2947.0, 54.2863
14.382752112, 96.390, 2432.0, 49.3153
14.409012677, 96.390, 2262.0, 47.5605
14.435273242, 96.390, 2266.0, 47.6025
14.461533808, 96.390, 2265.0, 47.5920
14.487794373, 96.390, 2221.0, 47.1275
14.514054938, 96.390, 2204.0, 46.9468
14.540315504, 96.390, 2182.0, 46.7119
14.566576069, 96.390, 2131.0, 46.1628
14.592836634, 96.390, 2144.0, 46.3033
14.619097200, 96.390, 2147.0, 46.3357
14.645357765, 96.390, 2228.0, 47.2017
14.671618331, 96.390, 2104.0, 45.8694
14.697878896, 96.390, 2055.0, 45.3321
14.724139461, 96.390, 2122.0, 46.0652
14.750400027, 96.390, 2118.0, 46.0217
14.776660592, 96.390, 2084.0, 45.6508
14.802921157, 96.390, 2126.0, 46.1086
14.829181723, 96.390, 2144.0, 46.3033
14.855442288, 96.390, 2092.0, 45.7384
14.881702853, 96.390, 2198.0, 46.8828
14.907963419, 96.390, 2078.0, 45.5851
14.934223984, 96.390, 2108.0, 45.9130
14.960484549, 96.390, 2152.0, 46.3897
14.986745115, 96.390, 2109.0, 45.9239
15.013005680, 96.390, 2067.0, 45.4643
15.039266245, 96.390, 2259.0, 47.5289
15.065526811, 96.390, 2152.0, 46.3897
15.091787376, 96.390, 2149.0, 46.3573
15.118047942, 96.390, 2162.0, 46.4973
15.144308507, 96.390, 2312.0, 48.0833
15.170569072, 96.390, 2316.0, 48.1248
15.196829638, 96.390, 2413.0, 49.1223
15.223090203, 96.390, 2548.0, 50.4777
15.249350768, 96.390, 2753.0, 52.4690
15.275611334, 96.390, 2960.0, 54.4059
15.301871899, 96.390, 3229.0, 56.8243
15.328132464, 96.390, 3383.0, 58.1636
15.354393030, 96.390, 2952.0, 54.3323
15.380653595, 96.390, 2729.0, 52.2398
15.406914160, 96.390, 2425.0, 49.2443
15.433174726, 96.390, 2366.0, 48.6415
15.459435291, 96.390, 2261.0, 47.5500
15.485695857, 96.390, 2257.0, 47.5079
15.511956422, 96.390, 2062.0, 45.4093
15.538216987, 96.390, 2068.0, 45.4753
15.564477553, 96.390, 2175.0, 46.6369
15.590738118, 96.390, 2066.0, 45.4533
15.616998683, 96.390, 1958.0, 44.2493
15.643259249, 96.390, 2033.0, 45.0888
15.669519814, 96.390, 2085.0, 45.6618
15.695780379, 96.390, 1953.0, 44.1928
15.722040945, 96.390, 2100.0, 45.8258
15.748301510, 96.390, 2022.0, 44.9667
15.774562075, 96.390, 2022.0, 44.9667
15.800822641, 96.390, 1989.0, 44.5982
15.827083206, 96.390, 1952.0, 44.1814
15.853343771, 96.390, 2087.0, 45.6837
15.879604337, 96.390, 1990.0, 44.6094
15.905864902, 96.390, 2035.0, 45.1110
15.932125468, 96.390, 1986.0, 44.5646
15.958386033, 96.390, 2043.0, 45.1996
15.984646598, 96.390, 1987.0, 44.5758
16.010907164, 96.390, 2044.0, 45.2106
16.037167729, 96.390, 2067.0, 45.4643
16.063428294, 96.390, 1999.0, 44.7102
16.089688860, 96.390, 2006.0, 44.7884
16.115949425, 96.390, 1993.0, 44.6430
16.142209990, 96.390, 2090.0, 45.7165
16.168470556, 96.390, 2009.0, 44.8219
16.194731121, 96.390, 2027.0, 45.0222
16.220991686, 96.390, 2056.0, 45.3431
16.247252252, 96.390, 1968.0, 44.3621
16.273512817, 96.390, 2006.0, 44.7884
16.299773382, 96.390, 1954.0, 44.2041
16.326033948, 96.390, 2008.0, 44.8107
16.352294513, 96.390, 1884.0, 43.4051
16.378555079, 96.390, 2059.0, 45.3762
16.404815644, 96.390, 1923.0, 43.8520
16.431076209, 96.390, 1928.0, 43.9090
16.457336775, 96.390, 1956.0, 44.2267
16.483597340, 96.390, 1986.0, 44.5646
16.509857905, 96.390, 2000.0, 44.7214
16.536118471, 96.390, 1961.0, 44.2832
16.562379036, 96.390, 1900.0, 43.5890
16.588639601, 96.390, 1981.0, 44.5084
16.614900167, 96.390, 1940.0, 44.0454
16.641160732, 96.390, 1929.0, 43.9204
16.667421297, 96.390, 1956.0, 44.2267
16.693681863, 96.390, 1949.0, 44.1475
16.719942428, 96.390, 1976.0, 44.4522
16.746202994, 96.390, 1934.0, 43.9773
16.772463559, 96.390, 1907.0, 43.6692
16.798724124, 96.390, 1981.0, 44.5084
16.824984690, 96.390, 2043.0, 45.1996
16.851245255, 96.390, 2024.0, 44.9889
16.877505820, 96.390, 2005.0, 44.7772
16.903766386, 96.390, 2000.0, 44.7214
16.930026951, 96.390, 2029.0, 45.0444
16.956287516, 96.390, 2102.0, 45.8476
16.982548082, 96.390, 2020.0, 44.9444
17.008808647, 96.390, 2042.0, 45.1885
17.035069212, 96.390, 1982.0, 44.5197
17.061329778, 96.390, 1956.0, 44.2267
17.087590343, 96.390, 1921.0, 43.8292
17.113850908, 96.390, 1879.0, 43.3474
17.140111474, 96.390, 1930.0, 43.9318
17.166372039, 96.390, 1939.0, 44.0341
17.192632605, 96.390, 2011.0, 44.8442
17.218893170, 96.390, 1898.0, 43.5660
17.245153735, 96.390, 1907.0, 43.6692
17.271414301, 96.390, 1912.0, 43.7264
17.297674866, 96.390, 2013.0, 44.8665
17.323935431, 96.390, 2052.0, 45.2990
17.350195997, 96.390, 2081.0, 45.6180
17.376456562, 96.390, 2165.0, 46.5296
17.402717127, 96.390, 2137.0, 46.2277
17.428977693, 96.390, 2168.0, 46.5618
17.455238258, 96.390, 2245.0, 47.3814
17.481498823, 96.390, 2133.0, 46.1844
17.507759389, 96.390, 2019.0, 44.9333
17.534019954, 96.390, 1906.0, 43.6578
17.560280520, 96.390, 1950.0, 44.1588
17.586541085, 96.390, 1969.0, 44.3734
17.612801650, 96.390, 1870.0, 43.2435
17.639062216, 96.390, 1919.0, 43.8064
17.665322781, 96.390, 1905.0, 43.6463
17.691583346, 96.390, 1938.0, 44.0227
17.717843912, 96.390, 1859.0, 43.1161
17.744104477, 96.390, 1959.0, 44.2606
17.770365042, 96.390, 1893.0, 43.5086
17.796625608, 96.390, 1892.0, 43.4971
17.822886173, 96.390, 1816.0, 42.6146
17.849146738, 96.390, 1905.0, 43.6463
17.875407304, 96.390, 1897.0, 43.5546
17.901667869, 96.390, 2047.0, 45.2438
17.927928434, 96.390, 1940.0, 44.0454
17.954189000, 96.390, 1990.0, 44.6094
17.980449565, 96.390, 1907.0, 43.6692
18.006710131, 96.390, 1910.0, 43.7035
18.032970696, 96.390, 1931.0, 43.9431
18.059231261, 96.390, 1903.0, 43.6234
18.085491827, 96.390, 1994.0, 44.6542
18.111752392, 96.390, 1997.0, 44.6878
18.138012957, 96.390, 2011.0, 44.8442
18.164273523, 96.390, 1993.0, 44.6430
18.190534088, 96.390, 1990.0, 44.6094
18.216794653, 96.390, 2039.0, 45.1553
18.243055219, 96.390, 2054.0, 45.3211
18.269315784, 96.390, 2199.0, 46.8935
18.295576349, 96.390, 2307.0, 48.0312
18.321836915, 96.390, 2335.0, 48.3218
18.348097480, 96.390, 2506.0, 50.0600
18.374358046, 96.390, 2303.0, 47.9896
18.400618611, 96.390, 2254.0, 47.4763
18.426879176, 96.390, 2082.0, 45.6289
18.453139742, 96.390, 2271.0, 47.6550
18.479400307, 96.390, 2335.0, 48.3218
18.505660872, 96.390, 2441.0, 49.4065
18.531921438, 96.390, 2287.0, 47.8226
18.558182003, 96.390, 2149.0, 46.3573
18.584442568, 96.390, 2028.0, 45.0333
18.610703134, 96.390, 1991.0, 44.6206
18.636963699, 96.390, 2044.0, 45.2106
18.663224264, 96.390, 2013.0, 44.8665
18.689484830, 96.390, 2042.0, 45.1885
18.715745395, 96.390, 1997.0, 44.6878
18.742005960, 96.390, 1907.0, 43.6692
18.768266526, 96.390, 2015.0, 44.8888
18.794527091, 96.390, 1986.0, 44.5646
18.820787657, 96.390, 2018.0, 44.9222
18.847048222, 96.390, 2057.0, 45.3542
18.873308787, 96.390, 2130.0, 46.1519
18.899569353, 96.390, 2062.0, 45.4093
18.925829918, 96.390, 2081.0, 45.6180
18.952090483, 96.390, 2137.0, 46.2277
18.978351049, 96.390, 2116.0, 46.0000
19.004611614, 96.390, 2307.0, 48.0312
19.030872179, 96.390, 2264.0, 47.5815
19.057132745, 96.390, 2314.0, 48.1041
19.083393310, 96.390, 2283.0, 47.7807
19.109653875, 96.390, 2226.0, 47.1805
19.135914441, 96.390, 2155.0, 46.4220
19.162175006, 96.390, 2223.0, 47.1487
19.188435572, 96.390, 2059.0, 45.3762
19.214696137, 96.390, 2034.0, 45.0999
19.240956702, 96.390, 2001.0, 44.7325
19.267217268, 96.390, 2067.0, 45.4643
19.293477833, 96.390, 2083.0, 45.6399
19.319738398, 96.390, 2066.0, 45.4533
19.345998964, 96.390, 2205.0, 46.9574
19.372259529, 96.390, 2233.0, 47.2546
19.398520094, 96.390, 2390.0, 48.8876
19.424780660, 96.390, 2490.0, 49.8999
19.451041225, 96.390, 2664.0, 51.6140
19.477301790, 96.390, 2578.0, 50.7740
19.503562356, 96.390, 2618.0, 51.1664
19.529822921, 96.390, 2617.0, 51.1566
19.556083486, 96.390, 2450.0, 49.4975
19.582344052, 96.390, 2275.0, 47.6970
19.608604617, 96.390, 2288.0, 47.8330
19.634865183, 96.390, 2223.0, 47.1487
19.661125748, 96.390, 2271.0, 47.6550
19.687386313, 96.390, 2390.0, 48.8876
19.713646879, 96.390, 2458.0, 49.5782
19.739907444, 96.390, 2624.0, 51.2250
19.766168009, 96.390, 2730.0, 52.2494
19.792428575, 96.390, 2867.0, 53.5444
19.818689140, 96.390, 2905.0, 53.8981
19.844949705, 96.390, 2959.0, 54.3967
19.871210271, 96.390, 2929.0, 54.1202
19.897470836, 96.390, 2931.0, 54.1387
19.923731401, 96.390, 3041.0, 55.1453
19.949991967, 96.390, 3368.0, 58.0345
19.976252532, 96.390, 3837.0, 61.9435
20.002513097, 96.390, 4487.0, 66.9851
20.028773663, 96.390, 4258.0, 65.2534
20.055034228, 96.390, 3679.0, 60.6548
20.081294794, 96.390, 3082.0, 55.5158
20.107555359, 96.390, 2500.0, 50.0000
20.133815924, 96.390, 2264.0, 47.5815
20.160076490, 96.390, 2287.0, 47.8226
20.186337055, 96.390, 2177.0, 46.6583
20.212597620, 96.390, 2188.0, 46.7761
20.238858186, 96.390, 2193.0, 46.8295
20.265118751, 96.390, 2200.0, 46.9042
20.291379316, 96.390, 2292.0, 47.8748
20.317639882, 96.390, 2353.0, 48.5077
20.343900447, 96.390, 2330.0, 48.2701
20.370161012, 96.390, 2436.0, 49.3559
20.396421578, 96.390, 2739.0, 52.3355
20.422682143, 96.390, 3243.0, 56.9473
20.448942709, 96.390, 3895.0, 62.4099
20.475203274, 96.390, 3534.0, 59.4475
20.501463839, 96.390, 3453.0, 58.7622
20.527724405, 96.390, 3054.0, 55.2630
20.553984970, 96.390, 3019.0, 54.9454
20.580245535, 96.390, 3264.0, 57.1314
20.606506101, 96.390, 3672.0, 60.5970
20.632766666, 96.390, 3892.0, 62.3859
20.659027231, 96.390, 4549.0, 67.4463
20.685287797, 96.390, 5419.0, 73.6139
20.711548362, 96.390, 6577.0, 81.0987
20.737808927, 96.390, 7743.0, 87.9943
20.764069493, 96.390, 7497.0, 86.5852
20.790330058, 96.390, 5852.0, 76.4984
20.816590623, 96.390, 4568.0, 67.5870
20.842851189, 96.390, 3247.0, 56.9825
20.869111754, 96.390, 2644.0, 51.4198
20.895372320, 96.390, 2544.0, 50.4381
20.921632885, 96.390, 2524.0, 50.2394
20.947893450, 96.390, 2403.0, 49.0204
20.974154016, 96.390, 2407.0, 49.0612
21.000414581, 96.390, 2398.0, 48.9694
21.026675146, 96.390, 2376.0, 48.7442
21.052935712, 96.390, 2407.0, 49.0612
21.079196277, 96.390, 2371.0, 48.6929
21.105456842, 96.390, 2360.0, 48.5798
21.131717408, 96.390, 2313.0, 48.0937
21.157977973, 96.390, 2363.0, 48.6107
21.184238538, 96.390, 2266.0, 47.6025
21.210499104, 96.390, 2381.0, 48.7955
21.236759669, 96.390, 2363.0, 48.6107
21.263020235, 96.390, 2278.0, 47.7284
21.289280800, 96.390, 2355.0, 48.5283
21.315541365, 96.390, 2253.0, 47.4658
21.341801931, 96.390, 2365.0, 48.6313
21.368062496, 96.390, 2233.0, 47.2546
21.394323061, 96.390, 2243.0, 47.3603
21.420583627, 96.390, 2260.0, 47.5395
21.446844192, 96.390, 2234.0, 47.2652
21.473104757, 96.390, 2263.0, 47.5710
21.499365323, 96.390, 2301.0, 47.9687
21.525625888, 96.390, 2236.0, 47.2864
21.551886453, 96.390, 2300.0, 47.9583
21.578147019, 96.390, 2314.0, 48.1041
21.604407584, 96.390, 2316.0, 48.1248
21.630668149, 96.390, 2321.0, 48.1768
21.656928715, 96.390, 2355.0, 48.5283
21.683189280, 96.390, 2397.0, 48.9592
21.709449846, 96.390, 2533.0, 50.3289
21.735710411, 96.390, 2545.0, 50.4480
21.761970976, 96.390, 2594.0, 50.9313
21.788231542, 96.390, 2639.0, 51.3712
21.814492107, 96.390, 2492.0, 49.9199
21.840752672, 96.390, 2420.0, 49.1935
21.867013238, 96.390, 2297.0, 47.9270
21.893273803, 96.390, 2370.0, 48.6826
21.919534368, 96.390, 2405.0, 49.0408
21.945794934, 96.390, 2430.0, 49.2950
21.972055499, 96.390, 2494.0, 49.9400
21.998316064, 96.390, 2384.0, 48.8262
22.024576630, 96.390, 2416.0, 49.1528
22.050837195, 96.390, 2449.0, 49.4874
22.077097761, 96.390, 2517.0, 50.1697
22.103358326, 96.390, 2494.0, 49.9400
22.129618891, 96.390, 2450.0, 49.4975
22.155879457, 96.390, 2564.0, 50.6360
22.182140022, 96.390, 2611.0, 51.0979
22.208400587, 96.390, 2581.0, 50.8035
22.234661153, 96.390, 2527.0, 50.2693
22.260921718, 96.390, 2367.0, 48.6518
22.287182283, 96.390, 2468.0, 49.6790
22.313442849, 96.390, 2435.0, 49.3457
22.339703414, 96.390, 2505.0, 50.0500
22.365963979, 96.390, 2411.0, 49.1019
22.392224545, 96.390, 2427.0, 49.2646
22.418485110, 96.390, 2434.0, 49.3356
22.444745675, 96.390, 2419.0, 49.1833
22.471006241, 96.390, 2427.0, 49.2646
22.497266806, 96.390, 2392.0, 48.9081
22.523527372, 96.390, 2479.0, 49.7896
22.549787937, 96.390, 2402.0, 49.0102
22.576048502, 96.390, 2491.0, 49.9099
22.602309068, 96.390, 2483.0, 49.8297
22.628569633, 96.390, 2522.0, 50.2195
22.654830198, 96.390, 2594.0, 50.9313
22.681090764, 96.390, 2560.0, 50.5964
22.707351329, 96.390, 2470.0, 49.6991
22.733611894, 96.390, 2545.0, 50.4480
22.759872460, 96.390, 2394.0, 48.9285
22.786133025, 96.390, 2557.0, 50.5668
22.812393590, 96.390, 2452.0, 49.5177
22.838654156, 96.390, 2557.0, 50.5668
22.864914721, 96.390, 2545.0, 50.4480
22.891175287, 96.390, 2660.0, 51.5752
22.917435852, 96.390, 2592.0, 50.9117
22.943696417, 96.390, 2487.0, 49.8698
22.969956983, 96.390, 2506.0, 50.0600
22.996217548, 96.390, 2573.0, 50.7247
23.022478113, 96.390, 2546.0, 50.4579
23.048738679, 96.390, 2517.0, 50.1697
23.074999244, 96.390, 2599.0, 50.9804
23.101259809, 96.390, 2383.0, 48.8160
23.127520375, 96.390, 2445.0, 49.4469
23.153780940, 96.390, 2588.0, 50.8724
23.180041505, 96.390, 2387.0, 48.8569
23.206302071, 96.390, 2511.0, 50.1099
23.232562636, 96.390, 2419.0, 49.1833
23.258823201, 96.390, 2528.0, 50.2792
23.285083767, 96.390, 2508.0, 50.0799
23.311344332, 96.390, 2431.0, 49.3052
23.337604898, 96.390, 2449.0, 49.4874
23.363865463, 96.390, 2444.0, 49.4368
23.390126028, 96.390, 2502.0, 50.0200
23.416386594, 96.390, 2441.0, 49.4065
23.442647159, 96.390, 2571.0, 50.7050
23.468907724, 96.390, 2549.0, 50.4876
23.495168290, 96.390, 2632.0, 51.3030
23.521428855, 96.390, 2879.0, 53.6563
23.547689420, 96.390, 2935.0, 54.1756
23.573949986, 96.390, 3567.0, 59.7244
23.600210551, 96.390, 2985.0, 54.6352
23.626471116, 96.390, 2926.0, 54.0925
23.652731682, 96.390, 2838.0, 53.2729
23.678992247, 96.390, 2596.0, 50.9510
23.705252813, 96.390, 2495.0, 49.9500
23.731513378, 96.390, 2537.0, 50.3686
23.757773943, 96.390, 2457.0, 49.5681
23.784034509, 96.390, 2547.0, 50.4678
23.810295074, 96.390, 2413.0, 49.1223
23.836555639, 96.390, 2465.0, 49.6488
23.862816205, 96.390, 2434.0, 49.3356
23.889076770, 96.390, 2427.0, 49.2646
23.915337335, 96.390, 2453.0, 49.5278
23.941597901, 96.390, 2519.0, 50.1896
23.967858466, 96.390, 2461.0, 49.6085
23.994119031, 96.390, 2486.0, 49.8598
24.020379597, 96.390, 2542.0, 50.4183
24.046640162, 96.390, 2656.0, 51.5364
24.072900727, 96.390, 2576.0, 50.7543
24.099161293, 96.390, 2522.0, 50.2195
24.125421858, 96.390, 2616.0, 51.1468
24.151682424, 96.390, 2836.0, 53.2541
24.177942989, 96.390, 2919.0, 54.0278
24.204203554, 96.390, 3137.0, 56.0089
24.230464120, 96.390, 3175.0, 56.3471
24.256724685, 96.390, 3310.0, 57.5326
24.282985250, 96.390, 3127.0, 55.9196
24.309245816, 96.390, 3013.0, 54.8908
24.335506381, 96.390, 2945.0, 54.2679
24.361766946, 96.390, 2834.0, 53.2353
24.388027512, 96.390, 2795.0, 52.8678
24.414288077, 96.390, 2740.0, 52.3450
24.440548642, 96.390, 2664.0, 51.6140
24.466809208, 96.390, 2547.0, 50.4678
24.493069773, 96.390, 2662.0, 51.5946
24.519330338, 96.390, 2656.0, 51.5364
24.545590904, 96.390, 2674.0, 51.7107
24.571851469, 96.390, 2689.0, 51.8556
24.598112035, 96.390, 2607.0, 51.0588
24.624372600, 96.390, 2627.0, 51.2543
24.650633165, 96.390, 2534.0, 50.3389
24.676893731, 96.390, 2503.0, 50.0300
24.703154296, 96.390, 2494.0, 49.9400
24.729414861, 96.390, 2515.0, 50.1498
24.755675427, 96.390, 2508.0, 50.0799
24.781935992, 96.390, 2477.0, 49.7695
24.808196557, 96.390, 2524.0, 50.2394
24.834457123, 96.390, 2511.0, 50.1099
24.860717688, 96.390, 2532.0, 50.3190
24.886978253, 96.390, 2603.0, 51.0196
24.913238819, 96.390, 2506.0, 50.0600
24.939499384, 96.390, 2529.0, 50.2892
24.965759950, 96.390, 2477.0, 49.7695
24.992020515, 96.390, 2485.0, 49.8498
25.018281080, 96.390, 2562.0, 50.6162
25.044541646, 96.390, 2567.0, 50.6656
25.070802211, 96.390, 2648.0, 51.4587
25.097062776, 96.390, 2598.0, 50.9706
25.123323342, 96.390, 2550.0, 50.4975
25.149583907, 96.390, 2566.0, 50.6557
25.175844472, 96.390, 2531.0, 50.3090
25.202105038, 96.390, 2516.0, 50.1597
25.228365603, 96.390, 2542.0, 50.4183
25.254626168, 96.390, 2761.0, 52.5452
25.280886734, 96.390, 2677.0, 51.7397
25.307147299, 96.390, 2754.0, 52.4786
25.333407864, 96.390, 2811.0, 53.0189
25.359668430, 96.390, 2910.0, 53.9444
25.385928995, 96.390, 3099.0, 55.6687
25.412189561, 96.390, 3339.0, 57.7841
25.438450126, 96.390, 3432.0, 58.5833
25.464710691, 96.390, 3765.0, 61.3596
25.490971257, 96.390, 3890.0, 62.3699
25.517231822, 96.390, 3611.0, 60.0916
25.543492387, 96.390, 3413.0, 58.4209
25.569752953, 96.390, 3134.0, 55.9821
25.596013518, 96.390, 2757.0, 52.5071
25.622274083, 96.390, 2709.0, 52.0481
25.648534649, 96.390, 2586.0, 50.8527
25.674795214, 96.390, 2590.0, 50.8920
25.701055779, 96.390, 2584.0, 50.8331
25.727316345, 96.390, 2605.0, 51.0392
25.753576910, 96.390, 2684.0, 51.8073
25.779837476, 96.390, 2574.0, 50.7346
25.806098041, 96.390, 2620.0, 51.1859
25.832358606, 96.390, 2655.0, 51.5267
25.858619172, 96.390, 2657.0, 51.5461
25.884879737, 96.390, 2854.0, 53.4228
25.911140302, 96.390, 2902.0, 53.8702
25.937400868, 96.390, 2803.0, 52.9434
25.963661433, 96.390, 2880.0, 53.6656
25.989921998, 96.390, 2696.0, 51.9230
26.016182564, 96.390, 2718.0, 52.1344
26.042443129, 96.390, 2712.0, 52.0769
26.068703694, 96.390, 2672.0, 51.6914
26.094964260, 96.390, 2623.0, 51.2152
26.121224825, 96.390, 2564.0, 50.6360
26.147485390, 96.390, 2520.0, 50.1996
26.173745956, 96.390, 2520.0, 50.1996
26.200006521, 96.390, 2608.0, 51.0686
26.226267087, 96.390, 2600.0, 50.9902
26.252527652, 96.390, 2570.0, 50.6952
26.278788217, 96.390, 2658.0, 51.5558
26.305048783, 96.390, 2674.0, 51.7107
26.331309348, 96.390, 2679.0, 51.7591
26.357569913, 96.390, 2663.0, 51.6043
26.383830479, 96.390, 2692.0, 51.8845
26.410091044, 96.390, 2685.0, 51.8170
26.436351609, 96.390, 2814.0, 53.0471
26.462612175, 96.390, 2741.0, 52.3546
26.488872740, 96.390, 2746.0, 52.4023
26.515133305, 96.390, 2751.0, 52.4500
26.541393871, 96.390, 2693.0, 51.8941
26.567654436, 96.390, 2595.0, 50.9411
26.593915002, 96.390, 2659.0, 51.5655
26.620175567, 96.390, 2646.0, 51.4393
26.646436132, 96.390, 2689.0, 51.8556
26.672696698, 96.390, 2608.0, 51.0686
26.698957263, 96.390, 2623.0, 51.2152
26.725217828, 96.390, 2618.0, 51.1664
26.751478394, 96.390, 2598.0, 50.9706
26.777738959, 96.390, 2662.0, 51.5946
26.803999524, 96.390, 2684.0, 51.8073
26.830260090, 96.390, 2601.0, 51.0000
26.856520655, 96.390, 2633.0, 51.3128
26.882781220, 96.390, 2590.0, 50.8920
26.909041786, 96.390, 2622.0, 51.2055
26.935302351, 96.390, 2728.0, 52.2303
26.961562916, 96.390, 2711.0, 52.0673
26.987823482, 96.390, 2714.0, 52.0961
27.014084047, 96.390, 2889.0, 53.7494
27.040344613, 96.390, 2668.0, 51.6527
27.066605178, 96.390, 2787.0, 52.7920
27.092865743, 96.390, 2857.0, 53.4509
27.119126309, 96.390, 3032.0, 55.0636
27.145386874, 96.390, 3137.0, 56.0089
27.171647439, 96.390, 3635.0, 60.2910
27.197908005, 96.390, 3802.0, 61.6604
27.224168570, 96.390, 4103.0, 64.0547
27.250429135, 96.390, 3955.0, 62.8888
27.276689701, 96.390, 3656.0, 60.4649
27.302950266, 96.390, 3369.0, 58.0431
27.329210831, 96.390, 3196.0, 56.5332
27.355471397, 96.390, 2974.0, 54.5344
27.381731962, 96.390, 2826.0, 53.1601
27.407992528, 96.390, 2763.0, 52.5642
27.434253093, 96.390, 2702.0, 51.9808
27.460513658, 96.390, 2647.0, 51.4490
27.486774224, 96.390, 2568.0, 50.6754
27.513034789, 96.390, 2618.0, 51.1664
27.539295354, 96.390, 2575.0, 50.7445
27.565555920, 96.390, 2538.0, 50.3786
27.591816485, 96.390, 2618.0, 51.1664
27.618077050, 96.390, 2661.0, 51.5849
27.644337616, 96.390, 2551.0, 50.5074
27.670598181, 96.390, 2717.0, 52.1249
27.696858746, 96.390, 2639.0, 51.3712
27.723119312, 96.390, 2748.0, 52.4214
27.749379877, 96.390, 2702.0, 51.9808
27.775640442, 96.390, 2717.0, 52.1249
27.801901008, 96.390, 2728.0, 52.2303
27.828161573, 96.390, 2611.0, 51.0979
27.854422139, 96.390, 2552.0, 50.5173
27.880682704, 96.390, 2635.0, 51.3323
27.906943269, 96.390, 2790.0, 52.8205
27.933203835, 96.390, 2641.0, 51.3907
27.959464400, 96.390, 2683.0, 51.7977
27.985724965, 96.390, 2633.0, 51.3128
28.011985531, 96.390, 2708.0, 52.0384
28.038246096, 96.390, 2596.0, 50.9510
28.064506661, 96.390, 2665.0, 51.6236
28.090767227, 96.390, 2583.0, 50.8232
28.117027792, 96.390, 2604.0, 51.0294
28.143288357, 96.390, 2771.0, 52.6403
28.169548923, 96.390, 2690.0, 51.8652
28.195809488, 96.390, 2739.0, 52.3355
28.222070054, 96.390, 2707.0, 52.0288
28.248330619, 96.390, 2746.0, 52.4023
28.274591184, 96.390, 2749.0, 52.4309
28.300851750, 96.390, 2623.0, 51.2152
28.327112315, 96.390, 2677.0, 51.7397
28.353372880, 96.390, 2586.0, 50.8527
28.379633446, 96.390, 2531.0, 50.3090
28.405894011, 96.390, 2575.0, 50.7445
28.432154576, 96.390, 2578.0, 50.7740
28.458415142, 96.390, 2579.0, 50.7839
28.484675707, 96.390, 2454.0, 49.5379
28.510936272, 96.390, 2502.0, 50.0200
28.537196838, 96.390, 2580.0, 50.7937
28.563457403, 96.390, 2636.0, 51.3420
28.589717968, 96.390, 2507.0, 50.0700
28.615978534, 96.390, 2512.0, 50.1199
28.642239099, 96.390, 2564.0, 50.6360
28.668499665, 96.390, 2523.0, 50.2295
28.694760230, 96.390, 2559.0, 50.5866
28.721020795, 96.390, 2635.0, 51.3323
28.747281361, 96.390, 2708.0, 52.0384
28.773541926, 96.390, 2766.0, 52.5928
28.799802491, 96.390, 2894.0, 53.7959
28.826063057, 96.390, 2865.0, 53.5257
28.852323622, 96.390, 2769.0, 52.6213
28.878584187, 96.390, 2673.0, 51.7011
28.904844753, 96.390, 2649.0, 51.4684
28.931105318, 96.390, 2506.0, 50.0600
28.957365883, 96.390, 2517.0, 50.1697
28.983626449, 96.390, 2667.0, 51.6430
29.009887014, 96.390, 2604.0, 51.0294
29.036147579, 96.390, 2605.0, 51.0392
29.062408145, 96.390, 2667.0, 51.6430
29.088668710, 96.390, 2855.0, 53.4322
29.114929276, 96.390, 2880.0, 53.6656
29.141189841, 96.390, 2995.0, 54.7266
29.167450406, 96.390, 2874.0, 53.6097
29.193710972, 96.390, 2819.0, 53.0943
29.219971537, 96.390, 2783.0, 52.7541
29.246232102, 96.390, 2662.0, 51.5946
29.272492668, 96.390, 2433.0, 49.3254
29.298753233, 96.390, 2498.0, 49.9800
29.325013798, 96.390, 2381.0, 48.7955
29.351274364, 96.390, 2431.0, 49.3052
29.377534929, 96.390, 2418.0, 49.1732
29.403795494, 96.390, 2348.0, 48.4562
29.430056060, 96.390, 2340.0, 48.3735
29.456316625, 96.390, 2419.0, 49.1833
29.482577191, 96.390, 2423.0, 49.2240
29.508837756, 96.390, 2372.0, 48.7032
29.535098321, 96.390, 2340.0, 48.3735
29.561358887, 96.390, 2314.0, 48.1041
29.587619452, 96.390, 2328.0, 48.2494
29.613880017, 96.390, 2358.0, 48.5592
29.640140583, 96.390, 2297.0, 47.9270
29.666401148, 96.390, 2397.0, 48.9592
29.692661713, 96.390, 2377.0, 48.7545
29.718922279, 96.390, 2332.0, 48.2908
29.745182844, 96.390, 2315.0, 48.1144
29.771443409, 96.390, 2350.0, 48.4768
29.797703975, 96.390, 2300.0, 47.9583
29.823964540, 96.390, 2346.0, 48.4355
29.850225105, 96.390, 2272.0, 47.6655
29.876485671, 96.390, 2302.0, 47.9792
29.902746236, 96.390, 2369.0, 48.6724
29.929006802, 96.390, 2266.0, 47.6025
29.955267367, 96.390, 2272.0, 47.6655
29.981527932, 96.390, 2243.0, 47.3603
30.007788498, 96.390, 2239.0, 47.3181
30.034049063, 96.390, 2245.0, 47.3814
30.060309628, 96.390, 2327.0, 48.2390
30.086570194, 96.390, 2253.0, 47.4658
30.112830759, 96.390, 2309.0, 48.0521
30.139091324, 96.390, 2339.0, 48.3632
30.165351890, 96.390, 2257.0, 47.5079
30.191612455, 96.390, 2189.0, 46.7868
30.217873020, 96.390, 2267.0, 47.6130
30.244133586, 96.390, 2251.0, 47.4447
30.270394151, 96.390, 2301.0, 47.9687
30.296654717, 96.390, 2274.0, 47.6865
30.322915282, 96.390, 2411.0, 49.1019
30.349175847, 96.390, 2362.0, 48.6004
30.375436413, 96.390, 2318.0, 48.1456
30.401696978, 96.390, 2407.0, 49.0612
30.427957543, 96.390, 2269.0, 47.6340
30.454218109, 96.390, 2305.0, 48.0104
30.480478674, 96.390, 2265.0, 47.5920
30.506739239, 96.390, 2389.0, 48.8774
30.532999805, 96.390, 2338.0, 48.3529
30.559260370, 96.390, 2428.0, 49.2747
30.585520935, 96.390, 2483.0, 49.8297
30.611781501, 96.390, 2516.0, 50.1597
30.638042066, 96.390, 2668.0, 51.6527
30.664302631, 96.390, 2748.0, 52.4214
30.690563197, 96.390, 2904.0, 53.8888
30.716823762, 96.390, 3048.0, 55.2087
30.743084328, 96.390, 3197.0, 56.5420
30.769344893, 96.390, 3083.0, 55.5248
30.795605458, 96.390, 2998.0, 54.7540
30.821866024, 96.390, 2900.0, 53.8516
30.848126589, 96.390, 2929.0, 54.1202
30.874387154, 96.390, 2818.0, 53.0848
30.900647720, 96.390, 2610.0, 51.0882
30.926908285, 96.390, 2612.0, 51.1077
30.953168850, 96.390, 2484.0, 49.8397
30.979429416, 96.390, 2453.0, 49.5278
31.005689981, 96.390, 2355.0, 48.5283
31.031950546, 96.390, 2351.0, 48.4871
31.058211112, 96.390, 2348.0, 48.4562
31.084471677, 96.390, 2285.0, 47.8017
31.110732243, 96.390, 2453.0, 49.5278
31.136992808, 96.390, 2462.0, 49.6185
31.163253373, 96.390, 2695.0, 51.9134
31.189513939, 96.390, 2956.0, 54.3691
31.215774504, 96.390, 3332.0, 57.7235
31.242035069, 96.390, 3523.0, 59.3549
31.268295635, 96.390, 3568.0, 59.7327
31.294556200, 96.390, 3196.0, 56.5332
31.320816765, 96.390, 2893.0, 53.7866
31.347077331, 96.390, 2814.0, 53.0471
31.373337896, 96.390, 2581.0, 50.8035
31.399598461, 96.390, 2639.0, 51.3712
31.425859027, 96.390, 2452.0, 49.5177
31.452119592, 96.390, 2410.0, 49.0918
31.478380157, 96.390, 2535.0, 50.3488
31.504640723, 96.390, 2607.0, 51.0588
31.530901288, 96.390, 2831.0, 53.2071
31.557161854, 96.390, 2684.0, 51.8073
31.583422419, 96.390, 2641.0, 51.3907
31.609682984, 96.390, 2551.0, 50.5074
31.635943550, 96.390, 2633.0, 51.3128
31.662204115, 96.390, 2696.0, 51.9230
31.688464680, 96.390, 2693.0, 51.8941
31.714725246, 96.390, 2779.0, 52.7162
31.740985811, 96.390, 3468.0, 58.8897
31.767246376, 96.390, 4016.0, 63.3719
31.793506942, 96.390, 3489.0, 59.0678
31.819767507, 96.390, 2778.0, 52.7067
31.846028072, 96.390, 2946.0, 54.2771
31.872288638, 96.390, 2909.0, 53.9351
31.898549203, 96.390, 2399.0, 48.9796
31.924809769, 96.390, 2524.0, 50.2394
31.951070334, 96.390, 2692.0, 51.8845
31.977330899, 96.390, 2952.0, 54.3323
32.003591465, 96.390, 3654.0, 60.4483
32.029852030, 96.390, 4346.0, 65.9242
32.056112595, 96.390, 5353.0, 73.1642
32.082373161, 96.390, 6502.0, 80.6350
32.108633726, 96.390, 7018.0, 83.7735
32.134894291, 96.390, 6170.0, 78.5493
32.161154857, 96.390, 5027.0, 70.9013
32.187415422, 96.390, 4663.0, 68.2862
32.213675987, 96.390, 3709.0, 60.9016
32.239936553, 96.390, 2826.0, 53.1601
32.266197118, 96.390, 2392.0, 48.9081
32.292457683, 96.390, 2246.0, 47.3920
32.318718249, 96.390, 2071.0, 45.5082
32.344978814, 96.390, 2117.0, 46.0109
32.371239380, 96.390, 2081.0, 45.6180
32.397499945, 96.390, 1976.0, 44.4522
32.423760510, 96.390, 2015.0, 44.8888
32.450021076, 96.390, 2041.0, 45.1774
32.476281641, 96.390, 1977.0, 44.4635
32.502542206, 96.390, 1909.0, 43.6921
32.528802772, 96.390, 1946.0, 44.1135
32.555063337, 96.390, 1874.0, 43.2897
32.581323902, 96.390, 1982.0, 44.5197
32.607584468, 96.390, 1952.0, 44.1814
32.633845033, 96.390, 1945.0, 44.1022
32.660105598, 96.390, 2087.0, 45.6837
32.686366164, 96.390, 2265.0, 47.5920
32.712626729, 96.390, 2391.0, 48.8979
32.738887295, 96.390, 2241.0, 47.3392
32.765147860, 96.390, 2165.0, 46.5296
32.791408425, 96.390, 2089.0, 45.7056
32.817668991, 96.390, 2094.0, 45.7602
32.843929556, 96.390, 2031.0, 45.0666
32.870190121, 96.390, 1784.0, 42.2374
32.896450687, 96.390, 1894.0, 43.5201
32.922711252, 96.390, 1901.0, 43.6005
32.948971817, 96.390, 1945.0, 44.1022
32.975232383, 96.390, 1965.0, 44.3283
33.001492948, 96.390, 2158.0, 46.4543
33.027753513, 96.390, 2197.0, 46.8722
33.054014079, 96.390, 2173.0, 46.6154
33.080274644, 96.390, 2319.0, 48.1560
33.106535209, 96.390, 2343.0, 48.4045
33.132795775, 96.390, 2244.0, 47.3709
33.159056340, 96.390, 2360.0, 48.5798
33.185316906, 96.390, 2508.0, 50.0799
33.211577471, 96.390, 2353.0, 48.5077
33.237838036, 96.390, 2216.0, 47.0744
33.264098602, 96.390, 2322.0, 48.1871
33.290359167, 96.390, 2671.0, 51.6817
33.316619732, 96.390, 2791.0, 52.8299
33.342880298, 96.390, 2434.0, 49.3356
33.369140863, 96.390, 2360.0, 48.5798
33.395401428, 96.390, 2529.0, 50.2892
33.421661994, 96.390, 2630.0, 51.2835
33.447922559, 96.390, 2468.0, 49.6790
33.474183124, 96.390, 2528.0, 50.2792
33.500443690, 96.390, 2759.0, 52.5262
33.526704255, 96.390, 2481.0, 49.8096
33.552964820, 96.390, 2222.0, 47.1381
33.579225386, 96.390, 2221.0, 47.1275
33.605485951, 96.390, 2036.0, 45.1221
33.631746517, 96.390, 1873.0, 43.2782
33.658007082, 96.390, 1790.0, 42.3084
33.684267647, 96.390, 1796.0, 42.3792
33.710528213, 96.390, 1752.0, 41.8569
33.736788778, 96.390, 1730.0, 41.5933
33.763049343, 96.390, 1679.0, 40.9756
33.789309909, 96.390, 1803.0, 42.4617
33.815570474, 96.390, 1848.0, 42.9884
33.841831039, 96.390, 1955.0, 44.2154
33.868091605, 96.390, 2038.0, 45.1442
33.894352170, 96.390, 2131.0, 46.1628
33.920612735, 96.390, 2456.0, 49.5580
33.946873301, 96.390, 2852.0, 53.4041
33.973133866, 96.390, 3295.0, 57.4021
33.999394432, 96.390, 3508.0, 59.2284
34.025654997, 96.390, 3250.0, 57.0088
34.051915562, 96.390, 2861.0, 53.4883
34.078176128, 96.390, 2682.0, 51.7880
34.104436693, 96.390, 2520.0, 50.1996
34.130697258, 96.390, 2142.0, 46.2817
34.156957824, 96.390, 1936.0, 44.0000
34.183218389, 96.390, 1833.0, 42.8135
34.209478954, 96.390, 1848.0, 42.9884
34.235739520, 96.390, 1817.0, 42.6263
34.262000085, 96.390, 1881.0, 43.3705
34.288260650, 96.390, 1943.0, 44.0795
34.314521216, 96.390, 1998.0, 44.6990
34.340781781, 96.390, 2054.0, 45.3211
34.367042346, 96.390, 1969.0, 44.3734
34.393302912, 96.390, 1983.0, 44.5309
34.419563477, 96.390, 2136.0, 46.2169
34.445824043, 96.390, 2102.0, 45.8476
34.472084608, 96.390, 2126.0, 46.1086
34.498345173, 96.390, 2196.0, 46.8615
34.524605739, 96.390, 2226.0, 47.1805
34.550866304, 96.390, 2116.0, 46.0000
34.577126869, 96.390, 2098.0, 45.8039
34.603387435, 96.390, 2060.0, 45.3872
34.629648000, 96.390, 2136.0, 46.2169
34.655908565, 96.390, 2067.0, 45.4643
34.682169131, 96.390, 2114.0, 45.9783
34.708429696, 96.390, 2163.0, 46.5081
34.734690261, 96.390, 2136.0, 46.2169
34.760950827, 96.390, 2159.0, 46.4650
34.787211392, 96.390, 2183.0, 46.7226
34.813471958, 96.390, 2129.0, 46.1411
34.839732523, 96.390, 2321.0, 48.1768
34.865993088, 96.390, 2352.0, 48.4974
34.892253654, 96.390, 2780.0, 52.7257
34.918514219, 96.390, 3002.0, 54.7905
34.944774784, 96.390, 3379.0, 58.1292
34.971035350, 96.390, 3580.0, 59.8331
34.997295915, 96.390, 3560.0, 59.6657
35.023556480, 96.390, 3460.0, 58.8218
35.049817046, 96.390, 3200.0, 56.5685
35.076077611, 96.390, 2861.0, 53.4883
35.102338176, 96.390, 2620.0, 51.1859
35.128598742, 96.390, 2280.0, 47.7493
35.154859307, 96.390, 2223.0, 47.1487
35.181119872, 96.390, 2060.0, 45.3872
35.207380438, 96.390, 2003.0, 44.7549
35.233641003, 96.390, 2091.0, 45.7275
35.259901569, 96.390, 2185.0, 46.7440
35.286162134, 96.390, 2292.0, 47.8748
35.312422699, 96.390, 2085.0, 45.6618
35.338683265, 96.390, 1909.0, 43.6921
35.364943830, 96.390, 1994.0, 44.6542
35.391204395, 96.390, 1859.0, 43.1161
35.417464961, 96.390, 1786.0, 42.2611
35.443725526, 96.390, 1717.0, 41.4367
35.469986091, 96.390, 1744.0, 41.7612
35.496246657, 96.390, 1752.0, 41.8569
35.522507222, 96.390, 1721.0, 41.4849
35.548767787, 96.390, 1716.0, 41.4246
35.575028353, 96.390, 1729.0, 41.5812
35.601288918, 96.390, 1680.0, 40.9878
35.627549484, 96.390, 1737.0, 41.6773
35.653810049, 96.390, 1858.0, 43.1045
35.680070614, 96.390, 1886.0, 43.4281
35.706331180, 96.390, 1848.0, 42.9884
35.732591745, 96.390, 1851.0, 43.0232
35.758852310, 96.390, 1798.0, 42.4028
35.785112876, 96.390, 1800.0, 42.4264
35.811373441, 96.390, 1817.0, 42.6263
35.837634006, 96.390, 1817.0, 42.6263
35.863894572, 96.390, 1745.0, 41.7732
35.890155137, 96.390, 1708.0, 41.3280
35.916415702, 96.390, 1747.0, 41.7971
35.942676268, 96.390, 1699.0, 41.2189
35.968936833, 96.390, 1766.0, 42.0238
35.995197398, 96.390, 1834.0, 42.8252
36.021457964, 96.390, 1837.0, 42.8602
36.047718529, 96.390, 1769.0, 42.0595
36.073979095, 96.390, 1770.0, 42.0714
36.100239660, 96.390, 1682.0, 41.0122
36.126500225, 96.390, 1709.0, 41.3401
36.152760791, 96.390, 1695.0, 41.1704
36.179021356, 96.390, 1639.0, 40.4846
36.205281921, 96.390, 1596.0, 39.9500
36.231542487, 96.390, 1653.0, 40.6571
36.257803052, 96.390, 1609.0, 40.1123
36.284063617, 96.390, 1560.0, 39.4968
36.310324183, 96.390, 1527.0, 39.0768
36.336584748, 96.390, 1642.0, 40.5216
36.362845313, 96.390, 1782.0, 42.2137
36.389105879, 96.390, 1862.0, 43.1509
36.415366444, 96.390, 1912.0, 43.7264
36.441627010, 96.390, 1822.0, 42.6849
36.467887575, 96.390, 1742.0, 41.7373
36.494148140, 96.390, 1708.0, 41.3280
36.520408706, 96.390, 1604.0, 40.0500
36.546669271, 96.390, 1656.0, 40.6940
36.572929836, 96.390, 1525.0, 39.0512
36.599190402, 96.390, 1593.0, 39.9124
36.625450967, 96.390, 1428.0, 37.7889
36.651711532, 96.390, 1573.0, 39.6611
36.677972098, 96.390, 1585.0, 39.8121
36.704232663, 96.390, 1649.0, 40.6079
36.730493228, 96.390, 1611.0, 40.1373
36.756753794, 96.390, 1620.0, 40.2492
36.783014359, 96.390, 1516.0, 38.9358
36.809274924, 96.390, 1555.0, 39.4335
36.835535490, 96.390, 1581.0, 39.7618
36.861796055, 96.390, 1570.0, 39.6232
36.888056621, 96.390, 1530.0, 39.1152
36.914317186, 96.390, 1546.0, 39.3192
36.940577751, 96.390, 1578.0, 39.7240
36.966838317, 96.390, 1503.0, 38.7685
36.993098882, 96.390, 1562.0, 39.5221
37.019359447, 96.390, 1557.0, 39.4588
37.045620013, 96.390, 1412.0, 37.5766
37.071880578, 96.390, 1478.0, 38.4448
37.098141143, 96.390, 1460.0, 38.2099
37.124401709, 96.390, 1496.0, 38.6782
37.150662274, 96.390, 1379.0, 37.1349
37.176922839, 96.390, 1490.0, 38.6005
37.203183405, 96.390, 1447.0, 38.0395
37.229443970, 96.390, 1485.0, 38.5357
37.255704535, 96.390, 1482.0, 38.4968
37.281965101, 96.390, 1490.0, 38.6005
37.308225666, 96.390, 1583.0, 39.7869
37.334486232, 96.390, 1604.0, 40.0500
37.360746797, 96.390, 1536.0, 39.1918
37.387007362, 96.390, 1510.0, 38.8587
37.413267928, 96.390, 1455.0, 38.1445
37.439528493, 96.390, 1463.0, 38.2492
37.465789058, 96.390, 1500.0, 38.7298
37.492049624, 96.390, 1455.0, 38.1445
37.518310189, 96.390, 1451.0, 38.0920
37.544570754, 96.390, 1558.0, 39.4715
37.570831320, 96.390, 1458.0, 38.1838
37.597091885, 96.390, 1510.0, 38.8587
37.623352450, 96.390, 1557.0, 39.4588
37.649613016, 96.390, 1547.0, 39.3319
37.675873581, 96.390, 1606.0, 40.0749
37.702134147, 96.390, 1773.0, 42.1070
37.728394712, 96.390, 1795.0, 42.3674
37.754655277, 96.390, 2044.0, 45.2106
37.780915843, 96.390, 2149.0, 46.3573
37.807176408, 96.390, 2010.0, 44.8330
37.833436973, 96.390, 1977.0, 44.4635
37.859697539, 96.390, 1963.0, 44.3058
37.885958104, 96.390, 1837.0, 42.8602
37.912218669, 96.390, 1810.0, 42.5441
37.938479235, 96.390, 1643.0, 40.5339
37.964739800, 96.390, 1653.0, 40.6571
37.991000365, 96.390, 1516.0, 38.9358
38.017260931, 96.390, 1490.0, 38.6005
38.043521496, 96.390, 1405.0, 37.4833
38.069782061, 96.390, 1379.0, 37.1349
38.096042627, 96.390, 1508.0, 38.8330
38.122303192, 96.390, 1505.0, 38.7943
38.148563758, 96.390, 1480.0, 38.4708
38.174824323, 96.390, 1604.0, 40.0500
38.201084888, 96.390, 1689.0, 41.0974
38.227345454, 96.390, 1799.0, 42.4146
38.253606019, 96.390, 1706.0, 41.3038
38.279866584, 96.390, 1688.0, 41.0853
38.306127150, 96.390, 1770.0, 42.0714
38.332387715, 96.390, 1795.0, 42.3674
38.358648280, 96.390, 1768.0, 42.0476
38.384908846, 96.390, 1630.0, 40.3733
38.411169411, 96.390, 1572.0, 39.6485
38.437429976, 96.390, 1508.0, 38.8330
38.463690542, 96.390, 1535.0, 39.1791
38.489951107, 96.390, 1493.0, 38.6394
38.516211673, 96.390, 1417.0, 37.6431
38.542472238, 96.390, 1442.0, 37.9737
38.568732803, 96.390, 1502.0, 38.7556
38.594993369, 96.390, 1388.0, 37.2559
38.621253934, 96.390, 1434.0, 37.8682
38.647514499, 96.390, 1475.0, 38.4057
38.673775065, 96.390, 1437.0, 37.9078
38.700035630, 96.390, 1519.0, 38.9744
38.726296195, 96.390, 1579.0, 39.7366
38.752556761, 96.390, 1681.0, 41.0000
38.778817326, 96.390, 1817.0, 42.6263
38.805077891, 96.390, 1951.0, 44.1701
38.831338457, 96.390, 1876.0, 43.3128
38.857599022, 96.390, 1691.0, 41.1218
38.883859587, 96.390, 1613.0, 40.1622
38.910120153, 96.390, 1640.0, 40.4969
38.936380718, 96.390, 1572.0, 39.6485
38.962641284, 96.390, 1482.0, 38.4968
38.988901849, 96.390, 1479.0, 38.4578
39.015162414, 96.390, 1431.0, 37.8286
39.041422980, 96.390, 1356.0, 36.8239
39.067683545, 96.390, 1374.0, 37.0675
39.093944110, 96.390, 1362.0, 36.9053
39.120204676, 96.390, 1261.0, 35.5106
39.146465241, 96.390, 1362.0, 36.9053
39.172725806, 96.390, 1348.0, 36.7151
39.198986372, 96.390, 1385.0, 37.2156
39.225246937, 96.390, 1452.0, 38.1051
39.251507502, 96.390, 1470.0, 38.3406
39.277768068, 96.390, 1519.0, 38.9744
39.304028633, 96.390, 1470.0, 38.3406
39.330289199, 96.390, 1579.0, 39.7366
39.356549764, 96.390, 1541.0, 39.2556
39.382810329, 96.390, 1663.0, 40.7799
39.409070895, 96.390, 1772.0, 42.0951
39.435331460, 96.390, 1984.0, 44.5421
39.461592025, 96.390, 2128.0, 46.1303
39.487852591, 96.390, 1986.0, 44.5646
39.514113156, 96.390, 1877.0, 43.3244
39.540373721, 96.390, 1741.0, 41.7253
39.566634287, 96.390, 1753.0, 41.8688
39.592894852, 96.390, 1621.0, 40.2616
39.619155417, 96.390, 1485.0, 38.5357
39.645415983, 96.390, 1491.0, 38.6135
39.671676548, 96.390, 1460.0, 38.2099
39.697937113, 96.390, 1433.0, 37.8550
39.724197679, 96.390, 1431.0, 37.8286
39.750458244, 96.390, 1519.0, 38.9744
39.776718810, 96.390, 1373.0, 37.0540
39.802979375, 96.390, 1502.0, 38.7556
39.829239940, 96.390, 1468.0, 38.3145
39.855500506, 96.390, 1634.0, 40.4228
39.881761071, 96.390, 1494.0, 38.6523
39.908021636, 96.390, 1469.0, 38.3275
39.934282202, 96.390, 1435.0, 37.8814
39.960542767, 96.390, 1414.0, 37.6032
39.986803332, 96.390, 1511.0, 38.8716
40.013063898, 96.390, 1417.0, 37.6431
40.039324463, 96.390, 1432.0, 37.8418
40.065585028, 96.390, 1434.0, 37.8682
40.091845594, 96.390, 1448.0, 38.0526
40.118106159, 96.390, 1499.0, 38.7169
40.144366725, 96.390, 1554.0, 39.4208
40.170627290, 96.390, 1488.0, 38.5746
40.196887855, 96.390, 1458.0, 38.1838
40.223148421, 96.390, 1449.0, 38.0657
40.249408986, 96.390, 1481.0, 38.4838
40.275669551, 96.390, 1420.0, 37.6829
40.301930117, 96.390, 1393.0, 37.3229
40.328190682, 96.390, 1295.0, 35.9861
40.354451247, 96.390, 1298.0, 36.0278
40.380711813, 96.390, 1288.0, 35.8887
40.406972378, 96.390, 1331.0, 36.4829
40.433232943, 96.390, 1315.0, 36.2629
40.459493509, 96.390, 1248.0, 35.3270
40.485754074, 96.390, 1273.0, 35.6791
40.512014639, 96.390, 1306.0, 36.1386
40.538275205, 96.390, 1394.0, 37.3363
40.564535770, 96.390, 1387.0, 37.2424
40.590796336, 96.390, 1450.0, 38.0789
40.617056901, 96.390, 1486.0, 38.5487
40.643317466, 96.390, 1576.0, 39.6989
40.669578032, 96.390, 1455.0, 38.1445
40.695838597, 96.390, 1434.0, 37.8682
40.722099162, 96.390, 1380.0, 37.1484
40.748359728, 96.390, 1371.0, 37.0270
40.774620293, 96.390, 1279.0, 35.7631
40.800880858, 96.390, 1295.0, 35.9861
40.827141424, 96.390, 1278.0, 35.7491
40.853401989, 96.390, 1217.0, 34.8855
40.879662554, 96.390, 1213.0, 34.8281
40.905923120, 96.390, 1232.0, 35.0999
40.932183685, 96.390, 1227.0, 35.0286
40.958444251, 96.390, 1263.0, 35.5387
40.984704816, 96.390, 1221.0, 34.9428
41.010965381, 96.390, 1322.0, 36.3593
41.037225947, 96.390, 1305.0, 36.1248
41.063486512, 96.390, 1280.0, 35.7771
41.089747077, 96.390, 1256.0, 35.4401
41.116007643, 96.390, 1310.0, 36.1939
41.142268208, 96.390, 1263.0, 35.5387
41.168528773, 96.390, 1290.0, 35.9166
41.194789339, 96.390, 1272.0, 35.6651
41.221049904, 96.390, 1295.0, 35.9861
41.247310469, 96.390, 1310.0, 36.1939
41.273571035, 96.390, 1289.0, 35.9026
41.299831600, 96.390, 1344.0, 36.6606
41.326092165, 96.390, 1560.0, 39.4968
41.352352731, 96.390, 1621.0, 40.2616
41.378613296, 96.390, 1872.0, 43.2666
41.404873862, 96.390, 2008.0, 44.8107
41.431134427, 96.390, 2055.0, 45.3321
41.457394992, 96.390, 1952.0, 44.1814
41.483655558, 96.390, 1822.0, 42.6849
41.509916123, 96.390, 1727.0, 41.5572
41.536176688, 96.390, 1651.0, 40.6325
41.562437254, 96.390, 1563.0, 39.5348
41.588697819, 96.390, 1401.0, 37.4299
41.614958384, 96.390, 1352.0, 36.7696
41.641218950, 96.390, 1248.0, 35.3270
41.667479515, 96.390, 1235.0, 35.1426
41.693740080, 96.390, 1217.0, 34.8855
41.720000646, 96.390, 1235.0, 35.1426
41.746261211, 96.390, 1216.0, 34.8712
41.772521776, 96.390, 1214.0, 34.8425
41.798782342, 96.390, 1242.0, 35.2420
41.825042907, 96.390, 1147.0, 33.8674
41.851303473, 96.390, 1185.0, 34.4238
41.877564038, 96.390, 1237.0, 35.1710
41.903824603, 96.390, 1230.0, 35.0714
41.930085169, 96.390, 1181.0, 34.3657
41.956345734, 96.390, 1163.0, 34.1028
41.982606299, 96.390, 1259.0, 35.4824
42.008866865, 96.390, 1205.0, 34.7131
42.035127430, 96.390, 1192.0, 34.5254
42.061387995, 96.390, 1244.0, 35.2704
42.087648561, 96.390, 1346.0, 36.6879
42.113909126, 96.390, 1362.0, 36.9053
42.140169691, 96.390, 1517.0, 38.9487
42.166430257, 96.390, 1651.0, 40.6325
42.192690822, 96.390, 1549.0, 39.3573
42.218951388, 96.390, 1511.0, 38.8716
42.245211953, 96.390, 1479.0, 38.4578
42.271472518, 96.390, 1499.0, 38.7169
42.297733084, 96.390, 1490.0, 38.6005
42.323993649, 96.390, 1373.0, 37.0540
42.350254214, 96.390, 1386.0, 37.2290
42.376514780, 96.390, 1340.0, 36.6060
42.402775345, 96.390, 1247.0, 35.3129
42.429035910, 96.390, 1300.0, 36.0555
42.455296476, 96.390, 1263.0, 35.5387
42.481557041, 96.390, 1309.0, 36.1801
42.507817606, 96.390, 1281.0, 35.7911
42.534078172, 96.390, 1386.0, 37.2290
42.560338737, 96.390, 1472.0, 38.3667
42.586599302, 96.390, 1459.0, 38.1969
42.612859868, 96.390, 1496.0, 38.6782
42.639120433, 96.390, 1512.0, 38.8844
42.665380999, 96.390, 1418.0, 37.6563
42.691641564, 96.390, 1402.0, 37.4433
42.717902129, 96.390, 1363.0, 36.9188
42.744162695, 96.390, 1421.0, 37.6962
42.770423260, 96.390, 1346.0, 36.6879
42.796683825, 96.390, 1272.0, 35.6651
42.822944391, 96.390, 1232.0, 35.0999
42.849204956, 96.390, 1218.0, 34.8999
42.875465521, 96.390, 1274.0, 35.6931
42.901726087, 96.390, 1297.0, 36.0139
42.927986652, 96.390, 1281.0, 35.7911
42.954247217, 96.390, 1283.0, 35.8190
42.980507783, 96.390, 1230.0, 35.0714
43.006768348, 96.390, 1270.0, 35.6371
43.033028914, 96.390, 1274.0, 35.6931
43.059289479, 96.390, 1233.0, 35.1141
43.085550044, 96.390, 1194.0, 34.5543
43.111810610, 96.390, 1168.0, 34.1760
43.138071175, 96.390, 1213.0, 34.8281
43.164331740, 96.390, 1143.0, 33.8083
43.190592306, 96.390, 1201.0, 34.6554
43.216852871, 96.390, 1133.0, 33.6601
43.243113436, 96.390, 1141.0, 33.7787
43.269374002, 96.390, 1196.0, 34.5832
43.295634567, 96.390, 1196.0, 34.5832
43.321895132, 96.390, 1205.0, 34.7131
43.348155698, 96.390, 1239.0, 35.1994
43.374416263, 96.390, 1166.0, 34.1467
43.400676828, 96.390, 1224.0, 34.9857
43.426937394, 96.390, 1221.0, 34.9428
43.453197959, 96.390, 1209.0, 34.7707
43.479458525, 96.390, 1151.0, 33.9264
43.505719090, 96.390, 1144.0, 33.8231
43.531979655, 96.390, 1169.0, 34.1906
43.558240221, 96.390, 1168.0, 34.1760
43.584500786, 96.390, 1146.0, 33.8526
43.610761351, 96.390, 1238.0, 35.1852
43.637021917, 96.390, 1215.0, 34.8569
43.663282482, 96.390, 1307.0, 36.1525
43.689543047, 96.390, 1394.0, 37.3363
43.715803613, 96.390, 1498.0, 38.7040
43.742064178, 96.390, 1663.0, 40.7799
43.768324743, 96.390, 1856.0, 43.0813
43.794585309, 96.390, 1973.0, 44.4185
43.820845874, 96.390, 1916.0, 43.7721
43.847106440, 96.390, 1728.0, 41.5692
43.873367005, 96.390, 1708.0, 41.3280
43.899627570, 96.390, 1737.0, 41.6773
43.925888136, 96.390, 1677.0, 40.9512
43.952148701, 96.390, 1535.0, 39.1791
43.978409266, 96.390, 1367.0, 36.9730
44.004669832, 96.390, 1301.0, 36.0694
44.030930397, 96.390, 1230.0, 35.0714
44.057190962, 96.390, 1224.0, 34.9857
44.083451528, 96.390, 1323.0, 36.3731
44.109712093, 96.390, 1237.0, 35.1710
44.135972658, 96.390, 1189.0, 34.4819
44.162233224, 96.390, 1196.0, 34.5832
44.188493789, 96.390, 1245.0, 35.2846
44.214754354, 96.390, 1241.0, 35.2278
44.241014920, 96.390, 1334.0, 36.5240
44.267275485, 96.390, 1481.0, 38.4838
44.293536051, 96.390, 1407.0, 37.5100
44.319796616, 96.390, 1376.0, 37.0945
44.346057181, 96.390, 1393.0, 37.3229
44.372317747, 96.390, 1572.0, 39.6485
44.398578312, 96.390, 1636.0, 40.4475
44.424838877, 96.390, 1643.0, 40.5339
44.451099443, 96.390, 1693.0, 41.1461
44.477360008, 96.390, 1628.0, 40.3485
44.503620573, 96.390, 1555.0, 39.4335
44.529881139, 96.390, 1468.0, 38.3145
44.556141704, 96.390, 1402.0, 37.4433
44.582402269, 96.390, 1357.0, 36.8375
44.608662835, 96.390, 1408.0, 37.5233
44.634923400, 96.390, 1367.0, 36.9730
44.661183966, 96.390, 1242.0, 35.2420
44.687444531, 96.390, 1295.0, 35.9861
44.713705096, 96.390, 1253.0, 35.3977
44.739965662, 96.390, 1286.0, 35.8608
44.766226227, 96.390, 1330.0, 36.4692
44.792486792, 96.390, 1259.0, 35.4824
44.818747358, 96.390, 1368.0, 36.9865
44.845007923, 96.390, 1330.0, 36.4692
44.871268488, 96.390, 1348.0, 36.7151
44.897529054, 96.390, 1431.0, 37.8286
44.923789619, 96.390, 1344.0, 36.6606
44.950050184, 96.390, 1346.0, 36.6879
44.976310750, 96.390, 1365.0, 36.9459
45.002571315, 96.390, 1319.0, 36.3180
45.028831880, 96.390, 1314.0, 36.2491
45.055092446, 96.390, 1403.0, 37.4566
45.081353011, 96.390, 1435.0, 37.8814
45.107613577, 96.390, 1560.0, 39.4968
45.133874142, 96.390, 1668.0, 40.8412
45.160134707, 96.390, 1652.0, 40.6448
45.186395273, 96.390, 1673.0, 40.9023
45.212655838, 96.390, 1557.0, 39.4588
45.238916403, 96.390, 1602.0, 40.0250
45.265176969, 96.390, 1555.0, 39.4335
45.291437534, 96.390, 1527.0, 39.0768
45.317698099, 96.390, 1634.0, 40.4228
45.343958665, 96.390, 1607.0, 40.0874
45.370219230, 96.390, 1609.0, 40.1123
45.396479795, 96.390, 1525.0, 39.0512
45.422740361, 96.390, 1557.0, 39.4588
45.449000926, 96.390, 1581.0, 39.7618
45.475261492, 96.390, 1705.0, 41.2916
45.501522057, 96.390, 1729.0, 41.5812
45.527782622, 96.390, 1661.0, 40.7554
45.554043188, 96.390, 1558.0, 39.4715
45.580303753, 96.390, 1475.0, 38.4057
45.606564318, 96.390, 1456.0, 38.1576
45.632824884, 96.390, 1449.0, 38.0657
45.659085449, 96.390, 1330.0, 36.4692
45.685346014, 96.390, 1363.0, 36.9188
45.711606580, 96.390, 1358.0, 36.8511
45.737867145, 96.390, 1304.0, 36.1109
45.764127710, 96.390, 1357.0, 36.8375
45.790388276, 96.390, 1268.0, 35.6090
45.816648841, 96.390, 1268.0, 35.6090
45.842909406, 96.390, 1259.0, 35.4824
45.869169972, 96.390, 1248.0, 35.3270
45.895430537, 96.390, 1271.0, 35.6511
45.921691103, 96.390, 1202.0, 34.6699
45.947951668, 96.390, 1112.0, 33.3467
45.974212233, 96.390, 1199.0, 34.6266
46.000472799, 96.390, 1149.0, 33.8969
46.026733364, 96.390, 1279.0, 35.7631
46.052993929, 96.390, 1205.0, 34.7131
46.079254495, 96.390, 1235.0, 35.1426
46.105515060, 96.390, 1300.0, 36.0555
46.131775625, 96.390, 1293.0, 35.9583
46.158036191, 96.390, 1353.0, 36.7831
46.184296756, 96.390, 1405.0, 37.4833
46.210557321, 96.390, 1500.0, 38.7298
46.236817887, 96.390, 1501.0, 38.7427
46.263078452, 96.390, 1569.0, 39.6106
46.289339017, 96.390, 1584.0, 39.7995
46.315599583, 96.390, 1660.0, 40.7431
46.341860148, 96.390, 1610.0, 40.1248
46.368120714, 96.390, 1503.0, 38.7685
46.394381279, 96.390, 1430.0, 37.8153
46.420641844, 96.390, 1453.0, 38.1182
46.446902410, 96.390, 1542.0, 39.2683
46.473162975, 96.390, 1457.0, 38.1707
46.499423540, 96.390, 1391.0, 37.2961
46.525684106, 96.390, 1363.0, 36.9188
46.551944671, 96.390, 1272.0, 35.6651
46.578205236, 96.390, 1284.0, 35.8329
46.604465802, 96.390, 1305.0, 36.1248
46.630726367, 96.390, 1261.0, 35.5106
46.656986932, 96.390, 1241.0, 35.2278
46.683247498, 96.390, 1344.0, 36.6606
46.709508063, 96.390, 1345.0, 36.6742
46.735768629, 96.390, 1304.0, 36.1109
46.762029194, 96.390, 1292.0, 35.9444
46.788289759, 96.390, 1288.0, 35.8887
46.814550325, 96.390, 1296.0, 36.0000
46.840810890, 96.390, 1310.0, 36.1939
46.867071455, 96.390, 1279.0, 35.7631
46.893332021, 96.390, 1299.0, 36.0416
46.919592586, 96.390, 1273.0, 35.6791
46.945853151, 96.390, 1381.0, 37.1618
46.972113717, 96.390, 1404.0, 37.4700
46.998374282, 96.390, 1420.0, 37.6829
47.024634847, 96.390, 1420.0, 37.6829
47.050895413, 96.390, 1436.0, 37.8946
47.077155978, 96.390, 1417.0, 37.6431
47.103416543, 96.390, 1332.0, 36.4966
47.129677109, 96.390, 1277.0, 35.7351
47.155937674, 96.390, 1268.0, 35.6090
47.182198240, 96.390, 1321.0, 36.3456
47.208458805, 96.390, 1213.0, 34.8281
47.234719370, 96.390, 1201.0, 34.6554
47.260979936, 96.390, 1210.0, 34.7851
47.287240501, 96.390, 1232.0, 35.0999
47.313501066, 96.390, 1170.0, 34.2053
47.339761632, 96.390, 1248.0, 35.3270
47.366022197, 96.390, 1194.0, 34.5543
47.392282762, 96.390, 1134.0, 33.6749
47.418543328, 96.390, 1127.0, 33.5708
47.444803893, 96.390, 1159.0, 34.0441
47.471064458, 96.390, 1179.0, 34.3366
47.497325024, 96.390, 1211.0, 34.7994
47.523585589, 96.390, 1167.0, 34.1614
47.549846155, 96.390, 1199.0, 34.6266
47.576106720, 96.390, 1195.0, 34.5688
47.602367285, 96.390, 1241.0, 35.2278
47.628627851, 96.390, 1148.0, 33.8821
47.654888416, 96.390, 1153.0, 33.9559
47.681148981, 96.390, 1109.0, 33.3017
47.707409547, 96.390, 1129.0, 33.6006
47.733670112, 96.390, 1164.0, 34.1174
47.759930677, 96.390, 1215.0, 34.8569
47.786191243, 96.390, 1100.0, 33.1662
47.812451808, 96.390, 1121.0, 33.4813
47.838712373, 96.390, 1092.0, 33.0454
47.864972939, 96.390, 1103.0, 33.2114
47.891233504, 96.390, 1134.0, 33.6749
47.917494069, 96.390, 1122.0, 33.4963
47.943754635, 96.390, 1163.0, 34.1028
47.970015200, 96.390, 1165.0, 34.1321
47.996275766, 96.390, 1151.0, 33.9264
48.022536331, 96.390, 1231.0, 35.0856
48.048796896, 96.390, 1160.0, 34.0588
48.075057462, 96.390, 1268.0, 35.6090
48.101318027, 96.390, 1299.0, 36.0416
48.127578592, 96.390, 1314.0, 36.2491
48.153839158, 96.390, 1366.0, 36.9594
48.180099723, 96.390, 1434.0, 37.8682
48.206360288, 96.390, 1368.0, 36.9865
48.232620854, 96.390, 1288.0, 35.8887
48.258881419, 96.390, 1250.0, 35.3553
48.285141984, 96.390, 1277.0, 35.7351
48.311402550, 96.390, 1266.0, 35.5809
48.337663115, 96.390, 1189.0, 34.4819
48.363923681, 96.390, 1150.0, 33.9116
48.390184246, 96.390, 1156.0, 34.0000
48.416444811, 96.390, 1210.0, 34.7851
48.442705377, 96.390, 1198.0, 34.6121
48.468965942, 96.390, 1270.0, 35.6371
48.495226507, 96.390, 1360.0, 36.8782
48.521487073, 96.390, 1430.0, 37.8153
48.547747638, 96.390, 1410.0, 37.5500
48.574008203, 96.390, 1366.0, 36.9594
48.600268769, 96.390, 1341.0, 36.6197
48.626529334, 96.390, 1257.0, 35.4542
48.652789899, 96.390, 1326.0, 36.4143
48.679050465, 96.390, 1270.0, 35.6371
48.705311030, 96.390, 1251.0, 35.3695
48.731571595, 96.390, 1233.0, 35.1141
48.757832161, 96.390, 1191.0, 34.5109
48.784092726, 96.390, 1086.0, 32.9545
48.810353292, 96.390, 1093.0, 33.0606
48.836613857, 96.390, 1053.0, 32.4500
48.862874422, 96.390, 1125.0, 33.5410
48.889134988, 96.390, 1055.0, 32.4808
48.915395553, 96.390, 1113.0, 33.3617
48.941656118, 96.390, 1036.0, 32.1870
48.967916684, 96.390, 1065.0, 32.6343
48.994177249, 96.390, 1066.0, 32.6497
49.020437814, 96.390, 1018.0, 31.9061
49.046698380, 96.390, 1072.0, 32.7414
49.072958945, 96.390, 1090.0, 33.0151
49.099219510, 96.390, 1074.0, 32.7719
49.125480076, 96.390, 1067.0, 32.6650
49.151740641, 96.390, 1037.0, 32.2025
49.178001207, 96.390, 1058.0, 32.5269
49.204261772, 96.390, 1068.0, 32.6803
49.230522337, 96.390, 1116.0, 33.4066
49.256782903, 96.390, 1103.0, 33.2114
49.283043468, 96.390, 1108.0, 33.2866
49.309304033, 96.390, 1081.0, 32.8786
49.335564599, 96.390, 1082.0, 32.8938
49.361825164, 96.390, 1002.0, 31.6544
49.388085729, 96.390, 1054.0, 32.4654
49.414346295, 96.390, 1050.0, 32.4037
49.440606860, 96.390, 1109.0, 33.3017
49.466867425, 96.390, 1108.0, 33.2866
49.493127991, 96.390, 1063.0, 32.6037
49.519388556, 96.390, 1047.0, 32.3574
49.545649121, 96.390, 1158.0, 34.0294
49.571909687, 96.390, 1131.0, 33.6303
49.598170252, 96.390, 1166.0, 34.1467
49.624430818, 96.390, 1129.0, 33.6006
49.650691383, 96.390, 1160.0, 34.0588
49.676951948, 96.390, 1153.0, 33.9559
49.703212514, 96.390, 1140.0, 33.7639
49.729473079, 96.390, 1176.0, 34.2929
49.755733644, 96.390, 1097.0, 33.1210
49.781994210, 96.390, 1136.0, 33.7046
49.808254775, 96.390, 1129.0, 33.6006
49.834515340, 96.390, 1169.0, 34.1906
49.860775906, 96.390, 1112.0, 33.3467
49.887036471, 96.390, 1069.0, 32.6956
49.913297036, 96.390, 1066.0, 32.6497
49.939557602, 96.390, 1071.0, 32.7261
49.965818167, 96.390, 1032.0, 32.1248
49.992078732, 96.390, 1010.0, 31.7805
50.018339298, 96.390, 1012.0, 31.8119
50.044599863, 96.390, 1090.0, 33.0151
50.070860429, 96.390, 1051.0, 32.4191
50.097120994, 96.390, 1004.0, 31.6860
50.123381559, 96.390, 1065.0, 32.6343
50.149642125, 96.390, 1068.0, 32.6803
50.175902690, 96.390, 1097.0, 33.1210
50.202163255, 96.390, 1165.0, 34.1321
50.228423821, 96.390, 1247.0, 35.3129
50.254684386, 96.390, 1302.0, 36.0832
50.280944951, 96.390, 1380.0, 37.1484
50.307205517, 96.390, 1339.0, 36.5923
50.333466082, 96.390, 1210.0, 34.7851
50.359726647, 96.390, 1230.0, 35.0714
50.385987213, 96.390, 1202.0, 34.6699
50.412247778, 96.390, 1189.0, 34.4819
50.438508344, 96.390, 1162.0, 34.0881
50.464768909, 96.390, 1148.0, 33.8821
50.491029474, 96.390, 1072.0, 32.7414
50.517290040, 96.390, 1074.0, 32.7719
50.543550605, 96.390, 1083.0, 32.9090
50.569811170, 96.390, 1061.0, 32.5730
50.596071736, 96.390, 1036.0, 32.1870
50.622332301, 96.390, 1029.0, 32.0780
50.648592866, 96.390, 1001.0, 31.6386
50.674853432, 96.390, 1009.0, 31.7648
50.701113997, 96.390, 1021.0, 31.9531
50.727374562, 96.390, 907.0, 30.1164
50.753635128, 96.390, 1009.0, 31.7648
50.779895693, 96.390, 1015.0, 31.8591
50.806156258, 96.390, 1007.0, 31.7333
50.832416824, 96.390, 977.0, 31.2570
50.858677389, 96.390, 1027.0, 32.0468
50.884937955, 96.390, 1062.0, 32.5883
50.911198520, 96.390, 1031.0, 32.1092
50.937459085, 96.390, 964.0, 31.0483
50.963719651, 96.390, 994.0, 31.5278
50.989980216, 96.390, 1034.0, 32.1559
51.016240781, 96.390, 1075.0, 32.7872
51.042501347, 96.390, 962.0, 31.0161
51.068761912, 96.390, 1074.0, 32.7719
51.095022477, 96.390, 1008.0, 31.7490
51.121283043, 96.390, 1094.0, 33.0757
51.147543608, 96.390, 1099.0, 33.1512
51.173804173, 96.390, 1086.0, 32.9545
51.200064739, 96.390, 1087.0, 32.9697
51.226325304, 96.390, 1182.0, 34.3802
51.252585870, 96.390, 1149.0, 33.8969
51.278846435, 96.390, 1170.0, 34.2053
51.305107000, 96.390, 1145.0, 33.8378
51.331367566, 96.390, 1118.0, 33.4365
51.357628131, 96.390, 1120.0, 33.4664
51.383888696, 96.390, 1113.0, 33.3617
51.410149262, 96.390, 1096.0, 33.1059
51.436409827, 96.390, 1080.0, 32.8634
51.462670392, 96.390, 1031.0, 32.1092
51.488930958, 96.390, 1064.0, 32.6190
51.515191523, 96.390, 1023.0, 31.9844
51.541452088, 96.390, 988.0, 31.4325
51.567712654, 96.390, 977.0, 31.2570
51.593973219, 96.390, 971.0, 31.1609
51.620233784, 96.390, 934.0, 30.5614
51.646494350, 96.390, 964.0, 31.0483
51.672754915, 96.390, 943.0, 30.7083
51.699015481, 96.390, 969.0, 31.1288
51.725276046, 96.390, 1015.0, 31.8591
51.751536611, 96.390, 1001.0, 31.6386
51.777797177, 96.390, 1095.0, 33.0908
51.804057742, 96.390, 1062.0, 32.5883
51.830318307, 96.390, 1051.0, 32.4191
51.856578873, 96.390, 1011.0, 31.7962
51.882839438, 96.390, 951.0, 30.8383
51.909100003, 96.390, 1009.0, 31.7648
51.935360569, 96.390, 1037.0, 32.2025
51.961621134, 96.390, 1015.0, 31.8591
51.987881699, 96.390, 1045.0, 32.3265
52.014142265, 96.390, 1100.0, 33.1662
52.040402830, 96.390, 1019.0, 31.9218
52.066663396, 96.390, 1013.0, 31.8277
52.092923961, 96.390, 1010.0, 31.7805
52.119184526, 96.390, 1052.0, 32.4345
52.145445092, 96.390, 1127.0, 33.5708
52.171705657, 96.390, 1173.0, 34.2491
52.197966222, 96.390, 1262.0, 35.5246
52.224226788, 96.390, 1313.0, 36.2353
52.250487353, 96.390, 1332.0, 36.4966
52.276747918, 96.390, 1318.0, 36.3043
52.303008484, 96.390, 1383.0, 37.1887
52.329269049, 96.390, 1331.0, 36.4829
52.355529614, 96.390, 1352.0, 36.7696
52.381790180, 96.390, 1237.0, 35.1710
52.408050745, 96.390, 1221.0, 34.9428
52.434311310, 96.390, 1212.0, 34.8138
52.460571876, 96.390, 1169.0, 34.1906
52.486832441, 96.390, 1092.0, 33.0454
52.513093007, 96.390, 1013.0, 31.8277
52.539353572, 96.390, 1020.0, 31.9374
52.565614137, 96.390, 978.0, 31.2730
52.591874703, 96.390, 973.0, 31.1929
52.618135268, 96.390, 1024.0, 32.0000
52.644395833, 96.390, 1007.0, 31.7333
52.670656399, 96.390, 1056.0, 32.4962
52.696916964, 96.390, 1073.0, 32.7567
52.723177529, 96.390, 1156.0, 34.0000
52.749438095, 96.390, 1138.0, 33.7343
52.775698660, 96.390, 1144.0, 33.8231
52.801959225, 96.390, 1105.0, 33.2415
52.828219791, 96.390, 1128.0, 33.5857
52.854480356, 96.390, 1185.0, 34.4238
52.880740922, 96.390, 1249.0, 35.3412
52.907001487, 96.390, 1183.0, 34.3948
52.933262052, 96.390, 1221.0, 34.9428
52.959522618, 96.390, 1121.0, 33.4813
52.985783183, 96.390, 1036.0, 32.1870
53.012043748, 96.390, 1041.0, 32.2645
53.038304314, 96.390, 1045.0, 32.3265
53.064564879, 96.390, 1038.0, 32.2180
53.090825444, 96.390, 1036.0, 32.1870
53.117086010, 96.390, 1039.0, 32.2335
53.143346575, 96.390, 1089.0, 33.0000
53.169607140, 96.390, 1124.0, 33.5261
53.195867706, 96.390, 1117.0, 33.4215
53.222128271, 96.390, 1141.0, 33.7787
53.248388836, 96.390, 1269.0, 35.6230
53.274649402, 96.390, 1187.0, 34.4529
53.300909967, 96.390, 1029.0, 32.0780
53.327170533, 96.390, 1114.0, 33.3766
53.353431098, 96.390, 1067.0, 32.6650
53.379691663, 96.390, 1107.0, 33.2716
53.405952229, 96.390, 1169.0, 34.1906
53.432212794, 96.390, 1034.0, 32.1559
53.458473359, 96.390, 1030.0, 32.0936
53.484733925, 96.390, 1047.0, 32.3574
53.510994490, 96.390, 1065.0, 32.6343
53.537255055, 96.390, 1066.0, 32.6497
53.563515621, 96.390, 1016.0, 31.8748
53.589776186, 96.390, 958.0, 30.9516
53.616036751, 96.390, 985.0, 31.3847
53.642297317, 96.390, 944.0, 30.7246
53.668557882, 96.390, 967.0, 31.0966
53.694818448, 96.390, 917.0, 30.2820
53.721079013, 96.390, 948.0, 30.7896
53.747339578, 96.390, 952.0, 30.8545
53.773600144, 96.390, 872.0, 29.5296
53.799860709, 96.390, 947.0, 30.7734
53.826121274, 96.390, 948.0, 30.7896
53.852381840, 96.390, 955.0, 30.9031
53.878642405, 96.390, 945.0, 30.7409
53.904902970, 96.390, 973.0, 31.1929
53.931163536, 96.390, 946.0, 30.7571
53.957424101, 96.390, 946.0, 30.7571
53.983684666, 96.390, 981.0, 31.3209
54.009945232, 96.390, 971.0, 31.1609
54.036205797, 96.390, 1022.0, 31.9687
54.062466362, 96.390, 1019.0, 31.9218
54.088726928, 96.390, 1016.0, 31.8748
54.114987493, 96.390, 1089.0, 33.0000
54.141248059, 96.390, 1153.0, 33.9559
54.167508624, 96.390, 1177.0, 34.3074
54.193769189, 96.390, 1164.0, 34.1174
54.220029755, 96.390, 1162.0, 34.0881
54.246290320, 96.390, 1149.0, 33.8969
54.272550885, 96.390, 1092.0, 33.0454
54.298811451, 96.390, 1157.0, 34.0147
54.325072016, 96.390, 1122.0, 33.4963
54.351332581, 96.390, 1083.0, 32.9090
54.377593147, 96.390, 1149.0, 33.8969
54.403853712, 96.390, 1136.0, 33.7046
54.430114277, 96.390, 1031.0, 32.1092
54.456374843, 96.390, 1091.0, 33.0303
54.482635408, 96.390, 990.0, 31.4643
54.508895973, 96.390, 1030.0, 32.0936
54.535156539, 96.390, 1026.0, 32.0312
54.561417104, 96.390, 1062.0, 32.5883
54.587677670, 96.390, 1036.0, 32.1870
54.613938235, 96.390, 990.0, 31.4643
54.640198800, 96.390, 999.0, 31.6070
54.666459366, 96.390, 1024.0, 32.0000
54.692719931, 96.390, 938.0, 30.6268
54.718980496, 96.390, 901.0, 30.0167
54.745241062, 96.390, 944.0, 30.7246
54.771501627, 96.390, 895.0, 29.9166
54.797762192, 96.390, 965.0, 31.0644
54.824022758, 96.390, 909.0, 30.1496
54.850283323, 96.390, 902.0, 30.0333
54.876543888, 96.390, 890.0, 29.8329
54.902804454, 96.390, 943.0, 30.7083
54.929065019, 96.390, 915.0, 30.2490
54.955325585, 96.390, 907.0, 30.1164
54.981586150, 96.390, 925.0, 30.4138
55.007846715, 96.390, 965.0, 31.0644
55.034107281, 96.390, 990.0, 31.4643
55.060367846, 96.390, 948.0, 30.7896
55.086628411, 96.390, 946.0, 30.7571
55.112888977, 96.390, 884.0, 29.7321
55.139149542, 96.390, 938.0, 30.6268
55.165410107, 96.390, 918.0, 30.2985
55.191670673, 96.390, 907.0, 30.1164
55.217931238, 96.390, 852.0, 29.1890
55.244191803, 96.390, 918.0, 30.2985
55.270452369, 96.390, 911.0, 30.1828
55.296712934, 96.390, 911.0, 30.1828
55.322973499, 96.390, 874.0, 29.5635
55.349234065, 96.390, 928.0, 30.4631
55.375494630, 96.390, 869.0, 29.4788
55.401755196, 96.390, 872.0, 29.5296
55.428015761, 96.390, 908.0, 30.1330
55.454276326, 96.390, 960.0, 30.9839
55.480536892, 96.390, 1018.0, 31.9061
55.506797457, 96.390, 1000.0, 31.6228
55.533058022, 96.390, 905.0, 30.0832
55.559318588, 96.390, 1002.0, 31.6544
55.585579153, 96.390, 964.0, 31.0483
55.611839718, 96.390, 1027.0, 32.0468
55.638100284, 96.390, 1055.0, 32.4808
55.664360849, 96.390, 1002.0, 31.6544
55.690621414, 96.390, 1016.0, 31.8748
55.716881980, 96.390, 885.0, 29.7489
55.743142545, 96.390, 917.0, 30.2820
55.769403111, 96.390, 974.0, 31.2090
55.795663676, 96.390, 916.0, 30.2655
55.821924241, 96.390, 988.0, 31.4325
55.848184807, 96.390, 956.0, 30.9192
55.874445372, 96.390, 938.0, 30.6268
55.900705937, 96.390, 862.0, 29.3598
55.926966503, 96.390, 914.0, 30.2324
55.953227068, 96.390, 824.0, 28.7054
55.979487633, 96.390, 900.0, 30.0000
56.005748199, 96.390, 933.0, 30.5450
56.032008764, 96.390, 911.0, 30.1828
56.058269329, 96.390, 875.0, 29.5804
56.084529895, 96.390, 883.0, 29.7153
56.110790460, 96.390, 890.0, 29.8329
56.137051025, 96.390, 931.0, 30.5123
56.163311591, 96.390, 897.0, 29.9500
56.189572156, 96.390, 860.0, 29.3258
56.215832722, 96.390, 907.0, 30.1164
56.242093287, 96.390, 892.0, 29.8664
56.268353852, 96.390, 929.0, 30.4795
56.294614418, 96.390, 859.0, 29.3087
56.320874983, 96.390, 882.0, 29.6985
56.347135548, 96.390, 902.0, 30.0333
56.373396114, 96.390, 818.0, 28.6007
56.399656679, 96.390, 859.0, 29.3087
56.425917244, 96.390, 894.0, 29.8998
56.452177810, 96.390, 864.0, 29.3939
56.478438375, 96.390, 852.0, 29.1890
56.504698940, 96.390, 818.0, 28.6007
56.530959506, 96.390, 838.0, 28.9482
56.557220071, 96.390, 785.0, 28.0179
56.583480637, 96.390, 843.0, 29.0345
56.609741202, 96.390, 810.0, 28.4605
56.636001767, 96.390, 872.0, 29.5296
56.662262333, 96.390, 850.0, 29.1548
56.688522898, 96.390, 827.0, 28.7576
56.714783463, 96.390, 866.0, 29.4279
56.741044029, 96.390, 790.0, 28.1069
56.767304594, 96.390, 815.0, 28.5482
56.793565159, 96.390, 815.0, 28.5482
56.819825725, 96.390, 804.0, 28.3549
56.846086290, 96.390, 854.0, 29.2233
56.872346855, 96.390, 841.0, 29.0000
56.898607421, 96.390, 884.0, 29.7321
56.924867986, 96.390, 869.0, 29.4788
56.951128551, 96.390, 864.0, 29.3939
56.977389117, 96.390, 817.0, 28.5832
57.003649682, 96.390, 866.0, 29.4279
57.029910248, 96.390, 819.0, 28.6182
57.056170813, 96.390, 851.0, 29.1719
57.082431378, 96.390, 862.0, 29.3598
57.108691944, 96.390, 858.0, 29.2916
57.134952509, 96.390, 883.0, 29.7153
57.161213074, 96.390, 849.0, 29.1376
57.187473640, 96.390, 860.0, 29.3258
57.213734205, 96.390, 826.0, 28.7402
57.239994770, 96.390, 813.0, 28.5132
57.266255336, 96.390, 835.0, 28.8964
57.292515901, 96.390, 858.0, 29.2916
57.318776466, 96.390, 848.0, 29.1204
57.345037032, 96.390, 808.0, 28.4253
57.371297597, 96.390, 886.0, 29.7658
57.397558163, 96.390, 894.0, 29.8998
57.423818728, 96.390, 893.0, 29.8831
57.450079293, 96.390, 890.0, 29.8329
57.476339859, 96.390, 847.0, 29.1033
57.502600424, 96.390, 884.0, 29.7321
57.528860989, 96.390, 893.0, 29.8831
57.555121555, 96.390, 904.0, 30.0666
57.581382120, 96.390, 814.0, 28.5307
57.607642685, 96.390, 879.0, 29.6479
57.633903251, 96.390, 886.0, 29.7658
57.660163816, 96.390, 867.0, 29.4449
57.686424381, 96.390, 931.0, 30.5123
57.712684947, 96.390, 880.0, 29.6648
57.738945512, 96.390, 851.0, 29.1719
57.765206077, 96.390, 844.0, 29.0517
57.791466643, 96.390, 896.0, 29.9333
57.817727208, 96.390, 869.0, 29.4788
57.843987774, 96.390, 904.0, 30.0666
57.870248339, 96.390, 901.0, 30.0167
57.896508904, 96.390, 914.0, 30.2324
57.922769470, 96.390, 916.0, 30.2655
57.949030035, 96.390, 887.0, 29.7825
57.975290600, 96.390, 903.0, 30.0500
58.001551166, 96.390, 950.0, 30.8221
58.027811731, 96.390, 982.0, 31.3369
58.054072296, 96.390, 1008.0, 31.7490
58.080332862, 96.390, 1132.0, 33.6452
58.106593427, 96.390, 1146.0, 33.8526
58.132853992, 96.390, 1065.0, 32.6343
58.159114558, 96.390, 1128.0, 33.5857
58.185375123, 96.390, 1043.0, 32.2955
58.211635689, 96.390, 995.0, 31.5436
58.237896254, 96.390, 1009.0, 31.7648
58.264156819, 96.390, 1035.0, 32.1714
58.290417385, 96.390, 933.0, 30.5450
58.316677950, 96.390, 934.0, 30.5614
58.342938515, 96.390, 903.0, 30.0500
58.369199081, 96.390, 891.0, 29.8496
58.395459646, 96.390, 879.0, 29.6479
58.421720211, 96.390, 871.0, 29.5127
58.447980777, 96.390, 801.0, 28.3019
58.474241342, 96.390, 862.0, 29.3598
58.500501907, 96.390, 816.0, 28.5657
58.526762473, 96.390, 883.0, 29.7153
58.553023038, 96.390, 864.0, 29.3939
58.579283603, 96.390, 873.0, 29.5466
58.605544169, 96.390, 860.0, 29.3258
58.631804734, 96.390, 857.0, 29.2746
58.658065300, 96.390, 782.0, 27.9643
58.684325865, 96.390, 795.0, 28.1957
58.710586430, 96.390, 836.0, 28.9137
58.736846996, 96.390, 826.0, 28.7402
58.763107561, 96.390, 867.0, 29.4449
58.789368126, 96.390, 838.0, 28.9482
58.815628692, 96.390, 812.0, 28.4956
58.841889257, 96.390, 864.0, 29.3939
58.868149822, 96.390, 861.0, 29.3428
58.894410388, 96.390, 791.0, 28.1247
58.920670953, 96.390, 799.0, 28.2666
58.946931518, 96.390, 781.0, 27.9464
58.973192084, 96.390, 771.0, 27.7669
58.999452649, 96.390, 754.0, 27.4591
59.025713214, 96.390, 775.0, 27.8388
59.051973780, 96.390, 836.0, 28.9137
59.078234345, 96.390, 841.0, 29.0000
59.104494911, 96.390, 826.0, 28.7402
59.130755476, 96.390, 837.0, 28.9310
59.157016041, 96.390, 851.0, 29.1719
59.183276607, 96.390, 818.0, 28.6007
59.209537172, 96.390, 875.0, 29.5804
59.235797737, 96.390, 917.0, 30.2820
59.262058303, 96.390, 902.0, 30.0333
59.288318868, 96.390, 905.0, 30.0832
59.314579433, 96.390, 928.0, 30.4631
59.340839999, 96.390, 898.0, 29.9666
59.367100564, 96.390, 902.0, 30.0333
59.393361129, 96.390, 936.0, 30.5941
59.419621695, 96.390, 888.0, 29.7993
59.445882260, 96.390, 848.0, 29.1204
59.472142826, 96.390, 877.0, 29.6142
59.498403391, 96.390, 964.0, 31.0483
59.524663956, 96.390, 861.0, 29.3428
59.550924522, 96.390, 878.0, 29.6311
59.577185087, 96.390, 862.0, 29.3598
59.603445652, 96.390, 912.0, 30.1993
59.629706218, 96.390, 954.0, 30.8869
59.655966783, 96.390, 917.0, 30.2820
59.682227348, 96.390, 880.0, 29.6648
59.708487914, 96.390, 885.0, 29.7489
59.734748479, 96.390, 861.0, 29.3428
59.761009044, 96.390, 943.0, 30.7083
59.787269610, 96.390, 944.0, 30.7246
59.813530175, 96.390, 883.0, 29.7153
59.839790740, 96.390, 938.0, 30.6268
59.866051306, 96.390, 973.0, 31.1929
59.892311871, 96.390, 928.0, 30.4631
59.918572437, 96.390, 959.0, 30.9677
59.944833002, 96.390, 985.0, 31.3847
59.971093567, 96.390, 958.0, 30.9516
59.997354133, 96.390, 1044.0, 32.3110
60.023614698, 96.390, 987.0, 31.4166
60.049875263, 96.390, 942.0, 30.6920
60.076135829, 96.390, 949.0, 30.8058
60.102396394, 96.390, 960.0, 30.9839
60.128656959, 96.390, 964.0, 31.0483
60.154917525, 96.390, 979.0, 31.2890
60.181178090, 96.390, 997.0, 31.5753
60.207438655, 96.390, 982.0, 31.3369
60.233699221, 96.390, 954.0, 30.8869
60.259959786, 96.390, 978.0, 31.2730
60.286220352, 96.390, 996.0, 31.5595
60.312480917, 96.390, 997.0, 31.5753
60.338741482, 96.390, 927.0, 30.4467
60.365002048, 96.390, 1011.0, 31.7962
60.391262613, 96.390, 972.0, 31.1769
60.417523178, 96.390, 991.0, 31.4802
60.443783744, 96.390, 968.0, 31.1127
60.470044309, 96.390, 1002.0, 31.6544
60.496304874, 96.390, 1003.0, 31.6702
60.522565440, 96.390, 1018.0, 31.9061
60.548826005, 96.390, 999.0, 31.6070
60.575086570, 96.390, 1003.0, 31.6702
60.601347136, 96.390, 994.0, 31.5278
60.627607701, 96.390, 991.0, 31.4802
60.653868266, 96.390, 1028.0, 32.0624
60.680128832, 96.390, 1083.0, 32.9090
60.706389397, 96.390, 979.0, 31.2890
60.732649963, 96.390, 1111.0, 33.3317
60.758910528, 96.390, 965.0, 31.0644
60.785171093, 96.390, 1060.0, 32.5576
60.811431659, 96.390, 1072.0, 32.7414
60.837692224, 96.390, 1039.0, 32.2335
60.863952789, 96.390, 1070.0, 32.7109
60.890213355, 96.390, 1104.0, 33.2265
60.916473920, 96.390, 1124.0, 33.5261
60.942734485, 96.390, 1067.0, 32.6650
60.968995051, 96.390, 1079.0, 32.8481
60.995255616, 96.390, 1030.0, 32.0936
61.021516181, 96.390, 1074.0, 32.7719
61.047776747, 96.390, 1059.0, 32.5423
61.074037312, 96.390, 1135.0, 33.6898
61.100297878, 96.390, 1064.0, 32.6190
61.126558443, 96.390, 1116.0, 33.4066
61.152819008, 96.390, 1170.0, 34.2053
61.179079574, 96.390, 1133.0, 33.6601
61.205340139, 96.390, 1192.0, 34.5254
61.231600704, 96.390, 1104.0, 33.2265
61.257861270, 96.390, 1108.0, 33.2866
61.284121835, 96.390, 1107.0, 33.2716
61.310382400, 96.390, 1098.0, 33.1361
61.336642966, 96.390, 1161.0, 34.0735
61.362903531, 96.390, 1077.0, 32.8177
61.389164096, 96.390, 1087.0, 32.9697
61.415424662, 96.390, 1079.0, 32.8481
61.441685227, 96.390, 1092.0, 33.0454
61.467945792, 96.390, 1144.0, 33.8231
61.494206358, 96.390, 1203.0, 34.6843
61.520466923, 96.390, 1184.0, 34.4093
61.546727489, 96.390, 1158.0, 34.0294
61.572988054, 96.390, 1165.0, 34.1321
61.599248619, 96.390, 1062.0, 32.5883
61.625509185, 96.390, 1096.0, 33.1059
61.651769750, 96.390, 1137.0, 33.7194
61.678030315, 96.390, 1092.0, 33.0454
61.704290881, 96.390, 1074.0, 32.7719
61.730551446, 96.390, 1062.0, 32.5883
61.756812011, 96.390, 1045.0, 32.3265
61.783072577, 96.390, 1040.0, 32.2490
61.809333142, 96.390, 1072.0, 32.7414
61.835593707, 96.390, 927.0, 30.4467
61.861854273, 96.390, 968.0, 31.1127
61.888114838, 96.390, 1013.0, 31.8277
61.914375404, 96.390, 1023.0, 31.9844
61.940635969, 96.390, 989.0, 31.4484
61.966896534, 96.390, 966.0, 31.0805
61.993157100, 96.390, 946.0, 30.7571
62.019417665, 96.390, 909.0, 30.1496
62.045678230, 96.390, 949.0, 30.8058
62.071938796, 96.390, 961.0, 31.0000
62.098199361, 96.390, 915.0, 30.2490
62.124459926, 96.390, 922.0, 30.3645
62.150720492, 96.390, 938.0, 30.6268
62.176981057, 96.390, 855.0, 29.2404
62.203241622, 96.390, 965.0, 31.0644
62.229502188, 96.390, 925.0, 30.4138
62.255762753, 96.390, 920.0, 30.3315
62.282023318, 96.390, 884.0, 29.7321
62.308283884, 96.390, 896.0, 29.9333
62.334544449, 96.390, 857.0, 29.2746
62.360805015, 96.390, 902.0, 30.0333
62.387065580, 96.390, 915.0, 30.2490
62.413326145, 96.390, 889.0, 29.8161
62.439586711, 96.390, 861.0, 29.3428
62.465847276, 96.390, 850.0, 29.1548
62.492107841, 96.390, 825.0, 28.7228
62.518368407, 96.390, 853.0, 29.2062
62.544628972, 96.390, 848.0, 29.1204
62.570889537, 96.390, 846.0, 29.0861
62.597150103, 96.390, 841.0, 29.0000
62.623410668, 96.390, 870.0, 29.4958
62.649671233, 96.390, 946.0, 30.7571
62.675931799, 96.390, 912.0, 30.1993
62.702192364, 96.390, 940.0, 30.6594
62.728452930, 96.390, 971.0, 31.1609
62.754713495, 96.390, 962.0, 31.0161
62.780974060, 96.390, 887.0, 29.7825
62.807234626, 96.390, 876.0, 29.5973
62.833495191, 96.390, 867.0, 29.4449
62.859755756, 96.390, 948.0, 30.7896
62.886016322, 96.390, 873.0, 29.5466
62.912276887, 96.390, 836.0, 28.9137
62.938537452, 96.390, 883.0, 29.7153
62.964798018, 96.390, 840.0, 28.9828
62.991058583, 96.390, 812.0, 28.4956
63.017319148, 96.390, 796.0, 28.2135
63.043579714, 96.390, 809.0, 28.4429
63.069840279, 96.390, 782.0, 27.9643
63.096100844, 96.390, 795.0, 28.1957
63.122361410, 96.390, 777.0, 27.8747
63.148621975, 96.390, 759.0, 27.5500
63.174882541, 96.390, 749.0, 27.3679
63.201143106, 96.390, 759.0, 27.5500
63.227403671, 96.390, 758.0, 27.5318
63.253664237, 96.390, 770.0, 27.7489
63.279924802, 96.390, 788.0, 28.0713
63.306185367, 96.390, 756.0, 27.4955
63.332445933, 96.390, 821.0, 28.6531
63.358706498, 96.390, 782.0, 27.9643
63.384967063, 96.390, 751.0, 27.4044
63.411227629, 96.390, 712.0, 26.6833
63.437488194, 96.390, 786.0, 28.0357
63.463748759, 96.390, 757.0, 27.5136
63.490009325, 96.390, 805.0, 28.3725
63.516269890, 96.390, 761.0, 27.5862
63.542530455, 96.390, 720.0, 26.8328
63.568791021, 96.390, 785.0, 28.0179
63.595051586, 96.390, 734.0, 27.0924
63.621312152, 96.390, 783.0, 27.9821
63.647572717, 96.390, 752.0, 27.4226
63.673833282, 96.390, 778.0, 27.8927
63.700093848, 96.390, 805.0, 28.3725
63.726354413, 96.390, 778.0, 27.8927
63.752614978, 96.390, 845.0, 29.0689
63.778875544, 96.390, 794.0, 28.1780
63.805136109, 96.390, 905.0, 30.0832
63.831396674, 96.390, 828.0, 28.7750
63.857657240, 96.390, 899.0, 29.9833
63.883917805, 96.390, 866.0, 29.4279
63.910178370, 96.390, 827.0, 28.7576
63.936438936, 96.390, 830.0, 28.8097
63.962699501, 96.390, 836.0, 28.9137
63.988960067, 96.390, 938.0, 30.6268
64.015220632, 96.390, 903.0, 30.0500
64.041481197, 96.390, 835.0, 28.8964
64.067741763, 96.390, 860.0, 29.3258
64.094002328, 96.390, 853.0, 29.2062
64.120262893, 96.390, 776.0, 27.8568
64.146523459, 96.390, 844.0, 29.0517
64.172784024, 96.390, 796.0, 28.2135
64.199044589, 96.390, 862.0, 29.3598
64.225305155, 96.390, 821.0, 28.6531
64.251565720, 96.390, 806.0, 28.3901
64.277826285, 96.390, 875.0, 29.5804
64.304086851, 96.390, 852.0, 29.1890
64.330347416, 96.390, 827.0, 28.7576
64.356607981, 96.390, 786.0, 28.0357
64.382868547, 96.390, 801.0, 28.3019
64.409129112, 96.390, 759.0, 27.5500
64.435389678, 96.390, 768.0, 27.7128
64.461650243, 96.390, 790.0, 28.1069
64.487910808, 96.390, 766.0, 27.6767
64.514171374, 96.390, 751.0, 27.4044
64.540431939, 96.390, 741.0, 27.2213
64.566692504, 96.390, 841.0, 29.0000
64.592953070, 96.390, 698.0, 26.4197
64.619213635, 96.390, 736.0, 27.1293
64.645474200, 96.390, 743.0, 27.2580
64.671734766, 96.390, 740.0, 27.2029
64.697995331, 96.390, 733.0, 27.0740
64.724255896, 96.390, 733.0, 27.0740
64.750516462, 96.390, 753.0, 27.4408
64.776777027, 96.390, 732.0, 27.0555
64.803037593, 96.390, 738.0, 27.1662
64.829298158, 96.390, 707.0, 26.5895
64.855558723, 96.390, 747.0, 27.3313
64.881819289, 96.390, 717.0, 26.7769
64.908079854, 96.390, 770.0, 27.7489
64.934340419, 96.390, 755.0, 27.4773
64.960600985, 96.390, 727.0, 26.9629
64.986861550, 96.390, 695.0, 26.3629
