[Measurement conditions]
Sample identification,XRD_P04Free14Apr22_Act03May22_B1_1000M_NaOH_LS0131_1
Comment - 1,"Configuration=Stage for Flat Samples/Holders, Owner=User-1, Creation date=7/1/2020 9:53:24 AM"
Comment - 2,"Goniometer=Theta/Theta; Minimum step size 2Theta:0.0001; Minimum step size Omega:0.0001"
Comment - 3,"Sample stage=Stage for flat samples/holders"
Comment - 4,"Diffractometer system=EMPYREAN"
Comment - 5,"Measurement program=C:\Users\ibo5034\OneDrive - The Pennsylvania State University\NEUP\Zerobackground scan.xrdmp, Identifier={98A3B11C-88F9-4AA6-982C-73314A311EF5}"
Anode material,Cu
K-Alpha1 wavelength,1.5405980
K-Alpha2 wavelength,1.5444260
Ratio K-Alpha2/K-Alpha1,0.500
Divergence slit,Fixed,0.25
Monochromator used,NO
Generator voltage, 45
Tube current, 40
File date and time,03/Jun/2022 16:09
Unit cell,
h k l, 0 0 0
Scan axis,Gonio
Scan range,4.994599997,64.999991833
Scan step size,0.0262606
No. of points, 2285
Scan type,CONTINUOUS
Time per step,96.390
[Scan points]
Angle, TimePerStep, Intensity, ESD
5.007730280, 96.390, 4986.0, 70.6116
5.033990845, 96.390, 5171.0, 71.9097
5.060251411, 96.390, 5012.0, 70.7955
5.086511976, 96.390, 5017.0, 70.8308
5.112772541, 96.390, 4935.0, 70.2496
5.139033107, 96.390, 4962.0, 70.4415
5.165293672, 96.390, 5064.0, 71.1618
5.191554237, 96.390, 4990.0, 70.6399
5.217814803, 96.390, 5074.0, 71.2320
5.244075368, 96.390, 5127.0, 71.6031
5.270335934, 96.390, 4920.0, 70.1427
5.296596499, 96.390, 5178.0, 71.9583
5.322857064, 96.390, 5038.0, 70.9789
5.349117630, 96.390, 5140.0, 71.6938
5.375378195, 96.390, 5283.0, 72.6842
5.401638760, 96.390, 5355.0, 73.1779
5.427899326, 96.390, 5201.0, 72.1180
5.454159891, 96.390, 5298.0, 72.7874
5.480420456, 96.390, 5335.0, 73.0411
5.506681022, 96.390, 5607.0, 74.8799
5.532941587, 96.390, 5736.0, 75.7364
5.559202152, 96.390, 5714.0, 75.5910
5.585462718, 96.390, 5812.0, 76.2365
5.611723283, 96.390, 5943.0, 77.0909
5.637983849, 96.390, 6086.0, 78.0128
5.664244414, 96.390, 6195.0, 78.7083
5.690504979, 96.390, 6414.0, 80.0875
5.716765545, 96.390, 6661.0, 81.6149
5.743026110, 96.390, 6926.0, 83.2226
5.769286675, 96.390, 7010.0, 83.7257
5.795547241, 96.390, 6933.0, 83.2646
5.821807806, 96.390, 7147.0, 84.5399
5.848068371, 96.390, 7388.0, 85.9535
5.874328937, 96.390, 7375.0, 85.8778
5.900589502, 96.390, 7389.0, 85.9593
5.926850067, 96.390, 7260.0, 85.2056
5.953110633, 96.390, 7097.0, 84.2437
5.979371198, 96.390, 7129.0, 84.4334
6.005631763, 96.390, 7307.0, 85.4810
6.031892329, 96.390, 7166.0, 84.6522
6.058152894, 96.390, 7020.0, 83.7854
6.084413460, 96.390, 7051.0, 83.9702
6.110674025, 96.390, 7016.0, 83.7616
6.136934590, 96.390, 7091.0, 84.2081
6.163195156, 96.390, 7098.0, 84.2496
6.189455721, 96.390, 7003.0, 83.6839
6.215716286, 96.390, 6985.0, 83.5763
6.241976852, 96.390, 6924.0, 83.2106
6.268237417, 96.390, 6818.0, 82.5712
6.294497982, 96.390, 6919.0, 83.1805
6.320758548, 96.390, 6709.0, 81.9085
6.347019113, 96.390, 6647.0, 81.5291
6.373279678, 96.390, 6590.0, 81.1788
6.399540244, 96.390, 6565.0, 81.0247
6.425800809, 96.390, 6532.0, 80.8208
6.452061375, 96.390, 6536.0, 80.8455
6.478321940, 96.390, 6469.0, 80.4301
6.504582505, 96.390, 6312.0, 79.4481
6.530843071, 96.390, 6248.0, 79.0443
6.557103636, 96.390, 6059.0, 77.8396
6.583364201, 96.390, 6285.0, 79.2780
6.609624767, 96.390, 6022.0, 77.6015
6.635885332, 96.390, 5960.0, 77.2010
6.662145897, 96.390, 5912.0, 76.8895
6.688406463, 96.390, 5679.0, 75.3591
6.714667028, 96.390, 5631.0, 75.0400
6.740927593, 96.390, 5801.0, 76.1643
6.767188159, 96.390, 5687.0, 75.4122
6.793448724, 96.390, 5398.0, 73.4711
6.819709289, 96.390, 5407.0, 73.5323
6.845969855, 96.390, 5309.0, 72.8629
6.872230420, 96.390, 5235.0, 72.3533
6.898490986, 96.390, 5283.0, 72.6842
6.924751551, 96.390, 5199.0, 72.1041
6.951012116, 96.390, 5182.0, 71.9861
6.977272682, 96.390, 5113.0, 71.5052
7.003533247, 96.390, 4990.0, 70.6399
7.029793812, 96.390, 5010.0, 70.7814
7.056054378, 96.390, 5000.0, 70.7107
7.082314943, 96.390, 4915.0, 70.1071
7.108575508, 96.390, 4756.0, 68.9638
7.134836074, 96.390, 4761.0, 69.0000
7.161096639, 96.390, 4697.0, 68.5347
7.187357204, 96.390, 4793.0, 69.2315
7.213617770, 96.390, 4643.0, 68.1396
7.239878335, 96.390, 4489.0, 67.0000
7.266138900, 96.390, 4566.0, 67.5722
7.292399466, 96.390, 4483.0, 66.9552
7.318660031, 96.390, 4484.0, 66.9627
7.344920597, 96.390, 4422.0, 66.4981
7.371181162, 96.390, 4375.0, 66.1438
7.397441727, 96.390, 4311.0, 65.6582
7.423702293, 96.390, 4286.0, 65.4675
7.449962858, 96.390, 4163.0, 64.5213
7.476223423, 96.390, 4221.0, 64.9692
7.502483989, 96.390, 4168.0, 64.5600
7.528744554, 96.390, 4167.0, 64.5523
7.555005119, 96.390, 3984.0, 63.1189
7.581265685, 96.390, 3974.0, 63.0397
7.607526250, 96.390, 4020.0, 63.4035
7.633786815, 96.390, 3910.0, 62.5300
7.660047381, 96.390, 3912.0, 62.5460
7.686307946, 96.390, 3884.0, 62.3217
7.712568512, 96.390, 3813.0, 61.7495
7.738829077, 96.390, 3789.0, 61.5549
7.765089642, 96.390, 3810.0, 61.7252
7.791350208, 96.390, 3711.0, 60.9180
7.817610773, 96.390, 3698.0, 60.8112
7.843871338, 96.390, 3669.0, 60.5723
7.870131904, 96.390, 3679.0, 60.6548
7.896392469, 96.390, 3700.0, 60.8276
7.922653034, 96.390, 3626.0, 60.2163
7.948913600, 96.390, 3417.0, 58.4551
7.975174165, 96.390, 3510.0, 59.2453
8.001434730, 96.390, 3471.0, 58.9152
8.027695296, 96.390, 3459.0, 58.8133
8.053955861, 96.390, 3375.0, 58.0948
8.080216426, 96.390, 3351.0, 57.8878
8.106476992, 96.390, 3500.0, 59.1608
8.132737557, 96.390, 3375.0, 58.0948
8.158998123, 96.390, 3344.0, 57.8273
8.185258688, 96.390, 3348.0, 57.8619
8.211519253, 96.390, 3348.0, 57.8619
8.237779819, 96.390, 3296.0, 57.4108
8.264040384, 96.390, 3313.0, 57.5587
8.290300949, 96.390, 3299.0, 57.4369
8.316561515, 96.390, 3252.0, 57.0263
8.342822080, 96.390, 3284.0, 57.3062
8.369082645, 96.390, 3250.0, 57.0088
8.395343211, 96.390, 3194.0, 56.5155
8.421603776, 96.390, 3168.0, 56.2850
8.447864341, 96.390, 3160.0, 56.2139
8.474124907, 96.390, 3138.0, 56.0179
8.500385472, 96.390, 3127.0, 55.9196
8.526646038, 96.390, 3140.0, 56.0357
8.552906603, 96.390, 3114.0, 55.8032
8.579167168, 96.390, 3083.0, 55.5248
8.605427734, 96.390, 3174.0, 56.3383
8.631688299, 96.390, 3136.0, 56.0000
8.657948864, 96.390, 2975.0, 54.5436
8.684209430, 96.390, 3124.0, 55.8928
8.710469995, 96.390, 3020.0, 54.9545
8.736730560, 96.390, 2984.0, 54.6260
8.762991126, 96.390, 3020.0, 54.9545
8.789251691, 96.390, 3101.0, 55.6866
8.815512256, 96.390, 2968.0, 54.4794
8.841772822, 96.390, 3087.0, 55.5608
8.868033387, 96.390, 2969.0, 54.4885
8.894293952, 96.390, 2891.0, 53.7680
8.920554518, 96.390, 2880.0, 53.6656
8.946815083, 96.390, 3009.0, 54.8544
8.973075649, 96.390, 2942.0, 54.2402
8.999336214, 96.390, 2960.0, 54.4059
9.025596779, 96.390, 3065.0, 55.3624
9.051857345, 96.390, 2908.0, 53.9259
9.078117910, 96.390, 2939.0, 54.2125
9.104378475, 96.390, 2942.0, 54.2402
9.130639041, 96.390, 2944.0, 54.2586
9.156899606, 96.390, 3013.0, 54.8908
9.183160171, 96.390, 2875.0, 53.6190
9.209420737, 96.390, 2920.0, 54.0370
9.235681302, 96.390, 3004.0, 54.8088
9.261941867, 96.390, 2932.0, 54.1479
9.288202433, 96.390, 2968.0, 54.4794
9.314462998, 96.390, 3001.0, 54.7814
9.340723564, 96.390, 2941.0, 54.2310
9.366984129, 96.390, 2909.0, 53.9351
9.393244694, 96.390, 2953.0, 54.3415
9.419505260, 96.390, 2985.0, 54.6352
9.445765825, 96.390, 3019.0, 54.9454
9.472026390, 96.390, 3066.0, 55.3715
9.498286956, 96.390, 3084.0, 55.5338
9.524547521, 96.390, 3040.0, 55.1362
9.550808086, 96.390, 3018.0, 54.9363
9.577068652, 96.390, 2924.0, 54.0740
9.603329217, 96.390, 2977.0, 54.5619
9.629589782, 96.390, 3027.0, 55.0182
9.655850348, 96.390, 3045.0, 55.1815
9.682110913, 96.390, 3084.0, 55.5338
9.708371478, 96.390, 3073.0, 55.4346
9.734632044, 96.390, 3149.0, 56.1160
9.760892609, 96.390, 3138.0, 56.0179
9.787153175, 96.390, 3182.0, 56.4092
9.813413740, 96.390, 3333.0, 57.7321
9.839674305, 96.390, 3292.0, 57.3760
9.865934871, 96.390, 3432.0, 58.5833
9.892195436, 96.390, 3413.0, 58.4209
9.918456001, 96.390, 3595.0, 59.9583
9.944716567, 96.390, 3471.0, 58.9152
9.970977132, 96.390, 3763.0, 61.3433
9.997237697, 96.390, 3829.0, 61.8789
10.023498263, 96.390, 3869.0, 62.2013
10.049758828, 96.390, 3963.0, 62.9524
10.076019393, 96.390, 3745.0, 61.1964
10.102279959, 96.390, 3853.0, 62.0725
10.128540524, 96.390, 3781.0, 61.4898
10.154801090, 96.390, 3468.0, 58.8897
10.181061655, 96.390, 3507.0, 59.2199
10.207322220, 96.390, 3432.0, 58.5833
10.233582786, 96.390, 3519.0, 59.3212
10.259843351, 96.390, 3406.0, 58.3609
10.286103916, 96.390, 3298.0, 57.4282
10.312364482, 96.390, 3167.0, 56.2761
10.338625047, 96.390, 3272.0, 57.2014
10.364885612, 96.390, 3194.0, 56.5155
10.391146178, 96.390, 3183.0, 56.4181
10.417406743, 96.390, 3293.0, 57.3847
10.443667308, 96.390, 3206.0, 56.6216
10.469927874, 96.390, 3129.0, 55.9375
10.496188439, 96.390, 3194.0, 56.5155
10.522449004, 96.390, 3221.0, 56.7539
10.548709570, 96.390, 3223.0, 56.7715
10.574970135, 96.390, 3319.0, 57.6108
10.601230701, 96.390, 3256.0, 57.0614
10.627491266, 96.390, 3263.0, 57.1227
10.653751831, 96.390, 3244.0, 56.9561
10.680012397, 96.390, 3192.0, 56.4978
10.706272962, 96.390, 3202.0, 56.5862
10.732533527, 96.390, 3366.0, 58.0172
10.758794093, 96.390, 3352.0, 57.8965
10.785054658, 96.390, 3297.0, 57.4195
10.811315223, 96.390, 3232.0, 56.8507
10.837575789, 96.390, 3450.0, 58.7367
10.863836354, 96.390, 3342.0, 57.8100
10.890096919, 96.390, 3260.0, 57.0964
10.916357485, 96.390, 3286.0, 57.3236
10.942618050, 96.390, 3402.0, 58.3267
10.968878616, 96.390, 3357.0, 57.9396
10.995139181, 96.390, 3263.0, 57.1227
11.021399746, 96.390, 3465.0, 58.8643
11.047660312, 96.390, 3372.0, 58.0689
11.073920877, 96.390, 3411.0, 58.4038
11.100181442, 96.390, 3467.0, 58.8812
11.126442008, 96.390, 3464.0, 58.8558
11.152702573, 96.390, 3370.0, 58.0517
11.178963138, 96.390, 3536.0, 59.4643
11.205223704, 96.390, 3481.0, 59.0000
11.231484269, 96.390, 3496.0, 59.1270
11.257744834, 96.390, 3557.0, 59.6406
11.284005400, 96.390, 3421.0, 58.4893
11.310265965, 96.390, 3396.0, 58.2752
11.336526530, 96.390, 3469.0, 58.8982
11.362787096, 96.390, 3410.0, 58.3952
11.389047661, 96.390, 3515.0, 59.2874
11.415308227, 96.390, 3590.0, 59.9166
11.441568792, 96.390, 3548.0, 59.5651
11.467829357, 96.390, 3602.0, 60.0167
11.494089923, 96.390, 3645.0, 60.3738
11.520350488, 96.390, 3510.0, 59.2453
11.546611053, 96.390, 3617.0, 60.1415
11.572871619, 96.390, 3617.0, 60.1415
11.599132184, 96.390, 3686.0, 60.7124
11.625392749, 96.390, 3556.0, 59.6322
11.651653315, 96.390, 3700.0, 60.8276
11.677913880, 96.390, 3644.0, 60.3656
11.704174445, 96.390, 3704.0, 60.8605
11.730435011, 96.390, 3697.0, 60.8030
11.756695576, 96.390, 3714.0, 60.9426
11.782956141, 96.390, 3759.0, 61.3107
11.809216707, 96.390, 3756.0, 61.2862
11.835477272, 96.390, 3667.0, 60.5558
11.861737838, 96.390, 3627.0, 60.2246
11.887998403, 96.390, 3660.0, 60.4979
11.914258968, 96.390, 3593.0, 59.9416
11.940519534, 96.390, 3437.0, 58.6259
11.966780099, 96.390, 3405.0, 58.3524
11.993040664, 96.390, 3512.0, 59.2621
12.019301230, 96.390, 3412.0, 58.4123
12.045561795, 96.390, 3285.0, 57.3149
12.071822360, 96.390, 3364.0, 58.0000
12.098082926, 96.390, 3212.0, 56.6745
12.124343491, 96.390, 3221.0, 56.7539
12.150604056, 96.390, 3093.0, 55.6147
12.176864622, 96.390, 3151.0, 56.1338
12.203125187, 96.390, 3144.0, 56.0714
12.229385753, 96.390, 3147.0, 56.0981
12.255646318, 96.390, 2974.0, 54.5344
12.281906883, 96.390, 3068.0, 55.3895
12.308167449, 96.390, 2896.0, 53.8145
12.334428014, 96.390, 2840.0, 53.2917
12.360688579, 96.390, 2831.0, 53.2071
12.386949145, 96.390, 2837.0, 53.2635
12.413209710, 96.390, 2926.0, 54.0925
12.439470275, 96.390, 2799.0, 52.9056
12.465730841, 96.390, 2768.0, 52.6118
12.491991406, 96.390, 2737.0, 52.3163
12.518251971, 96.390, 2705.0, 52.0096
12.544512537, 96.390, 2622.0, 51.2055
12.570773102, 96.390, 2608.0, 51.0686
12.597033667, 96.390, 2619.0, 51.1762
12.623294233, 96.390, 2583.0, 50.8232
12.649554798, 96.390, 2510.0, 50.0999
12.675815364, 96.390, 2620.0, 51.1859
12.702075929, 96.390, 2551.0, 50.5074
12.728336494, 96.390, 2473.0, 49.7293
12.754597060, 96.390, 2515.0, 50.1498
12.780857625, 96.390, 2357.0, 48.5489
12.807118190, 96.390, 2446.0, 49.4571
12.833378756, 96.390, 2439.0, 49.3862
12.859639321, 96.390, 2407.0, 49.0612
12.885899886, 96.390, 2311.0, 48.0729
12.912160452, 96.390, 2372.0, 48.7032
12.938421017, 96.390, 2376.0, 48.7442
12.964681582, 96.390, 2319.0, 48.1560
12.990942148, 96.390, 2311.0, 48.0729
13.017202713, 96.390, 2306.0, 48.0208
13.043463279, 96.390, 2235.0, 47.2758
13.069723844, 96.390, 2239.0, 47.3181
13.095984409, 96.390, 2245.0, 47.3814
13.122244975, 96.390, 2225.0, 47.1699
13.148505540, 96.390, 2197.0, 46.8722
13.174766105, 96.390, 2223.0, 47.1487
13.201026671, 96.390, 2268.0, 47.6235
13.227287236, 96.390, 2113.0, 45.9674
13.253547801, 96.390, 2129.0, 46.1411
13.279808367, 96.390, 2172.0, 46.6047
13.306068932, 96.390, 2067.0, 45.4643
13.332329497, 96.390, 2065.0, 45.4423
13.358590063, 96.390, 2094.0, 45.7602
13.384850628, 96.390, 2156.0, 46.4327
13.411111193, 96.390, 2121.0, 46.0543
13.437371759, 96.390, 2123.0, 46.0760
13.463632324, 96.390, 2074.0, 45.5412
13.489892890, 96.390, 2073.0, 45.5302
13.516153455, 96.390, 2070.0, 45.4973
13.542414020, 96.390, 2120.0, 46.0435
13.568674586, 96.390, 2104.0, 45.8694
13.594935151, 96.390, 1985.0, 44.5533
13.621195716, 96.390, 2056.0, 45.3431
13.647456282, 96.390, 2038.0, 45.1442
13.673716847, 96.390, 2006.0, 44.7884
13.699977412, 96.390, 1995.0, 44.6654
13.726237978, 96.390, 2029.0, 45.0444
13.752498543, 96.390, 2004.0, 44.7661
13.778759108, 96.390, 2028.0, 45.0333
13.805019674, 96.390, 2051.0, 45.2880
13.831280239, 96.390, 2025.0, 45.0000
13.857540805, 96.390, 2184.0, 46.7333
13.883801370, 96.390, 2155.0, 46.4220
13.910061935, 96.390, 2181.0, 46.7012
13.936322501, 96.390, 2175.0, 46.6369
13.962583066, 96.390, 2380.0, 48.7852
13.988843631, 96.390, 2230.0, 47.2229
14.015104197, 96.390, 2403.0, 49.0204
14.041364762, 96.390, 2469.0, 49.6890
14.067625327, 96.390, 2438.0, 49.3761
14.093885893, 96.390, 2429.0, 49.2849
14.120146458, 96.390, 2284.0, 47.7912
14.146407023, 96.390, 2192.0, 46.8188
14.172667589, 96.390, 1982.0, 44.5197
14.198928154, 96.390, 2058.0, 45.3652
14.225188719, 96.390, 2002.0, 44.7437
14.251449285, 96.390, 1920.0, 43.8178
14.277709850, 96.390, 1915.0, 43.7607
14.303970416, 96.390, 1977.0, 44.4635
14.330230981, 96.390, 1900.0, 43.5890
14.356491546, 96.390, 1971.0, 44.3959
14.382752112, 96.390, 1918.0, 43.7950
14.409012677, 96.390, 1949.0, 44.1475
14.435273242, 96.390, 1904.0, 43.6348
14.461533808, 96.390, 1875.0, 43.3013
14.487794373, 96.390, 1858.0, 43.1045
14.514054938, 96.390, 1849.0, 43.0000
14.540315504, 96.390, 1809.0, 42.5323
14.566576069, 96.390, 1861.0, 43.1393
14.592836634, 96.390, 1882.0, 43.3820
14.619097200, 96.390, 1904.0, 43.6348
14.645357765, 96.390, 1826.0, 42.7317
14.671618331, 96.390, 1821.0, 42.6732
14.697878896, 96.390, 1909.0, 43.6921
14.724139461, 96.390, 1826.0, 42.7317
14.750400027, 96.390, 1885.0, 43.4166
14.776660592, 96.390, 1863.0, 43.1625
14.802921157, 96.390, 1909.0, 43.6921
14.829181723, 96.390, 1881.0, 43.3705
14.855442288, 96.390, 1883.0, 43.3935
14.881702853, 96.390, 1884.0, 43.4051
14.907963419, 96.390, 1994.0, 44.6542
14.934223984, 96.390, 1899.0, 43.5775
14.960484549, 96.390, 2058.0, 45.3652
14.986745115, 96.390, 1967.0, 44.3509
15.013005680, 96.390, 1958.0, 44.2493
15.039266245, 96.390, 2139.0, 46.2493
15.065526811, 96.390, 2107.0, 45.9021
15.091787376, 96.390, 2105.0, 45.8803
15.118047942, 96.390, 2158.0, 46.4543
15.144308507, 96.390, 2191.0, 46.8081
15.170569072, 96.390, 2248.0, 47.4131
15.196829638, 96.390, 2364.0, 48.6210
15.223090203, 96.390, 2312.0, 48.0833
15.249350768, 96.390, 2501.0, 50.0100
15.275611334, 96.390, 2516.0, 50.1597
15.301871899, 96.390, 2670.0, 51.6720
15.328132464, 96.390, 2650.0, 51.4782
15.354393030, 96.390, 2849.0, 53.3760
15.380653595, 96.390, 2913.0, 53.9722
15.406914160, 96.390, 2876.0, 53.6284
15.433174726, 96.390, 2789.0, 52.8110
15.459435291, 96.390, 2795.0, 52.8678
15.485695857, 96.390, 2779.0, 52.7162
15.511956422, 96.390, 2716.0, 52.1153
15.538216987, 96.390, 2765.0, 52.5833
15.564477553, 96.390, 2722.0, 52.1728
15.590738118, 96.390, 2584.0, 50.8331
15.616998683, 96.390, 2448.0, 49.4773
15.643259249, 96.390, 2419.0, 49.1833
15.669519814, 96.390, 2335.0, 48.3218
15.695780379, 96.390, 2426.0, 49.2544
15.722040945, 96.390, 2238.0, 47.3075
15.748301510, 96.390, 2203.0, 46.9361
15.774562075, 96.390, 2200.0, 46.9042
15.800822641, 96.390, 2153.0, 46.4004
15.827083206, 96.390, 1959.0, 44.2606
15.853343771, 96.390, 2108.0, 45.9130
15.879604337, 96.390, 1963.0, 44.3058
15.905864902, 96.390, 1982.0, 44.5197
15.932125468, 96.390, 1906.0, 43.6578
15.958386033, 96.390, 1822.0, 42.6849
15.984646598, 96.390, 2035.0, 45.1110
16.010907164, 96.390, 1889.0, 43.4626
16.037167729, 96.390, 1867.0, 43.2088
16.063428294, 96.390, 1868.0, 43.2204
16.089688860, 96.390, 1839.0, 42.8836
16.115949425, 96.390, 1840.0, 42.8952
16.142209990, 96.390, 1797.0, 42.3910
16.168470556, 96.390, 1890.0, 43.4741
16.194731121, 96.390, 1820.0, 42.6615
16.220991686, 96.390, 1820.0, 42.6615
16.247252252, 96.390, 1726.0, 41.5452
16.273512817, 96.390, 1802.0, 42.4500
16.299773382, 96.390, 1778.0, 42.1663
16.326033948, 96.390, 1821.0, 42.6732
16.352294513, 96.390, 1795.0, 42.3674
16.378555079, 96.390, 1828.0, 42.7551
16.404815644, 96.390, 1833.0, 42.8135
16.431076209, 96.390, 1703.0, 41.2674
16.457336775, 96.390, 1788.0, 42.2847
16.483597340, 96.390, 1761.0, 41.9643
16.509857905, 96.390, 1894.0, 43.5201
16.536118471, 96.390, 1815.0, 42.6028
16.562379036, 96.390, 1904.0, 43.6348
16.588639601, 96.390, 1871.0, 43.2551
16.614900167, 96.390, 1855.0, 43.0697
16.641160732, 96.390, 1870.0, 43.2435
16.667421297, 96.390, 1725.0, 41.5331
16.693681863, 96.390, 1736.0, 41.6653
16.719942428, 96.390, 1735.0, 41.6533
16.746202994, 96.390, 1707.0, 41.3159
16.772463559, 96.390, 1711.0, 41.3642
16.798724124, 96.390, 1736.0, 41.6653
16.824984690, 96.390, 1836.0, 42.8486
16.851245255, 96.390, 1852.0, 43.0349
16.877505820, 96.390, 1862.0, 43.1509
16.903766386, 96.390, 1760.0, 41.9524
16.930026951, 96.390, 1833.0, 42.8135
16.956287516, 96.390, 1844.0, 42.9418
16.982548082, 96.390, 1778.0, 42.1663
17.008808647, 96.390, 1677.0, 40.9512
17.035069212, 96.390, 1717.0, 41.4367
17.061329778, 96.390, 1703.0, 41.2674
17.087590343, 96.390, 1631.0, 40.3856
17.113850908, 96.390, 1633.0, 40.4104
17.140111474, 96.390, 1612.0, 40.1497
17.166372039, 96.390, 1659.0, 40.7308
17.192632605, 96.390, 1663.0, 40.7799
17.218893170, 96.390, 1702.0, 41.2553
17.245153735, 96.390, 1616.0, 40.1995
17.271414301, 96.390, 1647.0, 40.5832
17.297674866, 96.390, 1660.0, 40.7431
17.323935431, 96.390, 1637.0, 40.4599
17.350195997, 96.390, 1621.0, 40.2616
17.376456562, 96.390, 1636.0, 40.4475
17.402717127, 96.390, 1675.0, 40.9268
17.428977693, 96.390, 1662.0, 40.7676
17.455238258, 96.390, 1710.0, 41.3521
17.481498823, 96.390, 1630.0, 40.3733
17.507759389, 96.390, 1581.0, 39.7618
17.534019954, 96.390, 1643.0, 40.5339
17.560280520, 96.390, 1691.0, 41.1218
17.586541085, 96.390, 1593.0, 39.9124
17.612801650, 96.390, 1627.0, 40.3361
17.639062216, 96.390, 1650.0, 40.6202
17.665322781, 96.390, 1680.0, 40.9878
17.691583346, 96.390, 1576.0, 39.6989
17.717843912, 96.390, 1622.0, 40.2741
17.744104477, 96.390, 1643.0, 40.5339
17.770365042, 96.390, 1631.0, 40.3856
17.796625608, 96.390, 1627.0, 40.3361
17.822886173, 96.390, 1542.0, 39.2683
17.849146738, 96.390, 1665.0, 40.8044
17.875407304, 96.390, 1582.0, 39.7744
17.901667869, 96.390, 1633.0, 40.4104
17.927928434, 96.390, 1593.0, 39.9124
17.954189000, 96.390, 1622.0, 40.2741
17.980449565, 96.390, 1706.0, 41.3038
18.006710131, 96.390, 1621.0, 40.2616
18.032970696, 96.390, 1749.0, 41.8210
18.059231261, 96.390, 1731.0, 41.6053
18.085491827, 96.390, 1621.0, 40.2616
18.111752392, 96.390, 1710.0, 41.3521
18.138012957, 96.390, 1638.0, 40.4722
18.164273523, 96.390, 1760.0, 41.9524
18.190534088, 96.390, 1653.0, 40.6571
18.216794653, 96.390, 1690.0, 41.1096
18.243055219, 96.390, 1756.0, 41.9047
18.269315784, 96.390, 1751.0, 41.8450
18.295576349, 96.390, 1723.0, 41.5090
18.321836915, 96.390, 1755.0, 41.8927
18.348097480, 96.390, 1726.0, 41.5452
18.374358046, 96.390, 1822.0, 42.6849
18.400618611, 96.390, 1829.0, 42.7668
18.426879176, 96.390, 1749.0, 41.8210
18.453139742, 96.390, 1819.0, 42.6497
18.479400307, 96.390, 1808.0, 42.5206
18.505660872, 96.390, 1799.0, 42.4146
18.531921438, 96.390, 1788.0, 42.2847
18.558182003, 96.390, 1816.0, 42.6146
18.584442568, 96.390, 1740.0, 41.7133
18.610703134, 96.390, 1764.0, 42.0000
18.636963699, 96.390, 1783.0, 42.2256
18.663224264, 96.390, 1786.0, 42.2611
18.689484830, 96.390, 1755.0, 41.8927
18.715745395, 96.390, 1731.0, 41.6053
18.742005960, 96.390, 1814.0, 42.5911
18.768266526, 96.390, 1828.0, 42.7551
18.794527091, 96.390, 1781.0, 42.2019
18.820787657, 96.390, 1797.0, 42.3910
18.847048222, 96.390, 1694.0, 41.1582
18.873308787, 96.390, 1808.0, 42.5206
18.899569353, 96.390, 1711.0, 41.3642
18.925829918, 96.390, 1760.0, 41.9524
18.952090483, 96.390, 1822.0, 42.6849
18.978351049, 96.390, 1786.0, 42.2611
19.004611614, 96.390, 1845.0, 42.9535
19.030872179, 96.390, 1662.0, 40.7676
19.057132745, 96.390, 1725.0, 41.5331
19.083393310, 96.390, 1717.0, 41.4367
19.109653875, 96.390, 1882.0, 43.3820
19.135914441, 96.390, 1720.0, 41.4729
19.162175006, 96.390, 1757.0, 41.9166
19.188435572, 96.390, 1740.0, 41.7133
19.214696137, 96.390, 1820.0, 42.6615
19.240956702, 96.390, 1811.0, 42.5558
19.267217268, 96.390, 1927.0, 43.8976
19.293477833, 96.390, 1817.0, 42.6263
19.319738398, 96.390, 1817.0, 42.6263
19.345998964, 96.390, 1842.0, 42.9185
19.372259529, 96.390, 1801.0, 42.4382
19.398520094, 96.390, 1874.0, 43.2897
19.424780660, 96.390, 1907.0, 43.6692
19.451041225, 96.390, 1809.0, 42.5323
19.477301790, 96.390, 1838.0, 42.8719
19.503562356, 96.390, 1819.0, 42.6497
19.529822921, 96.390, 1774.0, 42.1189
19.556083486, 96.390, 1860.0, 43.1277
19.582344052, 96.390, 1931.0, 43.9431
19.608604617, 96.390, 1870.0, 43.2435
19.634865183, 96.390, 1808.0, 42.5206
19.661125748, 96.390, 1913.0, 43.7379
19.687386313, 96.390, 1878.0, 43.3359
19.713646879, 96.390, 1953.0, 44.1928
19.739907444, 96.390, 1956.0, 44.2267
19.766168009, 96.390, 1973.0, 44.4185
19.792428575, 96.390, 1986.0, 44.5646
19.818689140, 96.390, 2062.0, 45.4093
19.844949705, 96.390, 2071.0, 45.5082
19.871210271, 96.390, 2054.0, 45.3211
19.897470836, 96.390, 2161.0, 46.4866
19.923731401, 96.390, 2153.0, 46.4004
19.949991967, 96.390, 2229.0, 47.2123
19.976252532, 96.390, 2425.0, 49.2443
20.002513097, 96.390, 2391.0, 48.8979
20.028773663, 96.390, 2483.0, 49.8297
20.055034228, 96.390, 2462.0, 49.6185
20.081294794, 96.390, 2556.0, 50.5569
20.107555359, 96.390, 2573.0, 50.7247
20.133815924, 96.390, 2514.0, 50.1398
20.160076490, 96.390, 2573.0, 50.7247
20.186337055, 96.390, 2473.0, 49.7293
20.212597620, 96.390, 2348.0, 48.4562
20.238858186, 96.390, 2220.0, 47.1169
20.265118751, 96.390, 2101.0, 45.8367
20.291379316, 96.390, 2161.0, 46.4866
20.317639882, 96.390, 2018.0, 44.9222
20.343900447, 96.390, 1954.0, 44.2041
20.370161012, 96.390, 1936.0, 44.0000
20.396421578, 96.390, 1930.0, 43.9318
20.422682143, 96.390, 1858.0, 43.1045
20.448942709, 96.390, 1915.0, 43.7607
20.475203274, 96.390, 1820.0, 42.6615
20.501463839, 96.390, 1792.0, 42.3320
20.527724405, 96.390, 1873.0, 43.2782
20.553984970, 96.390, 1893.0, 43.5086
20.580245535, 96.390, 1919.0, 43.8064
20.606506101, 96.390, 1806.0, 42.4971
20.632766666, 96.390, 1811.0, 42.5558
20.659027231, 96.390, 1862.0, 43.1509
20.685287797, 96.390, 1849.0, 43.0000
20.711548362, 96.390, 1873.0, 43.2782
20.737808927, 96.390, 1874.0, 43.2897
20.764069493, 96.390, 1826.0, 42.7317
20.790330058, 96.390, 1883.0, 43.3935
20.816590623, 96.390, 1857.0, 43.0929
20.842851189, 96.390, 1959.0, 44.2606
20.869111754, 96.390, 1989.0, 44.5982
20.895372320, 96.390, 1880.0, 43.3590
20.921632885, 96.390, 1886.0, 43.4281
20.947893450, 96.390, 1880.0, 43.3590
20.974154016, 96.390, 1982.0, 44.5197
21.000414581, 96.390, 1903.0, 43.6234
21.026675146, 96.390, 1998.0, 44.6990
21.052935712, 96.390, 1959.0, 44.2606
21.079196277, 96.390, 1920.0, 43.8178
21.105456842, 96.390, 2033.0, 45.0888
21.131717408, 96.390, 1971.0, 44.3959
21.157977973, 96.390, 1997.0, 44.6878
21.184238538, 96.390, 1950.0, 44.1588
21.210499104, 96.390, 1983.0, 44.5309
21.236759669, 96.390, 1972.0, 44.4072
21.263020235, 96.390, 1957.0, 44.2380
21.289280800, 96.390, 1862.0, 43.1509
21.315541365, 96.390, 1972.0, 44.4072
21.341801931, 96.390, 1955.0, 44.2154
21.368062496, 96.390, 1932.0, 43.9545
21.394323061, 96.390, 1902.0, 43.6119
21.420583627, 96.390, 1946.0, 44.1135
21.446844192, 96.390, 1982.0, 44.5197
21.473104757, 96.390, 1953.0, 44.1928
21.499365323, 96.390, 2082.0, 45.6289
21.525625888, 96.390, 1976.0, 44.4522
21.551886453, 96.390, 1967.0, 44.3509
21.578147019, 96.390, 1964.0, 44.3170
21.604407584, 96.390, 2022.0, 44.9667
21.630668149, 96.390, 1981.0, 44.5084
21.656928715, 96.390, 1992.0, 44.6318
21.683189280, 96.390, 2030.0, 45.0555
21.709449846, 96.390, 1985.0, 44.5533
21.735710411, 96.390, 1963.0, 44.3058
21.761970976, 96.390, 2002.0, 44.7437
21.788231542, 96.390, 1994.0, 44.6542
21.814492107, 96.390, 1957.0, 44.2380
21.840752672, 96.390, 2080.0, 45.6070
21.867013238, 96.390, 2038.0, 45.1442
21.893273803, 96.390, 2028.0, 45.0333
21.919534368, 96.390, 1970.0, 44.3847
21.945794934, 96.390, 2016.0, 44.8999
21.972055499, 96.390, 2024.0, 44.9889
21.998316064, 96.390, 2039.0, 45.1553
22.024576630, 96.390, 2055.0, 45.3321
22.050837195, 96.390, 2012.0, 44.8553
22.077097761, 96.390, 2156.0, 46.4327
22.103358326, 96.390, 2083.0, 45.6399
22.129618891, 96.390, 2136.0, 46.2169
22.155879457, 96.390, 2053.0, 45.3100
22.182140022, 96.390, 2117.0, 46.0109
22.208400587, 96.390, 2187.0, 46.7654
22.234661153, 96.390, 2136.0, 46.2169
22.260921718, 96.390, 2276.0, 47.7074
22.287182283, 96.390, 2250.0, 47.4342
22.313442849, 96.390, 2305.0, 48.0104
22.339703414, 96.390, 2332.0, 48.2908
22.365963979, 96.390, 2260.0, 47.5395
22.392224545, 96.390, 2233.0, 47.2546
22.418485110, 96.390, 2232.0, 47.2440
22.444745675, 96.390, 2294.0, 47.8957
22.471006241, 96.390, 2387.0, 48.8569
22.497266806, 96.390, 2394.0, 48.9285
22.523527372, 96.390, 2332.0, 48.2908
22.549787937, 96.390, 2420.0, 49.1935
22.576048502, 96.390, 2424.0, 49.2341
22.602309068, 96.390, 2506.0, 50.0600
22.628569633, 96.390, 2499.0, 49.9900
22.654830198, 96.390, 2475.0, 49.7494
22.681090764, 96.390, 2566.0, 50.6557
22.707351329, 96.390, 2680.0, 51.7687
22.733611894, 96.390, 2645.0, 51.4296
22.759872460, 96.390, 2647.0, 51.4490
22.786133025, 96.390, 2711.0, 52.0673
22.812393590, 96.390, 2783.0, 52.7541
22.838654156, 96.390, 2827.0, 53.1695
22.864914721, 96.390, 2968.0, 54.4794
22.891175287, 96.390, 2773.0, 52.6593
22.917435852, 96.390, 2983.0, 54.6168
22.943696417, 96.390, 3055.0, 55.2721
22.969956983, 96.390, 3056.0, 55.2811
22.996217548, 96.390, 3115.0, 55.8122
23.022478113, 96.390, 3299.0, 57.4369
23.048738679, 96.390, 3324.0, 57.6541
23.074999244, 96.390, 3397.0, 58.2838
23.101259809, 96.390, 3564.0, 59.6992
23.127520375, 96.390, 3590.0, 59.9166
23.153780940, 96.390, 3744.0, 61.1882
23.180041505, 96.390, 3896.0, 62.4179
23.206302071, 96.390, 4002.0, 63.2614
23.232562636, 96.390, 4025.0, 63.4429
23.258823201, 96.390, 4162.0, 64.5136
23.285083767, 96.390, 4214.0, 64.9153
23.311344332, 96.390, 4218.0, 64.9461
23.337604898, 96.390, 4269.0, 65.3376
23.363865463, 96.390, 4172.0, 64.5910
23.390126028, 96.390, 4151.0, 64.4283
23.416386594, 96.390, 3991.0, 63.1744
23.442647159, 96.390, 3745.0, 61.1964
23.468907724, 96.390, 3783.0, 61.5061
23.495168290, 96.390, 3689.0, 60.7371
23.521428855, 96.390, 3586.0, 59.8832
23.547689420, 96.390, 3497.0, 59.1354
23.573949986, 96.390, 3505.0, 59.2030
23.600210551, 96.390, 3407.0, 58.3695
23.626471116, 96.390, 3227.0, 56.8067
23.652731682, 96.390, 3068.0, 55.3895
23.678992247, 96.390, 3102.0, 55.6956
23.705252813, 96.390, 3170.0, 56.3028
23.731513378, 96.390, 3086.0, 55.5518
23.757773943, 96.390, 2973.0, 54.5252
23.784034509, 96.390, 3040.0, 55.1362
23.810295074, 96.390, 2888.0, 53.7401
23.836555639, 96.390, 2842.0, 53.3104
23.862816205, 96.390, 2833.0, 53.2259
23.889076770, 96.390, 2833.0, 53.2259
23.915337335, 96.390, 2621.0, 51.1957
23.941597901, 96.390, 2614.0, 51.1273
23.967858466, 96.390, 2788.0, 52.8015
23.994119031, 96.390, 2660.0, 51.5752
24.020379597, 96.390, 2674.0, 51.7107
24.046640162, 96.390, 2666.0, 51.6333
24.072900727, 96.390, 2573.0, 50.7247
24.099161293, 96.390, 2556.0, 50.5569
24.125421858, 96.390, 2594.0, 50.9313
24.151682424, 96.390, 2589.0, 50.8822
24.177942989, 96.390, 2586.0, 50.8527
24.204203554, 96.390, 2570.0, 50.6952
24.230464120, 96.390, 2504.0, 50.0400
24.256724685, 96.390, 2607.0, 51.0588
24.282985250, 96.390, 2527.0, 50.2693
24.309245816, 96.390, 2810.0, 53.0094
24.335506381, 96.390, 2718.0, 52.1344
24.361766946, 96.390, 2819.0, 53.0943
24.388027512, 96.390, 2972.0, 54.5161
24.414288077, 96.390, 2980.0, 54.5894
24.440548642, 96.390, 3002.0, 54.7905
24.466809208, 96.390, 2932.0, 54.1479
24.493069773, 96.390, 2657.0, 51.5461
24.519330338, 96.390, 2699.0, 51.9519
24.545590904, 96.390, 2633.0, 51.3128
24.571851469, 96.390, 2434.0, 49.3356
24.598112035, 96.390, 2370.0, 48.6826
24.624372600, 96.390, 2413.0, 49.1223
24.650633165, 96.390, 2300.0, 47.9583
24.676893731, 96.390, 2266.0, 47.6025
24.703154296, 96.390, 2336.0, 48.3322
24.729414861, 96.390, 2180.0, 46.6905
24.755675427, 96.390, 2254.0, 47.4763
24.781935992, 96.390, 2181.0, 46.7012
24.808196557, 96.390, 2141.0, 46.2709
24.834457123, 96.390, 1996.0, 44.6766
24.860717688, 96.390, 2004.0, 44.7661
24.886978253, 96.390, 2110.0, 45.9347
24.913238819, 96.390, 2091.0, 45.7275
24.939499384, 96.390, 1996.0, 44.6766
24.965759950, 96.390, 1981.0, 44.5084
24.992020515, 96.390, 1980.0, 44.4972
25.018281080, 96.390, 1972.0, 44.4072
25.044541646, 96.390, 1968.0, 44.3621
25.070802211, 96.390, 1912.0, 43.7264
25.097062776, 96.390, 1888.0, 43.4511
25.123323342, 96.390, 1917.0, 43.7836
25.149583907, 96.390, 1874.0, 43.2897
25.175844472, 96.390, 1856.0, 43.0813
25.202105038, 96.390, 1956.0, 44.2267
25.228365603, 96.390, 1921.0, 43.8292
25.254626168, 96.390, 1834.0, 42.8252
25.280886734, 96.390, 1906.0, 43.6578
25.307147299, 96.390, 1876.0, 43.3128
25.333407864, 96.390, 1887.0, 43.4396
25.359668430, 96.390, 1925.0, 43.8748
25.385928995, 96.390, 1884.0, 43.4051
25.412189561, 96.390, 1890.0, 43.4741
25.438450126, 96.390, 1910.0, 43.7035
25.464710691, 96.390, 1875.0, 43.3013
25.490971257, 96.390, 1850.0, 43.0116
25.517231822, 96.390, 1901.0, 43.6005
25.543492387, 96.390, 1911.0, 43.7150
25.569752953, 96.390, 1884.0, 43.4051
25.596013518, 96.390, 1867.0, 43.2088
25.622274083, 96.390, 1890.0, 43.4741
25.648534649, 96.390, 1853.0, 43.0465
25.674795214, 96.390, 1896.0, 43.5431
25.701055779, 96.390, 1837.0, 42.8602
25.727316345, 96.390, 1819.0, 42.6497
25.753576910, 96.390, 1819.0, 42.6497
25.779837476, 96.390, 1847.0, 42.9767
25.806098041, 96.390, 1884.0, 43.4051
25.832358606, 96.390, 1892.0, 43.4971
25.858619172, 96.390, 1969.0, 44.3734
25.884879737, 96.390, 1917.0, 43.7836
25.911140302, 96.390, 1963.0, 44.3058
25.937400868, 96.390, 1983.0, 44.5309
25.963661433, 96.390, 1949.0, 44.1475
25.989921998, 96.390, 1971.0, 44.3959
26.016182564, 96.390, 2027.0, 45.0222
26.042443129, 96.390, 1999.0, 44.7102
26.068703694, 96.390, 2035.0, 45.1110
26.094964260, 96.390, 2015.0, 44.8888
26.121224825, 96.390, 2103.0, 45.8585
26.147485390, 96.390, 2081.0, 45.6180
26.173745956, 96.390, 2096.0, 45.7821
26.200006521, 96.390, 2166.0, 46.5403
26.226267087, 96.390, 2129.0, 46.1411
26.252527652, 96.390, 2169.0, 46.5725
26.278788217, 96.390, 2220.0, 47.1169
26.305048783, 96.390, 2247.0, 47.4025
26.331309348, 96.390, 2210.0, 47.0106
26.357569913, 96.390, 2368.0, 48.6621
26.383830479, 96.390, 2365.0, 48.6313
26.410091044, 96.390, 2439.0, 49.3862
26.436351609, 96.390, 2441.0, 49.4065
26.462612175, 96.390, 2542.0, 50.4183
26.488872740, 96.390, 2648.0, 51.4587
26.515133305, 96.390, 2662.0, 51.5946
26.541393871, 96.390, 2827.0, 53.1695
26.567654436, 96.390, 2998.0, 54.7540
26.593915002, 96.390, 3053.0, 55.2540
26.620175567, 96.390, 3257.0, 57.0701
26.646436132, 96.390, 3291.0, 57.3672
26.672696698, 96.390, 3322.0, 57.6368
26.698957263, 96.390, 3204.0, 56.6039
26.725217828, 96.390, 3350.0, 57.8792
26.751478394, 96.390, 3176.0, 56.3560
26.777738959, 96.390, 3082.0, 55.5158
26.803999524, 96.390, 2875.0, 53.6190
26.830260090, 96.390, 2744.0, 52.3832
26.856520655, 96.390, 2605.0, 51.0392
26.882781220, 96.390, 2637.0, 51.3517
26.909041786, 96.390, 2579.0, 50.7839
26.935302351, 96.390, 2365.0, 48.6313
26.961562916, 96.390, 2394.0, 48.9285
26.987823482, 96.390, 2301.0, 47.9687
27.014084047, 96.390, 2229.0, 47.2123
27.040344613, 96.390, 2134.0, 46.1952
27.066605178, 96.390, 2165.0, 46.5296
27.092865743, 96.390, 2159.0, 46.4650
27.119126309, 96.390, 2164.0, 46.5188
27.145386874, 96.390, 2052.0, 45.2990
27.171647439, 96.390, 2063.0, 45.4203
27.197908005, 96.390, 2070.0, 45.4973
27.224168570, 96.390, 2053.0, 45.3100
27.250429135, 96.390, 1977.0, 44.4635
27.276689701, 96.390, 1985.0, 44.5533
27.302950266, 96.390, 1932.0, 43.9545
27.329210831, 96.390, 1923.0, 43.8520
27.355471397, 96.390, 1882.0, 43.3820
27.381731962, 96.390, 1981.0, 44.5084
27.407992528, 96.390, 1929.0, 43.9204
27.434253093, 96.390, 1917.0, 43.7836
27.460513658, 96.390, 1890.0, 43.4741
27.486774224, 96.390, 1967.0, 44.3509
27.513034789, 96.390, 1891.0, 43.4856
27.539295354, 96.390, 1950.0, 44.1588
27.565555920, 96.390, 1897.0, 43.5546
27.591816485, 96.390, 1888.0, 43.4511
27.618077050, 96.390, 1896.0, 43.5431
27.644337616, 96.390, 1868.0, 43.2204
27.670598181, 96.390, 1862.0, 43.1509
27.696858746, 96.390, 1820.0, 42.6615
27.723119312, 96.390, 1934.0, 43.9773
27.749379877, 96.390, 1897.0, 43.5546
27.775640442, 96.390, 1888.0, 43.4511
27.801901008, 96.390, 1942.0, 44.0681
27.828161573, 96.390, 1866.0, 43.1972
27.854422139, 96.390, 1902.0, 43.6119
27.880682704, 96.390, 1872.0, 43.2666
27.906943269, 96.390, 1853.0, 43.0465
27.933203835, 96.390, 1933.0, 43.9659
27.959464400, 96.390, 1820.0, 42.6615
27.985724965, 96.390, 1920.0, 43.8178
28.011985531, 96.390, 1865.0, 43.1856
28.038246096, 96.390, 1854.0, 43.0581
28.064506661, 96.390, 1908.0, 43.6807
28.090767227, 96.390, 1988.0, 44.5870
28.117027792, 96.390, 1916.0, 43.7721
28.143288357, 96.390, 1995.0, 44.6654
28.169548923, 96.390, 1965.0, 44.3283
28.195809488, 96.390, 1923.0, 43.8520
28.222070054, 96.390, 2000.0, 44.7214
28.248330619, 96.390, 1911.0, 43.7150
28.274591184, 96.390, 2004.0, 44.7661
28.300851750, 96.390, 1996.0, 44.6766
28.327112315, 96.390, 2051.0, 45.2880
28.353372880, 96.390, 1969.0, 44.3734
28.379633446, 96.390, 2015.0, 44.8888
28.405894011, 96.390, 1958.0, 44.2493
28.432154576, 96.390, 1954.0, 44.2041
28.458415142, 96.390, 1985.0, 44.5533
28.484675707, 96.390, 1976.0, 44.4522
28.510936272, 96.390, 1893.0, 43.5086
28.537196838, 96.390, 1970.0, 44.3847
28.563457403, 96.390, 2006.0, 44.7884
28.589717968, 96.390, 2054.0, 45.3211
28.615978534, 96.390, 2007.0, 44.7996
28.642239099, 96.390, 1996.0, 44.6766
28.668499665, 96.390, 2047.0, 45.2438
28.694760230, 96.390, 1965.0, 44.3283
28.721020795, 96.390, 2099.0, 45.8148
28.747281361, 96.390, 2003.0, 44.7549
28.773541926, 96.390, 2063.0, 45.4203
28.799802491, 96.390, 2063.0, 45.4203
28.826063057, 96.390, 2047.0, 45.2438
28.852323622, 96.390, 2101.0, 45.8367
28.878584187, 96.390, 1984.0, 44.5421
28.904844753, 96.390, 2092.0, 45.7384
28.931105318, 96.390, 2243.0, 47.3603
28.957365883, 96.390, 2229.0, 47.2123
28.983626449, 96.390, 2310.0, 48.0625
29.009887014, 96.390, 2319.0, 48.1560
29.036147579, 96.390, 2374.0, 48.7237
29.062408145, 96.390, 2326.0, 48.2286
29.088668710, 96.390, 2410.0, 49.0918
29.114929276, 96.390, 2476.0, 49.7594
29.141189841, 96.390, 2504.0, 50.0400
29.167450406, 96.390, 2584.0, 50.8331
29.193710972, 96.390, 2603.0, 51.0196
29.219971537, 96.390, 2576.0, 50.7543
29.246232102, 96.390, 2641.0, 51.3907
29.272492668, 96.390, 2616.0, 51.1468
29.298753233, 96.390, 2675.0, 51.7204
29.325013798, 96.390, 2538.0, 50.3786
29.351274364, 96.390, 2597.0, 50.9608
29.377534929, 96.390, 2496.0, 49.9600
29.403795494, 96.390, 2502.0, 50.0200
29.430056060, 96.390, 2464.0, 49.6387
29.456316625, 96.390, 2398.0, 48.9694
29.482577191, 96.390, 2366.0, 48.6415
29.508837756, 96.390, 2386.0, 48.8467
29.535098321, 96.390, 2344.0, 48.4149
29.561358887, 96.390, 2335.0, 48.3218
29.587619452, 96.390, 2376.0, 48.7442
29.613880017, 96.390, 2329.0, 48.2597
29.640140583, 96.390, 2229.0, 47.2123
29.666401148, 96.390, 2211.0, 47.0213
29.692661713, 96.390, 2320.0, 48.1664
29.718922279, 96.390, 2254.0, 47.4763
29.745182844, 96.390, 2270.0, 47.6445
29.771443409, 96.390, 2278.0, 47.7284
29.797703975, 96.390, 2214.0, 47.0532
29.823964540, 96.390, 2251.0, 47.4447
29.850225105, 96.390, 2281.0, 47.7598
29.876485671, 96.390, 2246.0, 47.3920
29.902746236, 96.390, 2292.0, 47.8748
29.929006802, 96.390, 2292.0, 47.8748
29.955267367, 96.390, 2311.0, 48.0729
29.981527932, 96.390, 2312.0, 48.0833
30.007788498, 96.390, 2299.0, 47.9479
30.034049063, 96.390, 2332.0, 48.2908
30.060309628, 96.390, 2282.0, 47.7703
30.086570194, 96.390, 2295.0, 47.9062
30.112830759, 96.390, 2315.0, 48.1144
30.139091324, 96.390, 2331.0, 48.2804
30.165351890, 96.390, 2385.0, 48.8365
30.191612455, 96.390, 2494.0, 49.9400
30.217873020, 96.390, 2426.0, 49.2544
30.244133586, 96.390, 2521.0, 50.2096
30.270394151, 96.390, 2566.0, 50.6557
30.296654717, 96.390, 2377.0, 48.7545
30.322915282, 96.390, 2510.0, 50.0999
30.349175847, 96.390, 2655.0, 51.5267
30.375436413, 96.390, 2559.0, 50.5866
30.401696978, 96.390, 2602.0, 51.0098
30.427957543, 96.390, 2553.0, 50.5272
30.454218109, 96.390, 2702.0, 51.9808
30.480478674, 96.390, 2714.0, 52.0961
30.506739239, 96.390, 2630.0, 51.2835
30.532999805, 96.390, 2820.0, 53.1037
30.559260370, 96.390, 2862.0, 53.4977
30.585520935, 96.390, 2848.0, 53.3667
30.611781501, 96.390, 2824.0, 53.1413
30.638042066, 96.390, 2905.0, 53.8981
30.664302631, 96.390, 2948.0, 54.2955
30.690563197, 96.390, 3032.0, 55.0636
30.716823762, 96.390, 3120.0, 55.8570
30.743084328, 96.390, 3169.0, 56.2939
30.769344893, 96.390, 3275.0, 57.2276
30.795605458, 96.390, 3366.0, 58.0172
30.821866024, 96.390, 3324.0, 57.6541
30.848126589, 96.390, 3403.0, 58.3352
30.874387154, 96.390, 3391.0, 58.2323
30.900647720, 96.390, 3536.0, 59.4643
30.926908285, 96.390, 3367.0, 58.0259
30.953168850, 96.390, 3474.0, 58.9406
30.979429416, 96.390, 3367.0, 58.0259
31.005689981, 96.390, 3474.0, 58.9406
31.031950546, 96.390, 3402.0, 58.3267
31.058211112, 96.390, 3358.0, 57.9483
31.084471677, 96.390, 3331.0, 57.7148
31.110732243, 96.390, 3210.0, 56.6569
31.136992808, 96.390, 3134.0, 55.9821
31.163253373, 96.390, 3172.0, 56.3205
31.189513939, 96.390, 3114.0, 55.8032
31.215774504, 96.390, 2977.0, 54.5619
31.242035069, 96.390, 2917.0, 54.0093
31.268295635, 96.390, 2882.0, 53.6843
31.294556200, 96.390, 2779.0, 52.7162
31.320816765, 96.390, 2914.0, 53.9815
31.347077331, 96.390, 2806.0, 52.9717
31.373337896, 96.390, 2830.0, 53.1977
31.399598461, 96.390, 2836.0, 53.2541
31.425859027, 96.390, 2762.0, 52.5547
31.452119592, 96.390, 2725.0, 52.2015
31.478380157, 96.390, 2777.0, 52.6972
31.504640723, 96.390, 2720.0, 52.1536
31.530901288, 96.390, 2716.0, 52.1153
31.557161854, 96.390, 2747.0, 52.4118
31.583422419, 96.390, 2715.0, 52.1057
31.609682984, 96.390, 2747.0, 52.4118
31.635943550, 96.390, 2899.0, 53.8424
31.662204115, 96.390, 2774.0, 52.6688
31.688464680, 96.390, 2858.0, 53.4603
31.714725246, 96.390, 2770.0, 52.6308
31.740985811, 96.390, 2789.0, 52.8110
31.767246376, 96.390, 2837.0, 53.2635
31.793506942, 96.390, 2702.0, 51.9808
31.819767507, 96.390, 2609.0, 51.0784
31.846028072, 96.390, 2687.0, 51.8363
31.872288638, 96.390, 2620.0, 51.1859
31.898549203, 96.390, 2631.0, 51.2933
31.924809769, 96.390, 2531.0, 50.3090
31.951070334, 96.390, 2661.0, 51.5849
31.977330899, 96.390, 2572.0, 50.7149
32.003591465, 96.390, 2539.0, 50.3885
32.029852030, 96.390, 2534.0, 50.3389
32.056112595, 96.390, 2554.0, 50.5371
32.082373161, 96.390, 2547.0, 50.4678
32.108633726, 96.390, 2637.0, 51.3517
32.134894291, 96.390, 2512.0, 50.1199
32.161154857, 96.390, 2485.0, 49.8498
32.187415422, 96.390, 2566.0, 50.6557
32.213675987, 96.390, 2536.0, 50.3587
32.239936553, 96.390, 2657.0, 51.5461
32.266197118, 96.390, 2742.0, 52.3641
32.292457683, 96.390, 2732.0, 52.2685
32.318718249, 96.390, 2748.0, 52.4214
32.344978814, 96.390, 2729.0, 52.2398
32.371239380, 96.390, 2871.0, 53.5817
32.397499945, 96.390, 2771.0, 52.6403
32.423760510, 96.390, 2779.0, 52.7162
32.450021076, 96.390, 2746.0, 52.4023
32.476281641, 96.390, 2686.0, 51.8266
32.502542206, 96.390, 2627.0, 51.2543
32.528802772, 96.390, 2564.0, 50.6360
32.555063337, 96.390, 2569.0, 50.6853
32.581323902, 96.390, 2489.0, 49.8899
32.607584468, 96.390, 2502.0, 50.0200
32.633845033, 96.390, 2357.0, 48.5489
32.660105598, 96.390, 2277.0, 47.7179
32.686366164, 96.390, 2223.0, 47.1487
32.712626729, 96.390, 2164.0, 46.5188
32.738887295, 96.390, 2293.0, 47.8853
32.765147860, 96.390, 2250.0, 47.4342
32.791408425, 96.390, 2199.0, 46.8935
32.817668991, 96.390, 2116.0, 46.0000
32.843929556, 96.390, 2082.0, 45.6289
32.870190121, 96.390, 2088.0, 45.6946
32.896450687, 96.390, 2137.0, 46.2277
32.922711252, 96.390, 2201.0, 46.9148
32.948971817, 96.390, 2158.0, 46.4543
32.975232383, 96.390, 2132.0, 46.1736
33.001492948, 96.390, 2128.0, 46.1303
33.027753513, 96.390, 2228.0, 47.2017
33.054014079, 96.390, 2108.0, 45.9130
33.080274644, 96.390, 2144.0, 46.3033
33.106535209, 96.390, 2184.0, 46.7333
33.132795775, 96.390, 2191.0, 46.8081
33.159056340, 96.390, 2206.0, 46.9681
33.185316906, 96.390, 2140.0, 46.2601
33.211577471, 96.390, 2220.0, 47.1169
33.237838036, 96.390, 2202.0, 46.9255
33.264098602, 96.390, 2265.0, 47.5920
33.290359167, 96.390, 2352.0, 48.4974
33.316619732, 96.390, 2311.0, 48.0729
33.342880298, 96.390, 2539.0, 50.3885
33.369140863, 96.390, 2531.0, 50.3090
33.395401428, 96.390, 2450.0, 49.4975
33.421661994, 96.390, 2545.0, 50.4480
33.447922559, 96.390, 2584.0, 50.8331
33.474183124, 96.390, 2562.0, 50.6162
33.500443690, 96.390, 2707.0, 52.0288
33.526704255, 96.390, 2692.0, 51.8845
33.552964820, 96.390, 3220.0, 56.7450
33.579225386, 96.390, 3598.0, 59.9833
33.605485951, 96.390, 3151.0, 56.1338
33.631746517, 96.390, 2891.0, 53.7680
33.658007082, 96.390, 3086.0, 55.5518
33.684267647, 96.390, 2971.0, 54.5069
33.710528213, 96.390, 2555.0, 50.5470
33.736788778, 96.390, 2479.0, 49.7896
33.763049343, 96.390, 2500.0, 50.0000
33.789309909, 96.390, 2463.0, 49.6286
33.815570474, 96.390, 2444.0, 49.4368
33.841831039, 96.390, 2570.0, 50.6952
33.868091605, 96.390, 2389.0, 48.8774
33.894352170, 96.390, 2456.0, 49.5580
33.920612735, 96.390, 2362.0, 48.6004
33.946873301, 96.390, 2420.0, 49.1935
33.973133866, 96.390, 2471.0, 49.7092
33.999394432, 96.390, 2461.0, 49.6085
34.025654997, 96.390, 2502.0, 50.0200
34.051915562, 96.390, 2377.0, 48.7545
34.078176128, 96.390, 2451.0, 49.5076
34.104436693, 96.390, 2465.0, 49.6488
34.130697258, 96.390, 2437.0, 49.3660
34.156957824, 96.390, 2512.0, 50.1199
34.183218389, 96.390, 2630.0, 51.2835
34.209478954, 96.390, 2575.0, 50.7445
34.235739520, 96.390, 2586.0, 50.8527
34.262000085, 96.390, 2553.0, 50.5272
34.288260650, 96.390, 2587.0, 50.8626
34.314521216, 96.390, 2543.0, 50.4282
34.340781781, 96.390, 2643.0, 51.4101
34.367042346, 96.390, 2621.0, 51.1957
34.393302912, 96.390, 2573.0, 50.7247
34.419563477, 96.390, 2685.0, 51.8170
34.445824043, 96.390, 2758.0, 52.5167
34.472084608, 96.390, 2716.0, 52.1153
34.498345173, 96.390, 2650.0, 51.4782
34.524605739, 96.390, 2711.0, 52.0673
34.550866304, 96.390, 2761.0, 52.5452
34.577126869, 96.390, 2803.0, 52.9434
34.603387435, 96.390, 2868.0, 53.5537
34.629648000, 96.390, 2847.0, 53.3573
34.655908565, 96.390, 2917.0, 54.0093
34.682169131, 96.390, 2921.0, 54.0463
34.708429696, 96.390, 2956.0, 54.3691
34.734690261, 96.390, 2974.0, 54.5344
34.760950827, 96.390, 3006.0, 54.8270
34.787211392, 96.390, 3034.0, 55.0818
34.813471958, 96.390, 3083.0, 55.5248
34.839732523, 96.390, 3047.0, 55.1996
34.865993088, 96.390, 2981.0, 54.5985
34.892253654, 96.390, 2878.0, 53.6470
34.918514219, 96.390, 2855.0, 53.4322
34.944774784, 96.390, 2868.0, 53.5537
34.971035350, 96.390, 2786.0, 52.7826
34.997295915, 96.390, 2887.0, 53.7308
35.023556480, 96.390, 2790.0, 52.8205
35.049817046, 96.390, 2706.0, 52.0192
35.076077611, 96.390, 2651.0, 51.4879
35.102338176, 96.390, 2653.0, 51.5073
35.128598742, 96.390, 2634.0, 51.3225
35.154859307, 96.390, 2656.0, 51.5364
35.181119872, 96.390, 2646.0, 51.4393
35.207380438, 96.390, 2554.0, 50.5371
35.233641003, 96.390, 2619.0, 51.1762
35.259901569, 96.390, 2554.0, 50.5371
35.286162134, 96.390, 2549.0, 50.4876
35.312422699, 96.390, 2467.0, 49.6689
35.338683265, 96.390, 2554.0, 50.5371
35.364943830, 96.390, 2484.0, 49.8397
35.391204395, 96.390, 2374.0, 48.7237
35.417464961, 96.390, 2409.0, 49.0816
35.443725526, 96.390, 2435.0, 49.3457
35.469986091, 96.390, 2502.0, 50.0200
35.496246657, 96.390, 2409.0, 49.0816
35.522507222, 96.390, 2360.0, 48.5798
35.548767787, 96.390, 2343.0, 48.4045
35.575028353, 96.390, 2363.0, 48.6107
35.601288918, 96.390, 2295.0, 47.9062
35.627549484, 96.390, 2286.0, 47.8121
35.653810049, 96.390, 2250.0, 47.4342
35.680070614, 96.390, 2198.0, 46.8828
35.706331180, 96.390, 2204.0, 46.9468
35.732591745, 96.390, 2152.0, 46.3897
35.758852310, 96.390, 2214.0, 47.0532
35.785112876, 96.390, 2220.0, 47.1169
35.811373441, 96.390, 2217.0, 47.0850
35.837634006, 96.390, 2148.0, 46.3465
35.863894572, 96.390, 2082.0, 45.6289
35.890155137, 96.390, 2077.0, 45.5741
35.916415702, 96.390, 2227.0, 47.1911
35.942676268, 96.390, 2173.0, 46.6154
35.968936833, 96.390, 2126.0, 46.1086
35.995197398, 96.390, 2136.0, 46.2169
36.021457964, 96.390, 2143.0, 46.2925
36.047718529, 96.390, 2188.0, 46.7761
36.073979095, 96.390, 2103.0, 45.8585
36.100239660, 96.390, 2124.0, 46.0869
36.126500225, 96.390, 2122.0, 46.0652
36.152760791, 96.390, 2172.0, 46.6047
36.179021356, 96.390, 2087.0, 45.6837
36.205281921, 96.390, 2177.0, 46.6583
36.231542487, 96.390, 2164.0, 46.5188
36.257803052, 96.390, 2233.0, 47.2546
36.284063617, 96.390, 2290.0, 47.8539
36.310324183, 96.390, 2223.0, 47.1487
36.336584748, 96.390, 2295.0, 47.9062
36.362845313, 96.390, 2076.0, 45.5631
36.389105879, 96.390, 2198.0, 46.8828
36.415366444, 96.390, 2169.0, 46.5725
36.441627010, 96.390, 2219.0, 47.1063
36.467887575, 96.390, 2101.0, 45.8367
36.494148140, 96.390, 2091.0, 45.7275
36.520408706, 96.390, 2198.0, 46.8828
36.546669271, 96.390, 2108.0, 45.9130
36.572929836, 96.390, 2154.0, 46.4112
36.599190402, 96.390, 2150.0, 46.3681
36.625450967, 96.390, 2173.0, 46.6154
36.651711532, 96.390, 2108.0, 45.9130
36.677972098, 96.390, 2129.0, 46.1411
36.704232663, 96.390, 2187.0, 46.7654
36.730493228, 96.390, 2180.0, 46.6905
36.756753794, 96.390, 2067.0, 45.4643
36.783014359, 96.390, 2071.0, 45.5082
36.809274924, 96.390, 2081.0, 45.6180
36.835535490, 96.390, 2168.0, 46.5618
36.861796055, 96.390, 2004.0, 44.7661
36.888056621, 96.390, 2021.0, 44.9555
36.914317186, 96.390, 2116.0, 46.0000
36.940577751, 96.390, 2089.0, 45.7056
36.966838317, 96.390, 1978.0, 44.4747
36.993098882, 96.390, 2014.0, 44.8776
37.019359447, 96.390, 2082.0, 45.6289
37.045620013, 96.390, 2054.0, 45.3211
37.071880578, 96.390, 2067.0, 45.4643
37.098141143, 96.390, 2038.0, 45.1442
37.124401709, 96.390, 2052.0, 45.2990
37.150662274, 96.390, 2109.0, 45.9239
37.176922839, 96.390, 2121.0, 46.0543
37.203183405, 96.390, 2095.0, 45.7712
37.229443970, 96.390, 1929.0, 43.9204
37.255704535, 96.390, 2091.0, 45.7275
37.281965101, 96.390, 2006.0, 44.7884
37.308225666, 96.390, 2012.0, 44.8553
37.334486232, 96.390, 2056.0, 45.3431
37.360746797, 96.390, 2075.0, 45.5522
37.387007362, 96.390, 2037.0, 45.1331
37.413267928, 96.390, 2048.0, 45.2548
37.439528493, 96.390, 2034.0, 45.0999
37.465789058, 96.390, 2008.0, 44.8107
37.492049624, 96.390, 2080.0, 45.6070
37.518310189, 96.390, 1956.0, 44.2267
37.544570754, 96.390, 1977.0, 44.4635
37.570831320, 96.390, 1999.0, 44.7102
37.597091885, 96.390, 1982.0, 44.5197
37.623352450, 96.390, 2021.0, 44.9555
37.649613016, 96.390, 2098.0, 45.8039
37.675873581, 96.390, 1971.0, 44.3959
37.702134147, 96.390, 2014.0, 44.8776
37.728394712, 96.390, 2101.0, 45.8367
37.754655277, 96.390, 2080.0, 45.6070
37.780915843, 96.390, 2064.0, 45.4313
37.807176408, 96.390, 2117.0, 46.0109
37.833436973, 96.390, 2077.0, 45.5741
37.859697539, 96.390, 2179.0, 46.6798
37.885958104, 96.390, 2193.0, 46.8295
37.912218669, 96.390, 2214.0, 47.0532
37.938479235, 96.390, 2330.0, 48.2701
37.964739800, 96.390, 2225.0, 47.1699
37.991000365, 96.390, 2318.0, 48.1456
38.017260931, 96.390, 2151.0, 46.3789
38.043521496, 96.390, 2075.0, 45.5522
38.069782061, 96.390, 2056.0, 45.3431
38.096042627, 96.390, 2023.0, 44.9778
38.122303192, 96.390, 1943.0, 44.0795
38.148563758, 96.390, 1917.0, 43.7836
38.174824323, 96.390, 1928.0, 43.9090
38.201084888, 96.390, 1918.0, 43.7950
38.227345454, 96.390, 1876.0, 43.3128
38.253606019, 96.390, 1852.0, 43.0349
38.279866584, 96.390, 1822.0, 42.6849
38.306127150, 96.390, 1839.0, 42.8836
38.332387715, 96.390, 1876.0, 43.3128
38.358648280, 96.390, 1825.0, 42.7200
38.384908846, 96.390, 1764.0, 42.0000
38.411169411, 96.390, 1774.0, 42.1189
38.437429976, 96.390, 1840.0, 42.8952
38.463690542, 96.390, 1817.0, 42.6263
38.489951107, 96.390, 1774.0, 42.1189
38.516211673, 96.390, 1782.0, 42.2137
38.542472238, 96.390, 1842.0, 42.9185
38.568732803, 96.390, 1769.0, 42.0595
38.594993369, 96.390, 1731.0, 41.6053
38.621253934, 96.390, 1827.0, 42.7434
38.647514499, 96.390, 1862.0, 43.1509
38.673775065, 96.390, 1823.0, 42.6966
38.700035630, 96.390, 1784.0, 42.2374
38.726296195, 96.390, 1743.0, 41.7493
38.752556761, 96.390, 1684.0, 41.0366
38.778817326, 96.390, 1755.0, 41.8927
38.805077891, 96.390, 1733.0, 41.6293
38.831338457, 96.390, 1702.0, 41.2553
38.857599022, 96.390, 1684.0, 41.0366
38.883859587, 96.390, 1748.0, 41.8091
38.910120153, 96.390, 1762.0, 41.9762
38.936380718, 96.390, 1681.0, 41.0000
38.962641284, 96.390, 1674.0, 40.9145
38.988901849, 96.390, 1744.0, 41.7612
39.015162414, 96.390, 1681.0, 41.0000
39.041422980, 96.390, 1735.0, 41.6533
39.067683545, 96.390, 1620.0, 40.2492
39.093944110, 96.390, 1683.0, 41.0244
39.120204676, 96.390, 1683.0, 41.0244
39.146465241, 96.390, 1649.0, 40.6079
39.172725806, 96.390, 1647.0, 40.5832
39.198986372, 96.390, 1678.0, 40.9634
39.225246937, 96.390, 1705.0, 41.2916
39.251507502, 96.390, 1706.0, 41.3038
39.277768068, 96.390, 1667.0, 40.8289
39.304028633, 96.390, 1713.0, 41.3884
39.330289199, 96.390, 1650.0, 40.6202
39.356549764, 96.390, 1705.0, 41.2916
39.382810329, 96.390, 1688.0, 41.0853
39.409070895, 96.390, 1638.0, 40.4722
39.435331460, 96.390, 1575.0, 39.6863
39.461592025, 96.390, 1664.0, 40.7922
39.487852591, 96.390, 1657.0, 40.7063
39.514113156, 96.390, 1672.0, 40.8901
39.540373721, 96.390, 1655.0, 40.6817
39.566634287, 96.390, 1662.0, 40.7676
39.592894852, 96.390, 1652.0, 40.6448
39.619155417, 96.390, 1629.0, 40.3609
39.645415983, 96.390, 1667.0, 40.8289
39.671676548, 96.390, 1647.0, 40.5832
39.697937113, 96.390, 1705.0, 41.2916
39.724197679, 96.390, 1698.0, 41.2068
39.750458244, 96.390, 1661.0, 40.7554
39.776718810, 96.390, 1673.0, 40.9023
39.802979375, 96.390, 1694.0, 41.1582
39.829239940, 96.390, 1655.0, 40.6817
39.855500506, 96.390, 1646.0, 40.5709
39.881761071, 96.390, 1620.0, 40.2492
39.908021636, 96.390, 1675.0, 40.9268
39.934282202, 96.390, 1651.0, 40.6325
39.960542767, 96.390, 1728.0, 41.5692
39.986803332, 96.390, 1693.0, 41.1461
40.013063898, 96.390, 1595.0, 39.9375
40.039324463, 96.390, 1629.0, 40.3609
40.065585028, 96.390, 1642.0, 40.5216
40.091845594, 96.390, 1662.0, 40.7676
40.118106159, 96.390, 1729.0, 41.5812
40.144366725, 96.390, 1702.0, 41.2553
40.170627290, 96.390, 1588.0, 39.8497
40.196887855, 96.390, 1767.0, 42.0357
40.223148421, 96.390, 1760.0, 41.9524
40.249408986, 96.390, 1751.0, 41.8450
40.275669551, 96.390, 1757.0, 41.9166
40.301930117, 96.390, 1759.0, 41.9404
40.328190682, 96.390, 1777.0, 42.1545
40.354451247, 96.390, 1759.0, 41.9404
40.380711813, 96.390, 1701.0, 41.2432
40.406972378, 96.390, 1668.0, 40.8412
40.433232943, 96.390, 1649.0, 40.6079
40.459493509, 96.390, 1630.0, 40.3733
40.485754074, 96.390, 1653.0, 40.6571
40.512014639, 96.390, 1625.0, 40.3113
40.538275205, 96.390, 1727.0, 41.5572
40.564535770, 96.390, 1714.0, 41.4005
40.590796336, 96.390, 1752.0, 41.8569
40.617056901, 96.390, 1753.0, 41.8688
40.643317466, 96.390, 1799.0, 42.4146
40.669578032, 96.390, 1822.0, 42.6849
40.695838597, 96.390, 1831.0, 42.7902
40.722099162, 96.390, 1850.0, 43.0116
40.748359728, 96.390, 1870.0, 43.2435
40.774620293, 96.390, 1810.0, 42.5441
40.800880858, 96.390, 1921.0, 43.8292
40.827141424, 96.390, 1908.0, 43.6807
40.853401989, 96.390, 1959.0, 44.2606
40.879662554, 96.390, 1932.0, 43.9545
40.905923120, 96.390, 1892.0, 43.4971
40.932183685, 96.390, 1864.0, 43.1741
40.958444251, 96.390, 1879.0, 43.3474
40.984704816, 96.390, 1834.0, 42.8252
41.010965381, 96.390, 1777.0, 42.1545
41.037225947, 96.390, 1853.0, 43.0465
41.063486512, 96.390, 1773.0, 42.1070
41.089747077, 96.390, 1671.0, 40.8779
41.116007643, 96.390, 1767.0, 42.0357
41.142268208, 96.390, 1793.0, 42.3438
41.168528773, 96.390, 1743.0, 41.7493
41.194789339, 96.390, 1747.0, 41.7971
41.221049904, 96.390, 1708.0, 41.3280
41.247310469, 96.390, 1769.0, 42.0595
41.273571035, 96.390, 1719.0, 41.4608
41.299831600, 96.390, 1747.0, 41.7971
41.326092165, 96.390, 1814.0, 42.5911
41.352352731, 96.390, 1843.0, 42.9302
41.378613296, 96.390, 1871.0, 43.2551
41.404873862, 96.390, 1792.0, 42.3320
41.431134427, 96.390, 1781.0, 42.2019
41.457394992, 96.390, 1688.0, 41.0853
41.483655558, 96.390, 1751.0, 41.8450
41.509916123, 96.390, 1757.0, 41.9166
41.536176688, 96.390, 1755.0, 41.8927
41.562437254, 96.390, 1794.0, 42.3556
41.588697819, 96.390, 1642.0, 40.5216
41.614958384, 96.390, 1699.0, 41.2189
41.641218950, 96.390, 1579.0, 39.7366
41.667479515, 96.390, 1619.0, 40.2368
41.693740080, 96.390, 1571.0, 39.6358
41.720000646, 96.390, 1688.0, 41.0853
41.746261211, 96.390, 1616.0, 40.1995
41.772521776, 96.390, 1642.0, 40.5216
41.798782342, 96.390, 1636.0, 40.4475
41.825042907, 96.390, 1696.0, 41.1825
41.851303473, 96.390, 1574.0, 39.6737
41.877564038, 96.390, 1491.0, 38.6135
41.903824603, 96.390, 1583.0, 39.7869
41.930085169, 96.390, 1536.0, 39.1918
41.956345734, 96.390, 1644.0, 40.5463
41.982606299, 96.390, 1598.0, 39.9750
42.008866865, 96.390, 1558.0, 39.4715
42.035127430, 96.390, 1577.0, 39.7115
42.061387995, 96.390, 1587.0, 39.8372
42.087648561, 96.390, 1579.0, 39.7366
42.113909126, 96.390, 1671.0, 40.8779
42.140169691, 96.390, 1587.0, 39.8372
42.166430257, 96.390, 1525.0, 39.0512
42.192690822, 96.390, 1644.0, 40.5463
42.218951388, 96.390, 1472.0, 38.3667
42.245211953, 96.390, 1602.0, 40.0250
42.271472518, 96.390, 1533.0, 39.1535
42.297733084, 96.390, 1527.0, 39.0768
42.323993649, 96.390, 1542.0, 39.2683
42.350254214, 96.390, 1556.0, 39.4462
42.376514780, 96.390, 1502.0, 38.7556
42.402775345, 96.390, 1521.0, 39.0000
42.429035910, 96.390, 1526.0, 39.0640
42.455296476, 96.390, 1523.0, 39.0256
42.481557041, 96.390, 1568.0, 39.5980
42.507817606, 96.390, 1575.0, 39.6863
42.534078172, 96.390, 1541.0, 39.2556
42.560338737, 96.390, 1517.0, 38.9487
42.586599302, 96.390, 1546.0, 39.3192
42.612859868, 96.390, 1536.0, 39.1918
42.639120433, 96.390, 1524.0, 39.0384
42.665380999, 96.390, 1531.0, 39.1280
42.691641564, 96.390, 1554.0, 39.4208
42.717902129, 96.390, 1527.0, 39.0768
42.744162695, 96.390, 1514.0, 38.9102
42.770423260, 96.390, 1607.0, 40.0874
42.796683825, 96.390, 1567.0, 39.5854
42.822944391, 96.390, 1597.0, 39.9625
42.849204956, 96.390, 1629.0, 40.3609
42.875465521, 96.390, 1663.0, 40.7799
42.901726087, 96.390, 1681.0, 41.0000
42.927986652, 96.390, 1645.0, 40.5586
42.954247217, 96.390, 1627.0, 40.3361
42.980507783, 96.390, 1623.0, 40.2865
43.006768348, 96.390, 1620.0, 40.2492
43.033028914, 96.390, 1626.0, 40.3237
43.059289479, 96.390, 1587.0, 39.8372
43.085550044, 96.390, 1601.0, 40.0125
43.111810610, 96.390, 1614.0, 40.1746
43.138071175, 96.390, 1512.0, 38.8844
43.164331740, 96.390, 1510.0, 38.8587
43.190592306, 96.390, 1446.0, 38.0263
43.216852871, 96.390, 1467.0, 38.3014
43.243113436, 96.390, 1414.0, 37.6032
43.269374002, 96.390, 1335.0, 36.5377
43.295634567, 96.390, 1400.0, 37.4166
43.321895132, 96.390, 1423.0, 37.7227
43.348155698, 96.390, 1467.0, 38.3014
43.374416263, 96.390, 1315.0, 36.2629
43.400676828, 96.390, 1396.0, 37.3631
43.426937394, 96.390, 1376.0, 37.0945
43.453197959, 96.390, 1325.0, 36.4005
43.479458525, 96.390, 1429.0, 37.8021
43.505719090, 96.390, 1388.0, 37.2559
43.531979655, 96.390, 1483.0, 38.5097
43.558240221, 96.390, 1328.0, 36.4417
43.584500786, 96.390, 1332.0, 36.4966
43.610761351, 96.390, 1379.0, 37.1349
43.637021917, 96.390, 1330.0, 36.4692
43.663282482, 96.390, 1359.0, 36.8646
43.689543047, 96.390, 1406.0, 37.4967
43.715803613, 96.390, 1343.0, 36.6470
43.742064178, 96.390, 1375.0, 37.0810
43.768324743, 96.390, 1390.0, 37.2827
43.794585309, 96.390, 1331.0, 36.4829
43.820845874, 96.390, 1322.0, 36.3593
43.847106440, 96.390, 1380.0, 37.1484
43.873367005, 96.390, 1372.0, 37.0405
43.899627570, 96.390, 1396.0, 37.3631
43.925888136, 96.390, 1381.0, 37.1618
43.952148701, 96.390, 1407.0, 37.5100
43.978409266, 96.390, 1394.0, 37.3363
44.004669832, 96.390, 1391.0, 37.2961
44.030930397, 96.390, 1307.0, 36.1525
44.057190962, 96.390, 1319.0, 36.3180
44.083451528, 96.390, 1296.0, 36.0000
44.109712093, 96.390, 1322.0, 36.3593
44.135972658, 96.390, 1306.0, 36.1386
44.162233224, 96.390, 1260.0, 35.4965
44.188493789, 96.390, 1283.0, 35.8190
44.214754354, 96.390, 1300.0, 36.0555
44.241014920, 96.390, 1291.0, 35.9305
44.267275485, 96.390, 1340.0, 36.6060
44.293536051, 96.390, 1362.0, 36.9053
44.319796616, 96.390, 1330.0, 36.4692
44.346057181, 96.390, 1320.0, 36.3318
44.372317747, 96.390, 1297.0, 36.0139
44.398578312, 96.390, 1269.0, 35.6230
44.424838877, 96.390, 1334.0, 36.5240
44.451099443, 96.390, 1286.0, 35.8608
44.477360008, 96.390, 1258.0, 35.4683
44.503620573, 96.390, 1262.0, 35.5246
44.529881139, 96.390, 1310.0, 36.1939
44.556141704, 96.390, 1310.0, 36.1939
44.582402269, 96.390, 1291.0, 35.9305
44.608662835, 96.390, 1317.0, 36.2905
44.634923400, 96.390, 1261.0, 35.5106
44.661183966, 96.390, 1275.0, 35.7071
44.687444531, 96.390, 1294.0, 35.9722
44.713705096, 96.390, 1318.0, 36.3043
44.739965662, 96.390, 1323.0, 36.3731
44.766226227, 96.390, 1357.0, 36.8375
44.792486792, 96.390, 1267.0, 35.5949
44.818747358, 96.390, 1375.0, 37.0810
44.845007923, 96.390, 1359.0, 36.8646
44.871268488, 96.390, 1291.0, 35.9305
44.897529054, 96.390, 1335.0, 36.5377
44.923789619, 96.390, 1332.0, 36.4966
44.950050184, 96.390, 1396.0, 37.3631
44.976310750, 96.390, 1360.0, 36.8782
45.002571315, 96.390, 1414.0, 37.6032
45.028831880, 96.390, 1425.0, 37.7492
45.055092446, 96.390, 1443.0, 37.9868
45.081353011, 96.390, 1489.0, 38.5876
45.107613577, 96.390, 1449.0, 38.0657
45.133874142, 96.390, 1433.0, 37.8550
45.160134707, 96.390, 1560.0, 39.4968
45.186395273, 96.390, 1426.0, 37.7624
45.212655838, 96.390, 1498.0, 38.7040
45.238916403, 96.390, 1501.0, 38.7427
45.265176969, 96.390, 1398.0, 37.3898
45.291437534, 96.390, 1473.0, 38.3797
45.317698099, 96.390, 1449.0, 38.0657
45.343958665, 96.390, 1402.0, 37.4433
45.370219230, 96.390, 1448.0, 38.0526
45.396479795, 96.390, 1438.0, 37.9210
45.422740361, 96.390, 1373.0, 37.0540
45.449000926, 96.390, 1414.0, 37.6032
45.475261492, 96.390, 1414.0, 37.6032
45.501522057, 96.390, 1362.0, 36.9053
45.527782622, 96.390, 1366.0, 36.9594
45.554043188, 96.390, 1373.0, 37.0540
45.580303753, 96.390, 1331.0, 36.4829
45.606564318, 96.390, 1416.0, 37.6298
45.632824884, 96.390, 1366.0, 36.9594
45.659085449, 96.390, 1375.0, 37.0810
45.685346014, 96.390, 1365.0, 36.9459
45.711606580, 96.390, 1393.0, 37.3229
45.737867145, 96.390, 1353.0, 36.7831
45.764127710, 96.390, 1311.0, 36.2077
45.790388276, 96.390, 1313.0, 36.2353
45.816648841, 96.390, 1326.0, 36.4143
45.842909406, 96.390, 1378.0, 37.1214
45.869169972, 96.390, 1310.0, 36.1939
45.895430537, 96.390, 1380.0, 37.1484
45.921691103, 96.390, 1364.0, 36.9324
45.947951668, 96.390, 1333.0, 36.5103
45.974212233, 96.390, 1336.0, 36.5513
46.000472799, 96.390, 1357.0, 36.8375
46.026733364, 96.390, 1359.0, 36.8646
46.052993929, 96.390, 1330.0, 36.4692
46.079254495, 96.390, 1372.0, 37.0405
46.105515060, 96.390, 1457.0, 38.1707
46.131775625, 96.390, 1339.0, 36.5923
46.158036191, 96.390, 1474.0, 38.3927
46.184296756, 96.390, 1475.0, 38.4057
46.210557321, 96.390, 1375.0, 37.0810
46.236817887, 96.390, 1471.0, 38.3536
46.263078452, 96.390, 1440.0, 37.9473
46.289339017, 96.390, 1504.0, 38.7814
46.315599583, 96.390, 1492.0, 38.6264
46.341860148, 96.390, 1369.0, 37.0000
46.368120714, 96.390, 1396.0, 37.3631
46.394381279, 96.390, 1416.0, 37.6298
46.420641844, 96.390, 1446.0, 38.0263
46.446902410, 96.390, 1488.0, 38.5746
46.473162975, 96.390, 1440.0, 37.9473
46.499423540, 96.390, 1444.0, 38.0000
46.525684106, 96.390, 1397.0, 37.3765
46.551944671, 96.390, 1383.0, 37.1887
46.578205236, 96.390, 1436.0, 37.8946
46.604465802, 96.390, 1376.0, 37.0945
46.630726367, 96.390, 1414.0, 37.6032
46.656986932, 96.390, 1454.0, 38.1314
46.683247498, 96.390, 1353.0, 36.7831
46.709508063, 96.390, 1361.0, 36.8917
46.735768629, 96.390, 1385.0, 37.2156
46.762029194, 96.390, 1373.0, 37.0540
46.788289759, 96.390, 1350.0, 36.7423
46.814550325, 96.390, 1362.0, 36.9053
46.840810890, 96.390, 1401.0, 37.4299
46.867071455, 96.390, 1387.0, 37.2424
46.893332021, 96.390, 1350.0, 36.7423
46.919592586, 96.390, 1376.0, 37.0945
46.945853151, 96.390, 1380.0, 37.1484
46.972113717, 96.390, 1372.0, 37.0405
46.998374282, 96.390, 1425.0, 37.7492
47.024634847, 96.390, 1385.0, 37.2156
47.050895413, 96.390, 1432.0, 37.8418
47.077155978, 96.390, 1454.0, 38.1314
47.103416543, 96.390, 1357.0, 36.8375
47.129677109, 96.390, 1420.0, 37.6829
47.155937674, 96.390, 1379.0, 37.1349
47.182198240, 96.390, 1360.0, 36.8782
47.208458805, 96.390, 1373.0, 37.0540
47.234719370, 96.390, 1308.0, 36.1663
47.260979936, 96.390, 1341.0, 36.6197
47.287240501, 96.390, 1351.0, 36.7560
47.313501066, 96.390, 1400.0, 37.4166
47.339761632, 96.390, 1363.0, 36.9188
47.366022197, 96.390, 1347.0, 36.7015
47.392282762, 96.390, 1318.0, 36.3043
47.418543328, 96.390, 1363.0, 36.9188
47.444803893, 96.390, 1305.0, 36.1248
47.471064458, 96.390, 1333.0, 36.5103
47.497325024, 96.390, 1328.0, 36.4417
47.523585589, 96.390, 1304.0, 36.1109
47.549846155, 96.390, 1285.0, 35.8469
47.576106720, 96.390, 1284.0, 35.8329
47.602367285, 96.390, 1272.0, 35.6651
47.628627851, 96.390, 1245.0, 35.2846
47.654888416, 96.390, 1263.0, 35.5387
47.681148981, 96.390, 1298.0, 36.0278
47.707409547, 96.390, 1256.0, 35.4401
47.733670112, 96.390, 1265.0, 35.5668
47.759930677, 96.390, 1333.0, 36.5103
47.786191243, 96.390, 1249.0, 35.3412
47.812451808, 96.390, 1231.0, 35.0856
47.838712373, 96.390, 1236.0, 35.1568
47.864972939, 96.390, 1347.0, 36.7015
47.891233504, 96.390, 1329.0, 36.4555
47.917494069, 96.390, 1421.0, 37.6962
47.943754635, 96.390, 1317.0, 36.2905
47.970015200, 96.390, 1202.0, 34.6699
47.996275766, 96.390, 1297.0, 36.0139
48.022536331, 96.390, 1312.0, 36.2215
48.048796896, 96.390, 1323.0, 36.3731
48.075057462, 96.390, 1238.0, 35.1852
48.101318027, 96.390, 1163.0, 34.1028
48.127578592, 96.390, 1166.0, 34.1467
48.153839158, 96.390, 1182.0, 34.3802
48.180099723, 96.390, 1188.0, 34.4674
48.206360288, 96.390, 1173.0, 34.2491
48.232620854, 96.390, 1152.0, 33.9411
48.258881419, 96.390, 1150.0, 33.9116
48.285141984, 96.390, 1186.0, 34.4384
48.311402550, 96.390, 1188.0, 34.4674
48.337663115, 96.390, 1152.0, 33.9411
48.363923681, 96.390, 1177.0, 34.3074
48.390184246, 96.390, 1191.0, 34.5109
48.416444811, 96.390, 1133.0, 33.6601
48.442705377, 96.390, 1167.0, 34.1614
48.468965942, 96.390, 1159.0, 34.0441
48.495226507, 96.390, 1169.0, 34.1906
48.521487073, 96.390, 1116.0, 33.4066
48.547747638, 96.390, 1190.0, 34.4964
48.574008203, 96.390, 1165.0, 34.1321
48.600268769, 96.390, 1143.0, 33.8083
48.626529334, 96.390, 1168.0, 34.1760
48.652789899, 96.390, 1189.0, 34.4819
48.679050465, 96.390, 1184.0, 34.4093
48.705311030, 96.390, 1152.0, 33.9411
48.731571595, 96.390, 1118.0, 33.4365
48.757832161, 96.390, 1171.0, 34.2199
48.784092726, 96.390, 1107.0, 33.2716
48.810353292, 96.390, 1202.0, 34.6699
48.836613857, 96.390, 1078.0, 32.8329
48.862874422, 96.390, 1196.0, 34.5832
48.889134988, 96.390, 1090.0, 33.0151
48.915395553, 96.390, 1117.0, 33.4215
48.941656118, 96.390, 1131.0, 33.6303
48.967916684, 96.390, 1045.0, 32.3265
48.994177249, 96.390, 1108.0, 33.2866
49.020437814, 96.390, 1126.0, 33.5559
49.046698380, 96.390, 1059.0, 32.5423
49.072958945, 96.390, 1152.0, 33.9411
49.099219510, 96.390, 1099.0, 33.1512
49.125480076, 96.390, 1162.0, 34.0881
49.151740641, 96.390, 1081.0, 32.8786
49.178001207, 96.390, 1036.0, 32.1870
49.204261772, 96.390, 1118.0, 33.4365
49.230522337, 96.390, 1043.0, 32.2955
49.256782903, 96.390, 1087.0, 32.9697
49.283043468, 96.390, 1079.0, 32.8481
49.309304033, 96.390, 1093.0, 33.0606
49.335564599, 96.390, 1084.0, 32.9242
49.361825164, 96.390, 1018.0, 31.9061
49.388085729, 96.390, 1103.0, 33.2114
49.414346295, 96.390, 986.0, 31.4006
49.440606860, 96.390, 1050.0, 32.4037
49.466867425, 96.390, 1066.0, 32.6497
49.493127991, 96.390, 1122.0, 33.4963
49.519388556, 96.390, 1067.0, 32.6650
49.545649121, 96.390, 1064.0, 32.6190
49.571909687, 96.390, 1050.0, 32.4037
49.598170252, 96.390, 1113.0, 33.3617
49.624430818, 96.390, 1070.0, 32.7109
49.650691383, 96.390, 1060.0, 32.5576
49.676951948, 96.390, 1031.0, 32.1092
49.703212514, 96.390, 1075.0, 32.7872
49.729473079, 96.390, 1073.0, 32.7567
49.755733644, 96.390, 1086.0, 32.9545
49.781994210, 96.390, 1133.0, 33.6601
49.808254775, 96.390, 1082.0, 32.8938
49.834515340, 96.390, 1075.0, 32.7872
49.860775906, 96.390, 1038.0, 32.2180
49.887036471, 96.390, 1066.0, 32.6497
49.913297036, 96.390, 1113.0, 33.3617
49.939557602, 96.390, 1146.0, 33.8526
49.965818167, 96.390, 1090.0, 33.0151
49.992078732, 96.390, 1056.0, 32.4962
50.018339298, 96.390, 1041.0, 32.2645
50.044599863, 96.390, 1058.0, 32.5269
50.070860429, 96.390, 1060.0, 32.5576
50.097120994, 96.390, 1090.0, 33.0151
50.123381559, 96.390, 1105.0, 33.2415
50.149642125, 96.390, 1062.0, 32.5883
50.175902690, 96.390, 1078.0, 32.8329
50.202163255, 96.390, 1048.0, 32.3728
50.228423821, 96.390, 1092.0, 33.0454
50.254684386, 96.390, 986.0, 31.4006
50.280944951, 96.390, 1055.0, 32.4808
50.307205517, 96.390, 1092.0, 33.0454
50.333466082, 96.390, 1079.0, 32.8481
50.359726647, 96.390, 1099.0, 33.1512
50.385987213, 96.390, 1118.0, 33.4365
50.412247778, 96.390, 998.0, 31.5911
50.438508344, 96.390, 1060.0, 32.5576
50.464768909, 96.390, 1064.0, 32.6190
50.491029474, 96.390, 1061.0, 32.5730
50.517290040, 96.390, 1129.0, 33.6006
50.543550605, 96.390, 1091.0, 33.0303
50.569811170, 96.390, 1038.0, 32.2180
50.596071736, 96.390, 1059.0, 32.5423
50.622332301, 96.390, 1097.0, 33.1210
50.648592866, 96.390, 1078.0, 32.8329
50.674853432, 96.390, 990.0, 31.4643
50.701113997, 96.390, 1105.0, 33.2415
50.727374562, 96.390, 1103.0, 33.2114
50.753635128, 96.390, 1075.0, 32.7872
50.779895693, 96.390, 1116.0, 33.4066
50.806156258, 96.390, 1131.0, 33.6303
50.832416824, 96.390, 1123.0, 33.5112
50.858677389, 96.390, 1118.0, 33.4365
50.884937955, 96.390, 1130.0, 33.6155
50.911198520, 96.390, 1250.0, 35.3553
50.937459085, 96.390, 1220.0, 34.9285
50.963719651, 96.390, 1210.0, 34.7851
50.989980216, 96.390, 1201.0, 34.6554
51.016240781, 96.390, 1148.0, 33.8821
51.042501347, 96.390, 1164.0, 34.1174
51.068761912, 96.390, 1119.0, 33.4515
51.095022477, 96.390, 1177.0, 34.3074
51.121283043, 96.390, 1195.0, 34.5688
51.147543608, 96.390, 1148.0, 33.8821
51.173804173, 96.390, 1099.0, 33.1512
51.200064739, 96.390, 1166.0, 34.1467
51.226325304, 96.390, 1072.0, 32.7414
51.252585870, 96.390, 1132.0, 33.6452
51.278846435, 96.390, 1134.0, 33.6749
51.305107000, 96.390, 1130.0, 33.6155
51.331367566, 96.390, 1175.0, 34.2783
51.357628131, 96.390, 1151.0, 33.9264
51.383888696, 96.390, 1171.0, 34.2199
51.410149262, 96.390, 1126.0, 33.5559
51.436409827, 96.390, 1183.0, 34.3948
51.462670392, 96.390, 1156.0, 34.0000
51.488930958, 96.390, 1170.0, 34.2053
51.515191523, 96.390, 1222.0, 34.9571
51.541452088, 96.390, 1223.0, 34.9714
51.567712654, 96.390, 1240.0, 35.2136
51.593973219, 96.390, 1228.0, 35.0428
51.620233784, 96.390, 1252.0, 35.3836
51.646494350, 96.390, 1266.0, 35.5809
51.672754915, 96.390, 1275.0, 35.7071
51.699015481, 96.390, 1174.0, 34.2637
51.725276046, 96.390, 1218.0, 34.8999
51.751536611, 96.390, 1174.0, 34.2637
51.777797177, 96.390, 1155.0, 33.9853
51.804057742, 96.390, 1122.0, 33.4963
51.830318307, 96.390, 1122.0, 33.4963
51.856578873, 96.390, 1120.0, 33.4664
51.882839438, 96.390, 1155.0, 33.9853
51.909100003, 96.390, 1191.0, 34.5109
51.935360569, 96.390, 1099.0, 33.1512
51.961621134, 96.390, 1109.0, 33.3017
51.987881699, 96.390, 1101.0, 33.1813
52.014142265, 96.390, 1094.0, 33.0757
52.040402830, 96.390, 1099.0, 33.1512
52.066663396, 96.390, 1135.0, 33.6898
52.092923961, 96.390, 1116.0, 33.4066
52.119184526, 96.390, 1086.0, 32.9545
52.145445092, 96.390, 1101.0, 33.1813
52.171705657, 96.390, 1140.0, 33.7639
52.197966222, 96.390, 1114.0, 33.3766
52.224226788, 96.390, 1073.0, 32.7567
52.250487353, 96.390, 1092.0, 33.0454
52.276747918, 96.390, 1135.0, 33.6898
52.303008484, 96.390, 1116.0, 33.4066
52.329269049, 96.390, 1137.0, 33.7194
52.355529614, 96.390, 1121.0, 33.4813
52.381790180, 96.390, 1113.0, 33.3617
52.408050745, 96.390, 1090.0, 33.0151
52.434311310, 96.390, 1135.0, 33.6898
52.460571876, 96.390, 1143.0, 33.8083
52.486832441, 96.390, 1117.0, 33.4215
52.513093007, 96.390, 1149.0, 33.8969
52.539353572, 96.390, 1136.0, 33.7046
52.565614137, 96.390, 1181.0, 34.3657
52.591874703, 96.390, 1074.0, 32.7719
52.618135268, 96.390, 1156.0, 34.0000
52.644395833, 96.390, 1194.0, 34.5543
52.670656399, 96.390, 1095.0, 33.0908
52.696916964, 96.390, 1191.0, 34.5109
52.723177529, 96.390, 1131.0, 33.6303
52.749438095, 96.390, 1050.0, 32.4037
52.775698660, 96.390, 1167.0, 34.1614
52.801959225, 96.390, 1189.0, 34.4819
52.828219791, 96.390, 1194.0, 34.5543
52.854480356, 96.390, 1122.0, 33.4963
52.880740922, 96.390, 1165.0, 34.1321
52.907001487, 96.390, 1114.0, 33.3766
52.933262052, 96.390, 1142.0, 33.7935
52.959522618, 96.390, 1203.0, 34.6843
52.985783183, 96.390, 1178.0, 34.3220
53.012043748, 96.390, 1231.0, 35.0856
53.038304314, 96.390, 1204.0, 34.6987
53.064564879, 96.390, 1242.0, 35.2420
53.090825444, 96.390, 1239.0, 35.1994
53.117086010, 96.390, 1230.0, 35.0714
53.143346575, 96.390, 1257.0, 35.4542
53.169607140, 96.390, 1238.0, 35.1852
53.195867706, 96.390, 1219.0, 34.9142
53.222128271, 96.390, 1115.0, 33.3916
53.248388836, 96.390, 1187.0, 34.4529
53.274649402, 96.390, 1102.0, 33.1964
53.300909967, 96.390, 1182.0, 34.3802
53.327170533, 96.390, 1169.0, 34.1906
53.353431098, 96.390, 1192.0, 34.5254
53.379691663, 96.390, 1067.0, 32.6650
53.405952229, 96.390, 1222.0, 34.9571
53.432212794, 96.390, 1108.0, 33.2866
53.458473359, 96.390, 1122.0, 33.4963
53.484733925, 96.390, 1101.0, 33.1813
53.510994490, 96.390, 1086.0, 32.9545
53.537255055, 96.390, 1071.0, 32.7261
53.563515621, 96.390, 1073.0, 32.7567
53.589776186, 96.390, 1074.0, 32.7719
53.616036751, 96.390, 1028.0, 32.0624
53.642297317, 96.390, 964.0, 31.0483
53.668557882, 96.390, 1036.0, 32.1870
53.694818448, 96.390, 1069.0, 32.6956
53.721079013, 96.390, 988.0, 31.4325
53.747339578, 96.390, 1018.0, 31.9061
53.773600144, 96.390, 1040.0, 32.2490
53.799860709, 96.390, 1027.0, 32.0468
53.826121274, 96.390, 1135.0, 33.6898
53.852381840, 96.390, 1021.0, 31.9531
53.878642405, 96.390, 986.0, 31.4006
53.904902970, 96.390, 968.0, 31.1127
53.931163536, 96.390, 1003.0, 31.6702
53.957424101, 96.390, 988.0, 31.4325
53.983684666, 96.390, 1021.0, 31.9531
54.009945232, 96.390, 991.0, 31.4802
54.036205797, 96.390, 1011.0, 31.7962
54.062466362, 96.390, 996.0, 31.5595
54.088726928, 96.390, 1018.0, 31.9061
54.114987493, 96.390, 1010.0, 31.7805
54.141248059, 96.390, 977.0, 31.2570
54.167508624, 96.390, 966.0, 31.0805
54.193769189, 96.390, 1015.0, 31.8591
54.220029755, 96.390, 917.0, 30.2820
54.246290320, 96.390, 974.0, 31.2090
54.272550885, 96.390, 989.0, 31.4484
54.298811451, 96.390, 982.0, 31.3369
54.325072016, 96.390, 982.0, 31.3369
54.351332581, 96.390, 999.0, 31.6070
54.377593147, 96.390, 941.0, 30.6757
54.403853712, 96.390, 903.0, 30.0500
54.430114277, 96.390, 944.0, 30.7246
54.456374843, 96.390, 938.0, 30.6268
54.482635408, 96.390, 938.0, 30.6268
54.508895973, 96.390, 968.0, 31.1127
54.535156539, 96.390, 953.0, 30.8707
54.561417104, 96.390, 950.0, 30.8221
54.587677670, 96.390, 967.0, 31.0966
54.613938235, 96.390, 1008.0, 31.7490
54.640198800, 96.390, 920.0, 30.3315
54.666459366, 96.390, 996.0, 31.5595
54.692719931, 96.390, 970.0, 31.1448
54.718980496, 96.390, 999.0, 31.6070
54.745241062, 96.390, 953.0, 30.8707
54.771501627, 96.390, 967.0, 31.0966
54.797762192, 96.390, 970.0, 31.1448
54.824022758, 96.390, 977.0, 31.2570
54.850283323, 96.390, 988.0, 31.4325
54.876543888, 96.390, 949.0, 30.8058
54.902804454, 96.390, 1015.0, 31.8591
54.929065019, 96.390, 1003.0, 31.6702
54.955325585, 96.390, 991.0, 31.4802
54.981586150, 96.390, 950.0, 30.8221
55.007846715, 96.390, 1015.0, 31.8591
55.034107281, 96.390, 992.0, 31.4960
55.060367846, 96.390, 1030.0, 32.0936
55.086628411, 96.390, 971.0, 31.1609
55.112888977, 96.390, 949.0, 30.8058
55.139149542, 96.390, 948.0, 30.7896
55.165410107, 96.390, 1007.0, 31.7333
55.191670673, 96.390, 997.0, 31.5753
55.217931238, 96.390, 946.0, 30.7571
55.244191803, 96.390, 958.0, 30.9516
55.270452369, 96.390, 993.0, 31.5119
55.296712934, 96.390, 934.0, 30.5614
55.322973499, 96.390, 901.0, 30.0167
55.349234065, 96.390, 965.0, 31.0644
55.375494630, 96.390, 930.0, 30.4959
55.401755196, 96.390, 974.0, 31.2090
55.428015761, 96.390, 932.0, 30.5287
55.454276326, 96.390, 957.0, 30.9354
55.480536892, 96.390, 978.0, 31.2730
55.506797457, 96.390, 936.0, 30.5941
55.533058022, 96.390, 951.0, 30.8383
55.559318588, 96.390, 896.0, 29.9333
55.585579153, 96.390, 880.0, 29.6648
55.611839718, 96.390, 939.0, 30.6431
55.638100284, 96.390, 931.0, 30.5123
55.664360849, 96.390, 913.0, 30.2159
55.690621414, 96.390, 897.0, 29.9500
55.716881980, 96.390, 916.0, 30.2655
55.743142545, 96.390, 998.0, 31.5911
55.769403111, 96.390, 998.0, 31.5911
55.795663676, 96.390, 894.0, 29.8998
55.821924241, 96.390, 947.0, 30.7734
55.848184807, 96.390, 947.0, 30.7734
55.874445372, 96.390, 918.0, 30.2985
55.900705937, 96.390, 905.0, 30.0832
55.926966503, 96.390, 928.0, 30.4631
55.953227068, 96.390, 922.0, 30.3645
55.979487633, 96.390, 925.0, 30.4138
56.005748199, 96.390, 929.0, 30.4795
56.032008764, 96.390, 930.0, 30.4959
56.058269329, 96.390, 975.0, 31.2250
56.084529895, 96.390, 894.0, 29.8998
56.110790460, 96.390, 938.0, 30.6268
56.137051025, 96.390, 865.0, 29.4109
56.163311591, 96.390, 949.0, 30.8058
56.189572156, 96.390, 967.0, 31.0966
56.215832722, 96.390, 973.0, 31.1929
56.242093287, 96.390, 923.0, 30.3809
56.268353852, 96.390, 946.0, 30.7571
56.294614418, 96.390, 917.0, 30.2820
56.320874983, 96.390, 955.0, 30.9031
56.347135548, 96.390, 924.0, 30.3974
56.373396114, 96.390, 916.0, 30.2655
56.399656679, 96.390, 959.0, 30.9677
56.425917244, 96.390, 912.0, 30.1993
56.452177810, 96.390, 998.0, 31.5911
56.478438375, 96.390, 930.0, 30.4959
56.504698940, 96.390, 994.0, 31.5278
56.530959506, 96.390, 940.0, 30.6594
56.557220071, 96.390, 903.0, 30.0500
56.583480637, 96.390, 939.0, 30.6431
56.609741202, 96.390, 955.0, 30.9031
56.636001767, 96.390, 959.0, 30.9677
56.662262333, 96.390, 945.0, 30.7409
56.688522898, 96.390, 963.0, 31.0322
56.714783463, 96.390, 942.0, 30.6920
56.741044029, 96.390, 943.0, 30.7083
56.767304594, 96.390, 921.0, 30.3480
56.793565159, 96.390, 1020.0, 31.9374
56.819825725, 96.390, 963.0, 31.0322
56.846086290, 96.390, 971.0, 31.1609
56.872346855, 96.390, 977.0, 31.2570
56.898607421, 96.390, 1019.0, 31.9218
56.924867986, 96.390, 1018.0, 31.9061
56.951128551, 96.390, 1018.0, 31.9061
56.977389117, 96.390, 1006.0, 31.7175
57.003649682, 96.390, 1029.0, 32.0780
57.029910248, 96.390, 1033.0, 32.1403
57.056170813, 96.390, 1044.0, 32.3110
57.082431378, 96.390, 1064.0, 32.6190
57.108691944, 96.390, 1062.0, 32.5883
57.134952509, 96.390, 1180.0, 34.3511
57.161213074, 96.390, 1112.0, 33.3467
57.187473640, 96.390, 1100.0, 33.1662
57.213734205, 96.390, 1104.0, 33.2265
57.239994770, 96.390, 1108.0, 33.2866
57.266255336, 96.390, 1172.0, 34.2345
57.292515901, 96.390, 1182.0, 34.3802
57.318776466, 96.390, 1168.0, 34.1760
57.345037032, 96.390, 1159.0, 34.0441
57.371297597, 96.390, 1169.0, 34.1906
57.397558163, 96.390, 1199.0, 34.6266
57.423818728, 96.390, 1061.0, 32.5730
57.450079293, 96.390, 1209.0, 34.7707
57.476339859, 96.390, 1141.0, 33.7787
57.502600424, 96.390, 1122.0, 33.4963
57.528860989, 96.390, 1094.0, 33.0757
57.555121555, 96.390, 1121.0, 33.4813
57.581382120, 96.390, 1059.0, 32.5423
57.607642685, 96.390, 1053.0, 32.4500
57.633903251, 96.390, 1046.0, 32.3419
57.660163816, 96.390, 1037.0, 32.2025
57.686424381, 96.390, 1024.0, 32.0000
57.712684947, 96.390, 994.0, 31.5278
57.738945512, 96.390, 1020.0, 31.9374
57.765206077, 96.390, 979.0, 31.2890
57.791466643, 96.390, 1021.0, 31.9531
57.817727208, 96.390, 1010.0, 31.7805
57.843987774, 96.390, 1024.0, 32.0000
57.870248339, 96.390, 1011.0, 31.7962
57.896508904, 96.390, 972.0, 31.1769
57.922769470, 96.390, 989.0, 31.4484
57.949030035, 96.390, 927.0, 30.4467
57.975290600, 96.390, 959.0, 30.9677
58.001551166, 96.390, 1027.0, 32.0468
58.027811731, 96.390, 1003.0, 31.6702
58.054072296, 96.390, 937.0, 30.6105
58.080332862, 96.390, 989.0, 31.4484
58.106593427, 96.390, 1013.0, 31.8277
58.132853992, 96.390, 991.0, 31.4802
58.159114558, 96.390, 998.0, 31.5911
58.185375123, 96.390, 1004.0, 31.6860
58.211635689, 96.390, 937.0, 30.6105
58.237896254, 96.390, 1044.0, 32.3110
58.264156819, 96.390, 1029.0, 32.0780
58.290417385, 96.390, 1026.0, 32.0312
58.316677950, 96.390, 1021.0, 31.9531
58.342938515, 96.390, 1042.0, 32.2800
58.369199081, 96.390, 1042.0, 32.2800
58.395459646, 96.390, 1083.0, 32.9090
58.421720211, 96.390, 1077.0, 32.8177
58.447980777, 96.390, 1032.0, 32.1248
58.474241342, 96.390, 1104.0, 33.2265
58.500501907, 96.390, 1076.0, 32.8024
58.526762473, 96.390, 1096.0, 33.1059
58.553023038, 96.390, 1050.0, 32.4037
58.579283603, 96.390, 1026.0, 32.0312
58.605544169, 96.390, 1012.0, 31.8119
58.631804734, 96.390, 1051.0, 32.4191
58.658065300, 96.390, 1079.0, 32.8481
58.684325865, 96.390, 1031.0, 32.1092
58.710586430, 96.390, 1068.0, 32.6803
58.736846996, 96.390, 1035.0, 32.1714
58.763107561, 96.390, 1037.0, 32.2025
58.789368126, 96.390, 1062.0, 32.5883
58.815628692, 96.390, 1110.0, 33.3167
58.841889257, 96.390, 1015.0, 31.8591
58.868149822, 96.390, 993.0, 31.5119
58.894410388, 96.390, 1043.0, 32.2955
58.920670953, 96.390, 1027.0, 32.0468
58.946931518, 96.390, 1014.0, 31.8434
58.973192084, 96.390, 1021.0, 31.9531
58.999452649, 96.390, 1013.0, 31.8277
59.025713214, 96.390, 1026.0, 32.0312
59.051973780, 96.390, 1084.0, 32.9242
59.078234345, 96.390, 1078.0, 32.8329
59.104494911, 96.390, 1086.0, 32.9545
59.130755476, 96.390, 1058.0, 32.5269
59.157016041, 96.390, 1030.0, 32.0936
59.183276607, 96.390, 1091.0, 33.0303
59.209537172, 96.390, 1084.0, 32.9242
59.235797737, 96.390, 1093.0, 33.0606
59.262058303, 96.390, 1126.0, 33.5559
59.288318868, 96.390, 1079.0, 32.8481
59.314579433, 96.390, 1109.0, 33.3017
59.340839999, 96.390, 1071.0, 32.7261
59.367100564, 96.390, 1130.0, 33.6155
59.393361129, 96.390, 1139.0, 33.7491
59.419621695, 96.390, 1197.0, 34.5977
59.445882260, 96.390, 1178.0, 34.3220
59.472142826, 96.390, 1171.0, 34.2199
59.498403391, 96.390, 1156.0, 34.0000
59.524663956, 96.390, 1171.0, 34.2199
59.550924522, 96.390, 1154.0, 33.9706
59.577185087, 96.390, 1240.0, 35.2136
59.603445652, 96.390, 1173.0, 34.2491
59.629706218, 96.390, 1163.0, 34.1028
59.655966783, 96.390, 1245.0, 35.2846
59.682227348, 96.390, 1250.0, 35.3553
59.708487914, 96.390, 1192.0, 34.5254
59.734748479, 96.390, 1313.0, 36.2353
59.761009044, 96.390, 1313.0, 36.2353
59.787269610, 96.390, 1378.0, 37.1214
59.813530175, 96.390, 1309.0, 36.1801
59.839790740, 96.390, 1326.0, 36.4143
59.866051306, 96.390, 1305.0, 36.1248
59.892311871, 96.390, 1345.0, 36.6742
59.918572437, 96.390, 1404.0, 37.4700
59.944833002, 96.390, 1418.0, 37.6563
59.971093567, 96.390, 1386.0, 37.2290
59.997354133, 96.390, 1434.0, 37.8682
60.023614698, 96.390, 1423.0, 37.7227
60.049875263, 96.390, 1373.0, 37.0540
60.076135829, 96.390, 1426.0, 37.7624
60.102396394, 96.390, 1441.0, 37.9605
60.128656959, 96.390, 1386.0, 37.2290
60.154917525, 96.390, 1533.0, 39.1535
60.181178090, 96.390, 1448.0, 38.0526
60.207438655, 96.390, 1460.0, 38.2099
60.233699221, 96.390, 1498.0, 38.7040
60.259959786, 96.390, 1577.0, 39.7115
60.286220352, 96.390, 1518.0, 38.9615
60.312480917, 96.390, 1482.0, 38.4968
60.338741482, 96.390, 1604.0, 40.0500
60.365002048, 96.390, 1636.0, 40.4475
60.391262613, 96.390, 1553.0, 39.4081
60.417523178, 96.390, 1604.0, 40.0500
60.443783744, 96.390, 1715.0, 41.4126
60.470044309, 96.390, 1609.0, 40.1123
60.496304874, 96.390, 1648.0, 40.5956
60.522565440, 96.390, 1709.0, 41.3401
60.548826005, 96.390, 1620.0, 40.2492
60.575086570, 96.390, 1686.0, 41.0609
60.601347136, 96.390, 1738.0, 41.6893
60.627607701, 96.390, 1634.0, 40.4228
60.653868266, 96.390, 1662.0, 40.7676
60.680128832, 96.390, 1611.0, 40.1373
60.706389397, 96.390, 1757.0, 41.9166
60.732649963, 96.390, 1661.0, 40.7554
60.758910528, 96.390, 1722.0, 41.4970
60.785171093, 96.390, 1646.0, 40.5709
60.811431659, 96.390, 1629.0, 40.3609
60.837692224, 96.390, 1607.0, 40.0874
60.863952789, 96.390, 1552.0, 39.3954
60.890213355, 96.390, 1612.0, 40.1497
60.916473920, 96.390, 1553.0, 39.4081
60.942734485, 96.390, 1540.0, 39.2428
60.968995051, 96.390, 1519.0, 38.9744
60.995255616, 96.390, 1543.0, 39.2810
61.021516181, 96.390, 1513.0, 38.8973
61.047776747, 96.390, 1523.0, 39.0256
61.074037312, 96.390, 1463.0, 38.2492
61.100297878, 96.390, 1376.0, 37.0945
61.126558443, 96.390, 1405.0, 37.4833
61.152819008, 96.390, 1357.0, 36.8375
61.179079574, 96.390, 1389.0, 37.2693
61.205340139, 96.390, 1390.0, 37.2827
61.231600704, 96.390, 1329.0, 36.4555
61.257861270, 96.390, 1353.0, 36.7831
61.284121835, 96.390, 1294.0, 35.9722
61.310382400, 96.390, 1299.0, 36.0416
61.336642966, 96.390, 1285.0, 35.8469
61.362903531, 96.390, 1289.0, 35.9026
61.389164096, 96.390, 1327.0, 36.4280
61.415424662, 96.390, 1320.0, 36.3318
61.441685227, 96.390, 1279.0, 35.7631
61.467945792, 96.390, 1274.0, 35.6931
61.494206358, 96.390, 1263.0, 35.5387
61.520466923, 96.390, 1215.0, 34.8569
61.546727489, 96.390, 1211.0, 34.7994
61.572988054, 96.390, 1295.0, 35.9861
61.599248619, 96.390, 1194.0, 34.5543
61.625509185, 96.390, 1177.0, 34.3074
61.651769750, 96.390, 1273.0, 35.6791
61.678030315, 96.390, 1212.0, 34.8138
61.704290881, 96.390, 1231.0, 35.0856
61.730551446, 96.390, 1278.0, 35.7491
61.756812011, 96.390, 1153.0, 33.9559
61.783072577, 96.390, 1275.0, 35.7071
61.809333142, 96.390, 1207.0, 34.7419
61.835593707, 96.390, 1221.0, 34.9428
61.861854273, 96.390, 1250.0, 35.3553
61.888114838, 96.390, 1147.0, 33.8674
61.914375404, 96.390, 1233.0, 35.1141
61.940635969, 96.390, 1116.0, 33.4066
61.966896534, 96.390, 1233.0, 35.1141
61.993157100, 96.390, 1152.0, 33.9411
62.019417665, 96.390, 1241.0, 35.2278
62.045678230, 96.390, 1260.0, 35.4965
62.071938796, 96.390, 1130.0, 33.6155
62.098199361, 96.390, 1218.0, 34.8999
62.124459926, 96.390, 1213.0, 34.8281
62.150720492, 96.390, 1118.0, 33.4365
62.176981057, 96.390, 1154.0, 33.9706
62.203241622, 96.390, 1226.0, 35.0143
62.229502188, 96.390, 1147.0, 33.8674
62.255762753, 96.390, 1167.0, 34.1614
62.282023318, 96.390, 1161.0, 34.0735
62.308283884, 96.390, 1208.0, 34.7563
62.334544449, 96.390, 1126.0, 33.5559
62.360805015, 96.390, 1095.0, 33.0908
62.387065580, 96.390, 1133.0, 33.6601
62.413326145, 96.390, 1039.0, 32.2335
62.439586711, 96.390, 1119.0, 33.4515
62.465847276, 96.390, 1101.0, 33.1813
62.492107841, 96.390, 1068.0, 32.6803
62.518368407, 96.390, 1104.0, 33.2265
62.544628972, 96.390, 1066.0, 32.6497
62.570889537, 96.390, 1073.0, 32.7567
62.597150103, 96.390, 1040.0, 32.2490
62.623410668, 96.390, 1021.0, 31.9531
62.649671233, 96.390, 1004.0, 31.6860
62.675931799, 96.390, 1056.0, 32.4962
62.702192364, 96.390, 998.0, 31.5911
62.728452930, 96.390, 1071.0, 32.7261
62.754713495, 96.390, 1007.0, 31.7333
62.780974060, 96.390, 1038.0, 32.2180
62.807234626, 96.390, 1005.0, 31.7017
62.833495191, 96.390, 956.0, 30.9192
62.859755756, 96.390, 1051.0, 32.4191
62.886016322, 96.390, 1047.0, 32.3574
62.912276887, 96.390, 1098.0, 33.1361
62.938537452, 96.390, 1103.0, 33.2114
62.964798018, 96.390, 1045.0, 32.3265
62.991058583, 96.390, 1052.0, 32.4345
63.017319148, 96.390, 1056.0, 32.4962
63.043579714, 96.390, 1080.0, 32.8634
63.069840279, 96.390, 1038.0, 32.2180
63.096100844, 96.390, 992.0, 31.4960
63.122361410, 96.390, 973.0, 31.1929
63.148621975, 96.390, 928.0, 30.4631
63.174882541, 96.390, 951.0, 30.8383
63.201143106, 96.390, 1004.0, 31.6860
63.227403671, 96.390, 968.0, 31.1127
63.253664237, 96.390, 969.0, 31.1288
63.279924802, 96.390, 975.0, 31.2250
63.306185367, 96.390, 941.0, 30.6757
63.332445933, 96.390, 947.0, 30.7734
63.358706498, 96.390, 942.0, 30.6920
63.384967063, 96.390, 898.0, 29.9666
63.411227629, 96.390, 960.0, 30.9839
63.437488194, 96.390, 871.0, 29.5127
63.463748759, 96.390, 935.0, 30.5778
63.490009325, 96.390, 917.0, 30.2820
63.516269890, 96.390, 917.0, 30.2820
63.542530455, 96.390, 918.0, 30.2985
63.568791021, 96.390, 883.0, 29.7153
63.595051586, 96.390, 919.0, 30.3150
63.621312152, 96.390, 876.0, 29.5973
63.647572717, 96.390, 846.0, 29.0861
63.673833282, 96.390, 857.0, 29.2746
63.700093848, 96.390, 871.0, 29.5127
63.726354413, 96.390, 825.0, 28.7228
63.752614978, 96.390, 876.0, 29.5973
63.778875544, 96.390, 827.0, 28.7576
63.805136109, 96.390, 870.0, 29.4958
63.831396674, 96.390, 845.0, 29.0689
63.857657240, 96.390, 908.0, 30.1330
63.883917805, 96.390, 837.0, 28.9310
63.910178370, 96.390, 874.0, 29.5635
63.936438936, 96.390, 861.0, 29.3428
63.962699501, 96.390, 880.0, 29.6648
63.988960067, 96.390, 918.0, 30.2985
64.015220632, 96.390, 902.0, 30.0333
64.041481197, 96.390, 870.0, 29.4958
64.067741763, 96.390, 914.0, 30.2324
64.094002328, 96.390, 877.0, 29.6142
64.120262893, 96.390, 866.0, 29.4279
64.146523459, 96.390, 823.0, 28.6880
64.172784024, 96.390, 867.0, 29.4449
64.199044589, 96.390, 879.0, 29.6479
64.225305155, 96.390, 880.0, 29.6648
64.251565720, 96.390, 832.0, 28.8444
64.277826285, 96.390, 829.0, 28.7924
64.304086851, 96.390, 849.0, 29.1376
64.330347416, 96.390, 767.0, 27.6948
64.356607981, 96.390, 789.0, 28.0891
64.382868547, 96.390, 829.0, 28.7924
64.409129112, 96.390, 790.0, 28.1069
64.435389678, 96.390, 779.0, 27.9106
64.461650243, 96.390, 811.0, 28.4781
64.487910808, 96.390, 796.0, 28.2135
64.514171374, 96.390, 795.0, 28.1957
64.540431939, 96.390, 712.0, 26.6833
64.566692504, 96.390, 764.0, 27.6405
64.592953070, 96.390, 789.0, 28.0891
64.619213635, 96.390, 790.0, 28.1069
64.645474200, 96.390, 769.0, 27.7308
64.671734766, 96.390, 762.0, 27.6043
64.697995331, 96.390, 740.0, 27.2029
64.724255896, 96.390, 761.0, 27.5862
64.750516462, 96.390, 728.0, 26.9815
64.776777027, 96.390, 741.0, 27.2213
64.803037593, 96.390, 717.0, 26.7769
64.829298158, 96.390, 766.0, 27.6767
64.855558723, 96.390, 721.0, 26.8514
64.881819289, 96.390, 754.0, 27.4591
64.908079854, 96.390, 776.0, 27.8568
64.934340419, 96.390, 767.0, 27.6948
64.960600985, 96.390, 712.0, 26.6833
64.986861550, 96.390, 767.0, 27.6948
