[Measurement conditions]
Sample identification,XRD_AlCornernul_Act03May22_B1_0714M_NaOH_LS0172_1
Comment - 1,"Configuration=Stage for Flat Samples/Holders, Owner=User-1, Creation date=7/1/2020 9:53:24 AM"
Comment - 2,"Goniometer=Theta/Theta; Minimum step size 2Theta:0.0001; Minimum step size Omega:0.0001"
Comment - 3,"Sample stage=Stage for flat samples/holders"
Comment - 4,"Diffractometer system=EMPYREAN"
Comment - 5,"Measurement program=C:\Users\ibo5034\OneDrive - The Pennsylvania State University\NEUP\Zerobackground scan.xrdmp, Identifier={98A3B11C-88F9-4AA6-982C-73314A311EF5}"
Anode material,Cu
K-Alpha1 wavelength,1.5405980
K-Alpha2 wavelength,1.5444260
Ratio K-Alpha2/K-Alpha1,0.500
Divergence slit,Fixed,0.25
Monochromator used,NO
Generator voltage, 45
Tube current, 40
File date and time,03/Jun/2022 14:45
Unit cell,
h k l, 0 0 0
Scan axis,Gonio
Scan range,4.994599997,64.999991833
Scan step size,0.0262606
No. of points, 2285
Scan type,CONTINUOUS
Time per step,96.390
[Scan points]
Angle, TimePerStep, Intensity, ESD
5.007730280, 96.390, 3373.0, 58.0775
5.033990845, 96.390, 3467.0, 58.8812
5.060251411, 96.390, 3521.0, 59.3380
5.086511976, 96.390, 3474.0, 58.9406
5.112772541, 96.390, 3439.0, 58.6430
5.139033107, 96.390, 3384.0, 58.1722
5.165293672, 96.390, 3451.0, 58.7452
5.191554237, 96.390, 3344.0, 57.8273
5.217814803, 96.390, 3359.0, 57.9569
5.244075368, 96.390, 3276.0, 57.2364
5.270335934, 96.390, 3266.0, 57.1489
5.296596499, 96.390, 3141.0, 56.0446
5.322857064, 96.390, 3205.0, 56.6127
5.349117630, 96.390, 3298.0, 57.4282
5.375378195, 96.390, 3102.0, 55.6956
5.401638760, 96.390, 3025.0, 55.0000
5.427899326, 96.390, 3100.0, 55.6776
5.454159891, 96.390, 3088.0, 55.5698
5.480420456, 96.390, 3211.0, 56.6657
5.506681022, 96.390, 3118.0, 55.8391
5.532941587, 96.390, 3116.0, 55.8211
5.559202152, 96.390, 3183.0, 56.4181
5.585462718, 96.390, 3073.0, 55.4346
5.611723283, 96.390, 3094.0, 55.6237
5.637983849, 96.390, 3029.0, 55.0364
5.664244414, 96.390, 2999.0, 54.7631
5.690504979, 96.390, 3034.0, 55.0818
5.716765545, 96.390, 2839.0, 53.2823
5.743026110, 96.390, 3021.0, 54.9636
5.769286675, 96.390, 2998.0, 54.7540
5.795547241, 96.390, 3022.0, 54.9727
5.821807806, 96.390, 2991.0, 54.6900
5.848068371, 96.390, 2975.0, 54.5436
5.874328937, 96.390, 3072.0, 55.4256
5.900589502, 96.390, 2910.0, 53.9444
5.926850067, 96.390, 3022.0, 54.9727
5.953110633, 96.390, 2952.0, 54.3323
5.979371198, 96.390, 2957.0, 54.3783
6.005631763, 96.390, 2935.0, 54.1756
6.031892329, 96.390, 2954.0, 54.3507
6.058152894, 96.390, 2943.0, 54.2494
6.084413460, 96.390, 2966.0, 54.4610
6.110674025, 96.390, 2947.0, 54.2863
6.136934590, 96.390, 3012.0, 54.8817
6.163195156, 96.390, 2926.0, 54.0925
6.189455721, 96.390, 2959.0, 54.3967
6.215716286, 96.390, 2929.0, 54.1202
6.241976852, 96.390, 2903.0, 53.8795
6.268237417, 96.390, 2930.0, 54.1295
6.294497982, 96.390, 2841.0, 53.3010
6.320758548, 96.390, 2826.0, 53.1601
6.347019113, 96.390, 2886.0, 53.7215
6.373279678, 96.390, 2980.0, 54.5894
6.399540244, 96.390, 2866.0, 53.5350
6.425800809, 96.390, 2872.0, 53.5910
6.452061375, 96.390, 2831.0, 53.2071
6.478321940, 96.390, 2901.0, 53.8609
6.504582505, 96.390, 2960.0, 54.4059
6.530843071, 96.390, 2939.0, 54.2125
6.557103636, 96.390, 2975.0, 54.5436
6.583364201, 96.390, 2933.0, 54.1572
6.609624767, 96.390, 2955.0, 54.3599
6.635885332, 96.390, 2892.0, 53.7773
6.662145897, 96.390, 2973.0, 54.5252
6.688406463, 96.390, 3044.0, 55.1725
6.714667028, 96.390, 3077.0, 55.4707
6.740927593, 96.390, 3073.0, 55.4346
6.767188159, 96.390, 3176.0, 56.3560
6.793448724, 96.390, 3290.0, 57.3585
6.819709289, 96.390, 3401.0, 58.3181
6.845969855, 96.390, 3478.0, 58.9746
6.872230420, 96.390, 3593.0, 59.9416
6.898490986, 96.390, 3757.0, 61.2944
6.924751551, 96.390, 3976.0, 63.0555
6.951012116, 96.390, 3990.0, 63.1664
6.977272682, 96.390, 4424.0, 66.5132
7.003533247, 96.390, 4483.0, 66.9552
7.029793812, 96.390, 4980.0, 70.5691
7.056054378, 96.390, 5371.0, 73.2871
7.082314943, 96.390, 5929.0, 77.0000
7.108575508, 96.390, 6618.0, 81.3511
7.134836074, 96.390, 7429.0, 86.1916
7.161096639, 96.390, 8754.0, 93.5628
7.187357204, 96.390, 10521.0, 102.5719
7.213617770, 96.390, 12381.0, 111.2699
7.239878335, 96.390, 12529.0, 111.9330
7.266138900, 96.390, 9749.0, 98.7370
7.292399466, 96.390, 6040.0, 77.7174
7.318660031, 96.390, 4363.0, 66.0530
7.344920597, 96.390, 3696.0, 60.7947
7.371181162, 96.390, 3302.0, 57.4630
7.397441727, 96.390, 3241.0, 56.9298
7.423702293, 96.390, 2955.0, 54.3599
7.449962858, 96.390, 2929.0, 54.1202
7.476223423, 96.390, 2811.0, 53.0189
7.502483989, 96.390, 2781.0, 52.7352
7.528744554, 96.390, 2709.0, 52.0481
7.555005119, 96.390, 2638.0, 51.3615
7.581265685, 96.390, 2746.0, 52.4023
7.607526250, 96.390, 2690.0, 51.8652
7.633786815, 96.390, 2692.0, 51.8845
7.660047381, 96.390, 2626.0, 51.2445
7.686307946, 96.390, 2658.0, 51.5558
7.712568512, 96.390, 2612.0, 51.1077
7.738829077, 96.390, 2670.0, 51.6720
7.765089642, 96.390, 2525.0, 50.2494
7.791350208, 96.390, 2530.0, 50.2991
7.817610773, 96.390, 2564.0, 50.6360
7.843871338, 96.390, 2478.0, 49.7795
7.870131904, 96.390, 2546.0, 50.4579
7.896392469, 96.390, 2506.0, 50.0600
7.922653034, 96.390, 2405.0, 49.0408
7.948913600, 96.390, 2436.0, 49.3559
7.975174165, 96.390, 2484.0, 49.8397
8.001434730, 96.390, 2478.0, 49.7795
8.027695296, 96.390, 2404.0, 49.0306
8.053955861, 96.390, 2482.0, 49.8197
8.080216426, 96.390, 2457.0, 49.5681
8.106476992, 96.390, 2454.0, 49.5379
8.132737557, 96.390, 2429.0, 49.2849
8.158998123, 96.390, 2520.0, 50.1996
8.185258688, 96.390, 2428.0, 49.2747
8.211519253, 96.390, 2527.0, 50.2693
8.237779819, 96.390, 2555.0, 50.5470
8.264040384, 96.390, 2458.0, 49.5782
8.290300949, 96.390, 2513.0, 50.1298
8.316561515, 96.390, 2419.0, 49.1833
8.342822080, 96.390, 2394.0, 48.9285
8.369082645, 96.390, 2439.0, 49.3862
8.395343211, 96.390, 2458.0, 49.5782
8.421603776, 96.390, 2371.0, 48.6929
8.447864341, 96.390, 2345.0, 48.4252
8.474124907, 96.390, 2444.0, 49.4368
8.500385472, 96.390, 2450.0, 49.4975
8.526646038, 96.390, 2522.0, 50.2195
8.552906603, 96.390, 2601.0, 51.0000
8.579167168, 96.390, 2658.0, 51.5558
8.605427734, 96.390, 2707.0, 52.0288
8.631688299, 96.390, 2631.0, 51.2933
8.657948864, 96.390, 2507.0, 50.0700
8.684209430, 96.390, 2387.0, 48.8569
8.710469995, 96.390, 2351.0, 48.4871
8.736730560, 96.390, 2280.0, 47.7493
8.762991126, 96.390, 2294.0, 47.8957
8.789251691, 96.390, 2378.0, 48.7647
8.815512256, 96.390, 2366.0, 48.6415
8.841772822, 96.390, 2295.0, 47.9062
8.868033387, 96.390, 2316.0, 48.1248
8.894293952, 96.390, 2355.0, 48.5283
8.920554518, 96.390, 2346.0, 48.4355
8.946815083, 96.390, 2365.0, 48.6313
8.973075649, 96.390, 2334.0, 48.3115
8.999336214, 96.390, 2197.0, 46.8722
9.025596779, 96.390, 2240.0, 47.3286
9.051857345, 96.390, 2248.0, 47.4131
9.078117910, 96.390, 2292.0, 47.8748
9.104378475, 96.390, 2330.0, 48.2701
9.130639041, 96.390, 2269.0, 47.6340
9.156899606, 96.390, 2327.0, 48.2390
9.183160171, 96.390, 2316.0, 48.1248
9.209420737, 96.390, 2369.0, 48.6724
9.235681302, 96.390, 2274.0, 47.6865
9.261941867, 96.390, 2228.0, 47.2017
9.288202433, 96.390, 2397.0, 48.9592
9.314462998, 96.390, 2288.0, 47.8330
9.340723564, 96.390, 2259.0, 47.5289
9.366984129, 96.390, 2332.0, 48.2908
9.393244694, 96.390, 2302.0, 47.9792
9.419505260, 96.390, 2286.0, 47.8121
9.445765825, 96.390, 2288.0, 47.8330
9.472026390, 96.390, 2297.0, 47.9270
9.498286956, 96.390, 2316.0, 48.1248
9.524547521, 96.390, 2281.0, 47.7598
9.550808086, 96.390, 2268.0, 47.6235
9.577068652, 96.390, 2310.0, 48.0625
9.603329217, 96.390, 2319.0, 48.1560
9.629589782, 96.390, 2355.0, 48.5283
9.655850348, 96.390, 2323.0, 48.1975
9.682110913, 96.390, 2439.0, 49.3862
9.708371478, 96.390, 2380.0, 48.7852
9.734632044, 96.390, 2418.0, 49.1732
9.760892609, 96.390, 2503.0, 50.0300
9.787153175, 96.390, 2509.0, 50.0899
9.813413740, 96.390, 2483.0, 49.8297
9.839674305, 96.390, 2565.0, 50.6458
9.865934871, 96.390, 2709.0, 52.0481
9.892195436, 96.390, 2888.0, 53.7401
9.918456001, 96.390, 2778.0, 52.7067
9.944716567, 96.390, 2972.0, 54.5161
9.970977132, 96.390, 3120.0, 55.8570
9.997237697, 96.390, 3291.0, 57.3672
10.023498263, 96.390, 3659.0, 60.4897
10.049758828, 96.390, 3797.0, 61.6198
10.076019393, 96.390, 4236.0, 65.0846
10.102279959, 96.390, 4885.0, 69.8928
10.128540524, 96.390, 5465.0, 73.9256
10.154801090, 96.390, 6394.0, 79.9625
10.181061655, 96.390, 7626.0, 87.3270
10.207322220, 96.390, 8715.0, 93.3542
10.233582786, 96.390, 8412.0, 91.7170
10.259843351, 96.390, 6399.0, 79.9937
10.286103916, 96.390, 4329.0, 65.7951
10.312364482, 96.390, 3626.0, 60.2163
10.338625047, 96.390, 3125.0, 55.9017
10.364885612, 96.390, 3025.0, 55.0000
10.391146178, 96.390, 2925.0, 54.0833
10.417406743, 96.390, 2748.0, 52.4214
10.443667308, 96.390, 2785.0, 52.7731
10.469927874, 96.390, 2860.0, 53.4790
10.496188439, 96.390, 2751.0, 52.4500
10.522449004, 96.390, 2743.0, 52.3737
10.548709570, 96.390, 2745.0, 52.3927
10.574970135, 96.390, 2800.0, 52.9150
10.601230701, 96.390, 2806.0, 52.9717
10.627491266, 96.390, 2785.0, 52.7731
10.653751831, 96.390, 2734.0, 52.2877
10.680012397, 96.390, 2779.0, 52.7162
10.706272962, 96.390, 2801.0, 52.9245
10.732533527, 96.390, 2825.0, 53.1507
10.758794093, 96.390, 2824.0, 53.1413
10.785054658, 96.390, 2734.0, 52.2877
10.811315223, 96.390, 2868.0, 53.5537
10.837575789, 96.390, 2926.0, 54.0925
10.863836354, 96.390, 3002.0, 54.7905
10.890096919, 96.390, 2955.0, 54.3599
10.916357485, 96.390, 3017.0, 54.9272
10.942618050, 96.390, 2994.0, 54.7175
10.968878616, 96.390, 2972.0, 54.5161
10.995139181, 96.390, 3015.0, 54.9090
11.021399746, 96.390, 3084.0, 55.5338
11.047660312, 96.390, 3036.0, 55.0999
11.073920877, 96.390, 3102.0, 55.6956
11.100181442, 96.390, 3054.0, 55.2630
11.126442008, 96.390, 3054.0, 55.2630
11.152702573, 96.390, 3102.0, 55.6956
11.178963138, 96.390, 3229.0, 56.8243
11.205223704, 96.390, 3304.0, 57.4804
11.231484269, 96.390, 3280.0, 57.2713
11.257744834, 96.390, 3298.0, 57.4282
11.284005400, 96.390, 3342.0, 57.8100
11.310265965, 96.390, 3481.0, 59.0000
11.336526530, 96.390, 3471.0, 58.9152
11.362787096, 96.390, 3441.0, 58.6600
11.389047661, 96.390, 3515.0, 59.2874
11.415308227, 96.390, 3439.0, 58.6430
11.441568792, 96.390, 3565.0, 59.7076
11.467829357, 96.390, 3502.0, 59.1777
11.494089923, 96.390, 3700.0, 60.8276
11.520350488, 96.390, 3793.0, 61.5873
11.546611053, 96.390, 3714.0, 60.9426
11.572871619, 96.390, 3794.0, 61.5955
11.599132184, 96.390, 3725.0, 61.0328
11.625392749, 96.390, 3716.0, 60.9590
11.651653315, 96.390, 3769.0, 61.3922
11.677913880, 96.390, 3688.0, 60.7289
11.704174445, 96.390, 3617.0, 60.1415
11.730435011, 96.390, 3757.0, 61.2944
11.756695576, 96.390, 3735.0, 61.1146
11.782956141, 96.390, 3671.0, 60.5888
11.809216707, 96.390, 3618.0, 60.1498
11.835477272, 96.390, 3398.0, 58.2924
11.861737838, 96.390, 3413.0, 58.4209
11.887998403, 96.390, 3388.0, 58.2065
11.914258968, 96.390, 3336.0, 57.7581
11.940519534, 96.390, 3349.0, 57.8705
11.966780099, 96.390, 3285.0, 57.3149
11.993040664, 96.390, 3185.0, 56.4358
12.019301230, 96.390, 3126.0, 55.9106
12.045561795, 96.390, 3093.0, 55.6147
12.071822360, 96.390, 3154.0, 56.1605
12.098082926, 96.390, 2956.0, 54.3691
12.124343491, 96.390, 2901.0, 53.8609
12.150604056, 96.390, 3004.0, 54.8088
12.176864622, 96.390, 2946.0, 54.2771
12.203125187, 96.390, 3165.0, 56.2583
12.229385753, 96.390, 3068.0, 55.3895
12.255646318, 96.390, 3133.0, 55.9732
12.281906883, 96.390, 3167.0, 56.2761
12.308167449, 96.390, 3196.0, 56.5332
12.334428014, 96.390, 3345.0, 57.8360
12.360688579, 96.390, 3651.0, 60.4235
12.386949145, 96.390, 3795.0, 61.6036
12.413209710, 96.390, 4286.0, 65.4675
12.439470275, 96.390, 4867.0, 69.7639
12.465730841, 96.390, 5706.0, 75.5381
12.491991406, 96.390, 6576.0, 81.0925
12.518251971, 96.390, 6888.0, 82.9940
12.544512537, 96.390, 5816.0, 76.2627
12.570773102, 96.390, 4195.0, 64.7688
12.597033667, 96.390, 3289.0, 57.3498
12.623294233, 96.390, 2786.0, 52.7826
12.649554798, 96.390, 2571.0, 50.7050
12.675815364, 96.390, 2518.0, 50.1797
12.702075929, 96.390, 2445.0, 49.4469
12.728336494, 96.390, 2410.0, 49.0918
12.754597060, 96.390, 2372.0, 48.7032
12.780857625, 96.390, 2252.0, 47.4552
12.807118190, 96.390, 2181.0, 46.7012
12.833378756, 96.390, 2166.0, 46.5403
12.859639321, 96.390, 2060.0, 45.3872
12.885899886, 96.390, 2119.0, 46.0326
12.912160452, 96.390, 2163.0, 46.5081
12.938421017, 96.390, 2157.0, 46.4435
12.964681582, 96.390, 2054.0, 45.3211
12.990942148, 96.390, 2027.0, 45.0222
13.017202713, 96.390, 2090.0, 45.7165
13.043463279, 96.390, 1929.0, 43.9204
13.069723844, 96.390, 2037.0, 45.1331
13.095984409, 96.390, 1992.0, 44.6318
13.122244975, 96.390, 1949.0, 44.1475
13.148505540, 96.390, 1944.0, 44.0908
13.174766105, 96.390, 1904.0, 43.6348
13.201026671, 96.390, 1940.0, 44.0454
13.227287236, 96.390, 1969.0, 44.3734
13.253547801, 96.390, 1966.0, 44.3396
13.279808367, 96.390, 2016.0, 44.8999
13.306068932, 96.390, 1936.0, 44.0000
13.332329497, 96.390, 2011.0, 44.8442
13.358590063, 96.390, 2123.0, 46.0760
13.384850628, 96.390, 2014.0, 44.8776
13.411111193, 96.390, 2103.0, 45.8585
13.437371759, 96.390, 2307.0, 48.0312
13.463632324, 96.390, 2483.0, 49.8297
13.489892890, 96.390, 2596.0, 50.9510
13.516153455, 96.390, 3108.0, 55.7494
13.542414020, 96.390, 3314.0, 57.5674
13.568674586, 96.390, 2813.0, 53.0377
13.594935151, 96.390, 2330.0, 48.2701
13.621195716, 96.390, 2003.0, 44.7549
13.647456282, 96.390, 1834.0, 42.8252
13.673716847, 96.390, 1773.0, 42.1070
13.699977412, 96.390, 1698.0, 41.2068
13.726237978, 96.390, 1839.0, 42.8836
13.752498543, 96.390, 1749.0, 41.8210
13.778759108, 96.390, 1735.0, 41.6533
13.805019674, 96.390, 1799.0, 42.4146
13.831280239, 96.390, 1920.0, 43.8178
13.857540805, 96.390, 2014.0, 44.8776
13.883801370, 96.390, 1995.0, 44.6654
13.910061935, 96.390, 2137.0, 46.2277
13.936322501, 96.390, 2287.0, 47.8226
13.962583066, 96.390, 2279.0, 47.7389
13.988843631, 96.390, 2057.0, 45.3542
14.015104197, 96.390, 1898.0, 43.5660
14.041364762, 96.390, 1742.0, 41.7373
14.067625327, 96.390, 1766.0, 42.0238
14.093885893, 96.390, 1844.0, 42.9418
14.120146458, 96.390, 1806.0, 42.4971
14.146407023, 96.390, 1905.0, 43.6463
14.172667589, 96.390, 1992.0, 44.6318
14.198928154, 96.390, 2130.0, 46.1519
14.225188719, 96.390, 2251.0, 47.4447
14.251449285, 96.390, 2673.0, 51.7011
14.277709850, 96.390, 3160.0, 56.2139
14.303970416, 96.390, 3594.0, 59.9500
14.330230981, 96.390, 3428.0, 58.5491
14.356491546, 96.390, 2627.0, 51.2543
14.382752112, 96.390, 2007.0, 44.7996
14.409012677, 96.390, 1726.0, 41.5452
14.435273242, 96.390, 1626.0, 40.3237
14.461533808, 96.390, 1618.0, 40.2244
14.487794373, 96.390, 1615.0, 40.1871
14.514054938, 96.390, 1512.0, 38.8844
14.540315504, 96.390, 1445.0, 38.0132
14.566576069, 96.390, 1485.0, 38.5357
14.592836634, 96.390, 1560.0, 39.4968
14.619097200, 96.390, 1498.0, 38.7040
14.645357765, 96.390, 1495.0, 38.6652
14.671618331, 96.390, 1472.0, 38.3667
14.697878896, 96.390, 1550.0, 39.3700
14.724139461, 96.390, 1557.0, 39.4588
14.750400027, 96.390, 1501.0, 38.7427
14.776660592, 96.390, 1568.0, 39.5980
14.802921157, 96.390, 1533.0, 39.1535
14.829181723, 96.390, 1556.0, 39.4462
14.855442288, 96.390, 1573.0, 39.6611
14.881702853, 96.390, 1520.0, 38.9872
14.907963419, 96.390, 1521.0, 39.0000
14.934223984, 96.390, 1596.0, 39.9500
14.960484549, 96.390, 1510.0, 38.8587
14.986745115, 96.390, 1525.0, 39.0512
15.013005680, 96.390, 1624.0, 40.2989
15.039266245, 96.390, 1571.0, 39.6358
15.065526811, 96.390, 1572.0, 39.6485
15.091787376, 96.390, 1594.0, 39.9249
15.118047942, 96.390, 1700.0, 41.2311
15.144308507, 96.390, 1815.0, 42.6028
15.170569072, 96.390, 1801.0, 42.4382
15.196829638, 96.390, 2037.0, 45.1331
15.223090203, 96.390, 2298.0, 47.9375
15.249350768, 96.390, 2680.0, 51.7687
15.275611334, 96.390, 3195.0, 56.5243
15.301871899, 96.390, 3725.0, 61.0328
15.328132464, 96.390, 4066.0, 63.7652
15.354393030, 96.390, 3179.0, 56.3826
15.380653595, 96.390, 2292.0, 47.8748
15.406914160, 96.390, 1757.0, 41.9166
15.433174726, 96.390, 1713.0, 41.3884
15.459435291, 96.390, 1594.0, 39.9249
15.485695857, 96.390, 1558.0, 39.4715
15.511956422, 96.390, 1486.0, 38.5487
15.538216987, 96.390, 1467.0, 38.3014
15.564477553, 96.390, 1407.0, 37.5100
15.590738118, 96.390, 1383.0, 37.1887
15.616998683, 96.390, 1393.0, 37.3229
15.643259249, 96.390, 1383.0, 37.1887
15.669519814, 96.390, 1382.0, 37.1753
15.695780379, 96.390, 1439.0, 37.9342
15.722040945, 96.390, 1408.0, 37.5233
15.748301510, 96.390, 1512.0, 38.8844
15.774562075, 96.390, 1499.0, 38.7169
15.800822641, 96.390, 1523.0, 39.0256
15.827083206, 96.390, 1507.0, 38.8201
15.853343771, 96.390, 1466.0, 38.2884
15.879604337, 96.390, 1560.0, 39.4968
15.905864902, 96.390, 1637.0, 40.4599
15.932125468, 96.390, 1630.0, 40.3733
15.958386033, 96.390, 1741.0, 41.7253
15.984646598, 96.390, 1855.0, 43.0697
16.010907164, 96.390, 2055.0, 45.3321
16.037167729, 96.390, 2157.0, 46.4435
16.063428294, 96.390, 2495.0, 49.9500
16.089688860, 96.390, 2937.0, 54.1941
16.115949425, 96.390, 3621.0, 60.1747
16.142209990, 96.390, 4159.0, 64.4903
16.168470556, 96.390, 4417.0, 66.4605
16.194731121, 96.390, 3764.0, 61.3514
16.220991686, 96.390, 2975.0, 54.5436
16.247252252, 96.390, 2168.0, 46.5618
16.273512817, 96.390, 1840.0, 42.8952
16.299773382, 96.390, 1647.0, 40.5832
16.326033948, 96.390, 1605.0, 40.0625
16.352294513, 96.390, 1532.0, 39.1408
16.378555079, 96.390, 1536.0, 39.1918
16.404815644, 96.390, 1514.0, 38.9102
16.431076209, 96.390, 1546.0, 39.3192
16.457336775, 96.390, 1581.0, 39.7618
16.483597340, 96.390, 1421.0, 37.6962
16.509857905, 96.390, 1447.0, 38.0395
16.536118471, 96.390, 1366.0, 36.9594
16.562379036, 96.390, 1312.0, 36.2215
16.588639601, 96.390, 1352.0, 36.7696
16.614900167, 96.390, 1314.0, 36.2491
16.641160732, 96.390, 1329.0, 36.4555
16.667421297, 96.390, 1286.0, 35.8608
16.693681863, 96.390, 1377.0, 37.1080
16.719942428, 96.390, 1335.0, 36.5377
16.746202994, 96.390, 1282.0, 35.8050
16.772463559, 96.390, 1312.0, 36.2215
16.798724124, 96.390, 1307.0, 36.1525
16.824984690, 96.390, 1340.0, 36.6060
16.851245255, 96.390, 1422.0, 37.7094
16.877505820, 96.390, 1380.0, 37.1484
16.903766386, 96.390, 1451.0, 38.0920
16.930026951, 96.390, 1359.0, 36.8646
16.956287516, 96.390, 1346.0, 36.6879
16.982548082, 96.390, 1276.0, 35.7211
17.008808647, 96.390, 1280.0, 35.7771
17.035069212, 96.390, 1321.0, 36.3456
17.061329778, 96.390, 1415.0, 37.6165
17.087590343, 96.390, 1285.0, 35.8469
17.113850908, 96.390, 1279.0, 35.7631
17.140111474, 96.390, 1307.0, 36.1525
17.166372039, 96.390, 1315.0, 36.2629
17.192632605, 96.390, 1319.0, 36.3180
17.218893170, 96.390, 1332.0, 36.4966
17.245153735, 96.390, 1280.0, 35.7771
17.271414301, 96.390, 1306.0, 36.1386
17.297674866, 96.390, 1285.0, 35.8469
17.323935431, 96.390, 1329.0, 36.4555
17.350195997, 96.390, 1320.0, 36.3318
17.376456562, 96.390, 1352.0, 36.7696
17.402717127, 96.390, 1350.0, 36.7423
17.428977693, 96.390, 1339.0, 36.5923
17.455238258, 96.390, 1308.0, 36.1663
17.481498823, 96.390, 1303.0, 36.0971
17.507759389, 96.390, 1301.0, 36.0694
17.534019954, 96.390, 1333.0, 36.5103
17.560280520, 96.390, 1366.0, 36.9594
17.586541085, 96.390, 1345.0, 36.6742
17.612801650, 96.390, 1440.0, 37.9473
17.639062216, 96.390, 1407.0, 37.5100
17.665322781, 96.390, 1456.0, 38.1576
17.691583346, 96.390, 1529.0, 39.1024
17.717843912, 96.390, 1602.0, 40.0250
17.744104477, 96.390, 1525.0, 39.0512
17.770365042, 96.390, 1438.0, 37.9210
17.796625608, 96.390, 1394.0, 37.3363
17.822886173, 96.390, 1352.0, 36.7696
17.849146738, 96.390, 1405.0, 37.4833
17.875407304, 96.390, 1392.0, 37.3095
17.901667869, 96.390, 1437.0, 37.9078
17.927928434, 96.390, 1387.0, 37.2424
17.954189000, 96.390, 1405.0, 37.4833
17.980449565, 96.390, 1464.0, 38.2623
18.006710131, 96.390, 1465.0, 38.2753
18.032970696, 96.390, 1548.0, 39.3446
18.059231261, 96.390, 1657.0, 40.7063
18.085491827, 96.390, 1582.0, 39.7744
18.111752392, 96.390, 1646.0, 40.5709
18.138012957, 96.390, 1804.0, 42.4735
18.164273523, 96.390, 1965.0, 44.3283
18.190534088, 96.390, 2075.0, 45.5522
18.216794653, 96.390, 2319.0, 48.1560
18.243055219, 96.390, 2477.0, 49.7695
18.269315784, 96.390, 2871.0, 53.5817
18.295576349, 96.390, 3336.0, 57.7581
18.321836915, 96.390, 3725.0, 61.0328
18.348097480, 96.390, 4225.0, 65.0000
18.374358046, 96.390, 4783.0, 69.1592
18.400618611, 96.390, 5704.0, 75.5248
18.426879176, 96.390, 6310.0, 79.4355
18.453139742, 96.390, 7093.0, 84.2200
18.479400307, 96.390, 7682.0, 87.6470
18.505660872, 96.390, 7916.0, 88.9719
18.531921438, 96.390, 7720.0, 87.8635
18.558182003, 96.390, 7436.0, 86.2322
18.584442568, 96.390, 6939.0, 83.3007
18.610703134, 96.390, 6763.0, 82.2375
18.636963699, 96.390, 6274.0, 79.2086
18.663224264, 96.390, 6119.0, 78.2240
18.689484830, 96.390, 6069.0, 77.9038
18.715745395, 96.390, 6142.0, 78.3709
18.742005960, 96.390, 6473.0, 80.4550
18.768266526, 96.390, 6723.0, 81.9939
18.794527091, 96.390, 6925.0, 83.2166
18.820787657, 96.390, 6540.0, 80.8703
18.847048222, 96.390, 5477.0, 74.0068
18.873308787, 96.390, 4293.0, 65.5210
18.899569353, 96.390, 3180.0, 56.3915
18.925829918, 96.390, 2371.0, 48.6929
18.952090483, 96.390, 2153.0, 46.4004
18.978351049, 96.390, 1880.0, 43.3590
19.004611614, 96.390, 1681.0, 41.0000
19.030872179, 96.390, 1673.0, 40.9023
19.057132745, 96.390, 1566.0, 39.5727
19.083393310, 96.390, 1601.0, 40.0125
19.109653875, 96.390, 1431.0, 37.8286
19.135914441, 96.390, 1444.0, 38.0000
19.162175006, 96.390, 1400.0, 37.4166
19.188435572, 96.390, 1430.0, 37.8153
19.214696137, 96.390, 1386.0, 37.2290
19.240956702, 96.390, 1421.0, 37.6962
19.267217268, 96.390, 1413.0, 37.5899
19.293477833, 96.390, 1487.0, 38.5616
19.319738398, 96.390, 1493.0, 38.6394
19.345998964, 96.390, 1631.0, 40.3856
19.372259529, 96.390, 1805.0, 42.4853
19.398520094, 96.390, 2007.0, 44.7996
19.424780660, 96.390, 2254.0, 47.4763
19.451041225, 96.390, 2490.0, 49.8999
19.477301790, 96.390, 2708.0, 52.0384
19.503562356, 96.390, 2346.0, 48.4355
19.529822921, 96.390, 1955.0, 44.2154
19.556083486, 96.390, 1648.0, 40.5956
19.582344052, 96.390, 1548.0, 39.3446
19.608604617, 96.390, 1498.0, 38.7040
19.634865183, 96.390, 1543.0, 39.2810
19.661125748, 96.390, 1626.0, 40.3237
19.687386313, 96.390, 1741.0, 41.7253
19.713646879, 96.390, 1989.0, 44.5982
19.739907444, 96.390, 1933.0, 43.9659
19.766168009, 96.390, 1898.0, 43.5660
19.792428575, 96.390, 1869.0, 43.2319
19.818689140, 96.390, 1776.0, 42.1426
19.844949705, 96.390, 1874.0, 43.2897
19.871210271, 96.390, 2162.0, 46.4973
19.897470836, 96.390, 2447.0, 49.4672
19.923731401, 96.390, 2983.0, 54.6168
19.949991967, 96.390, 3623.0, 60.1914
19.976252532, 96.390, 5077.0, 71.2531
20.002513097, 96.390, 6209.0, 78.7972
20.028773663, 96.390, 6107.0, 78.1473
20.055034228, 96.390, 4669.0, 68.3301
20.081294794, 96.390, 3698.0, 60.8112
20.107555359, 96.390, 2765.0, 52.5833
20.133815924, 96.390, 2506.0, 50.0600
20.160076490, 96.390, 2726.0, 52.2111
20.186337055, 96.390, 3134.0, 55.9821
20.212597620, 96.390, 3654.0, 60.4483
20.238858186, 96.390, 4485.0, 66.9701
20.265118751, 96.390, 5567.0, 74.6123
20.291379316, 96.390, 6988.0, 83.5943
20.317639882, 96.390, 7995.0, 89.4148
20.343900447, 96.390, 8440.0, 91.8695
20.370161012, 96.390, 8208.0, 90.5980
20.396421578, 96.390, 7711.0, 87.8123
20.422682143, 96.390, 7151.0, 84.5636
20.448942709, 96.390, 6787.0, 82.3833
20.475203274, 96.390, 6512.0, 80.6970
20.501463839, 96.390, 5908.0, 76.8635
20.527724405, 96.390, 5259.0, 72.5190
20.553984970, 96.390, 4622.0, 67.9853
20.580245535, 96.390, 4149.0, 64.4127
20.606506101, 96.390, 4330.0, 65.8027
20.632766666, 96.390, 4785.0, 69.1737
20.659027231, 96.390, 5977.0, 77.3111
20.685287797, 96.390, 7723.0, 87.8806
20.711548362, 96.390, 10833.0, 104.0817
20.737808927, 96.390, 14268.0, 119.4487
20.764069493, 96.390, 14395.0, 119.9792
20.790330058, 96.390, 10296.0, 101.4692
20.816590623, 96.390, 7383.0, 85.9244
20.842851189, 96.390, 4117.0, 64.1639
20.869111754, 96.390, 2458.0, 49.5782
20.895372320, 96.390, 2071.0, 45.5082
20.921632885, 96.390, 1850.0, 43.0116
20.947893450, 96.390, 1705.0, 41.2916
20.974154016, 96.390, 1586.0, 39.8246
21.000414581, 96.390, 1505.0, 38.7943
21.026675146, 96.390, 1464.0, 38.2623
21.052935712, 96.390, 1429.0, 37.8021
21.079196277, 96.390, 1325.0, 36.4005
21.105456842, 96.390, 1413.0, 37.5899
21.131717408, 96.390, 1365.0, 36.9459
21.157977973, 96.390, 1336.0, 36.5513
21.184238538, 96.390, 1277.0, 35.7351
21.210499104, 96.390, 1304.0, 36.1109
21.236759669, 96.390, 1362.0, 36.9053
21.263020235, 96.390, 1306.0, 36.1386
21.289280800, 96.390, 1395.0, 37.3497
21.315541365, 96.390, 1392.0, 37.3095
21.341801931, 96.390, 1466.0, 38.2884
21.368062496, 96.390, 1587.0, 39.8372
21.394323061, 96.390, 1670.0, 40.8656
21.420583627, 96.390, 1748.0, 41.8091
21.446844192, 96.390, 1688.0, 41.0853
21.473104757, 96.390, 1699.0, 41.2189
21.499365323, 96.390, 1581.0, 39.7618
21.525625888, 96.390, 1644.0, 40.5463
21.551886453, 96.390, 1759.0, 41.9404
21.578147019, 96.390, 2081.0, 45.6180
21.604407584, 96.390, 2344.0, 48.4149
21.630668149, 96.390, 2881.0, 53.6749
21.656928715, 96.390, 3502.0, 59.1777
21.683189280, 96.390, 4527.0, 67.2830
21.709449846, 96.390, 5281.0, 72.6705
21.735710411, 96.390, 5462.0, 73.9053
21.761970976, 96.390, 4516.0, 67.2012
21.788231542, 96.390, 3573.0, 59.7746
21.814492107, 96.390, 2612.0, 51.1077
21.840752672, 96.390, 2026.0, 45.0111
21.867013238, 96.390, 1670.0, 40.8656
21.893273803, 96.390, 1480.0, 38.4708
21.919534368, 96.390, 1414.0, 37.6032
21.945794934, 96.390, 1369.0, 37.0000
21.972055499, 96.390, 1374.0, 37.0675
21.998316064, 96.390, 1355.0, 36.8103
22.024576630, 96.390, 1346.0, 36.6879
22.050837195, 96.390, 1304.0, 36.1109
22.077097761, 96.390, 1346.0, 36.6879
22.103358326, 96.390, 1285.0, 35.8469
22.129618891, 96.390, 1287.0, 35.8748
22.155879457, 96.390, 1215.0, 34.8569
22.182140022, 96.390, 1302.0, 36.0832
22.208400587, 96.390, 1354.0, 36.7967
22.234661153, 96.390, 1308.0, 36.1663
22.260921718, 96.390, 1378.0, 37.1214
22.287182283, 96.390, 1292.0, 35.9444
22.313442849, 96.390, 1256.0, 35.4401
22.339703414, 96.390, 1238.0, 35.1852
22.365963979, 96.390, 1241.0, 35.2278
22.392224545, 96.390, 1273.0, 35.6791
22.418485110, 96.390, 1323.0, 36.3731
22.444745675, 96.390, 1239.0, 35.1994
22.471006241, 96.390, 1255.0, 35.4260
22.497266806, 96.390, 1276.0, 35.7211
22.523527372, 96.390, 1261.0, 35.5106
22.549787937, 96.390, 1305.0, 36.1248
22.576048502, 96.390, 1262.0, 35.5246
22.602309068, 96.390, 1386.0, 37.2290
22.628569633, 96.390, 1258.0, 35.4683
22.654830198, 96.390, 1337.0, 36.5650
22.681090764, 96.390, 1384.0, 37.2022
22.707351329, 96.390, 1442.0, 37.9737
22.733611894, 96.390, 1396.0, 37.3631
22.759872460, 96.390, 1447.0, 38.0395
22.786133025, 96.390, 1484.0, 38.5227
22.812393590, 96.390, 1545.0, 39.3065
22.838654156, 96.390, 1593.0, 39.9124
22.864914721, 96.390, 1670.0, 40.8656
22.891175287, 96.390, 1825.0, 42.7200
22.917435852, 96.390, 1872.0, 43.2666
22.943696417, 96.390, 1800.0, 42.4264
22.969956983, 96.390, 1725.0, 41.5331
22.996217548, 96.390, 1685.0, 41.0488
23.022478113, 96.390, 1641.0, 40.5093
23.048738679, 96.390, 1597.0, 39.9625
23.074999244, 96.390, 1642.0, 40.5216
23.101259809, 96.390, 1635.0, 40.4351
23.127520375, 96.390, 1666.0, 40.8167
23.153780940, 96.390, 1668.0, 40.8412
23.180041505, 96.390, 1638.0, 40.4722
23.206302071, 96.390, 1643.0, 40.5339
23.232562636, 96.390, 1778.0, 42.1663
23.258823201, 96.390, 1762.0, 41.9762
23.285083767, 96.390, 1696.0, 41.1825
23.311344332, 96.390, 1843.0, 42.9302
23.337604898, 96.390, 1830.0, 42.7785
23.363865463, 96.390, 1848.0, 42.9884
23.390126028, 96.390, 1875.0, 43.3013
23.416386594, 96.390, 1971.0, 44.3959
23.442647159, 96.390, 1920.0, 43.8178
23.468907724, 96.390, 1829.0, 42.7668
23.495168290, 96.390, 2027.0, 45.0222
23.521428855, 96.390, 2017.0, 44.9110
23.547689420, 96.390, 2074.0, 45.5412
23.573949986, 96.390, 2099.0, 45.8148
23.600210551, 96.390, 2031.0, 45.0666
23.626471116, 96.390, 2006.0, 44.7884
23.652731682, 96.390, 2084.0, 45.6508
23.678992247, 96.390, 2096.0, 45.7821
23.705252813, 96.390, 2140.0, 46.2601
23.731513378, 96.390, 1980.0, 44.4972
23.757773943, 96.390, 2063.0, 45.4203
23.784034509, 96.390, 2129.0, 46.1411
23.810295074, 96.390, 2252.0, 47.4552
23.836555639, 96.390, 2465.0, 49.6488
23.862816205, 96.390, 2551.0, 50.5074
23.889076770, 96.390, 2952.0, 54.3323
23.915337335, 96.390, 3363.0, 57.9914
23.941597901, 96.390, 4044.0, 63.5925
23.967858466, 96.390, 4777.0, 69.1158
23.994119031, 96.390, 6170.0, 78.5493
24.020379597, 96.390, 7506.0, 86.6372
24.046640162, 96.390, 8369.0, 91.4822
24.072900727, 96.390, 7531.0, 86.7813
24.099161293, 96.390, 6131.0, 78.3007
24.125421858, 96.390, 4852.0, 69.6563
24.151682424, 96.390, 3806.0, 61.6928
24.177942989, 96.390, 3297.0, 57.4195
24.204203554, 96.390, 3076.0, 55.4617
24.230464120, 96.390, 2972.0, 54.5161
24.256724685, 96.390, 2578.0, 50.7740
24.282985250, 96.390, 2255.0, 47.4868
24.309245816, 96.390, 1936.0, 44.0000
24.335506381, 96.390, 1649.0, 40.6079
24.361766946, 96.390, 1564.0, 39.5474
24.388027512, 96.390, 1427.0, 37.7757
24.414288077, 96.390, 1381.0, 37.1618
24.440548642, 96.390, 1370.0, 37.0135
24.466809208, 96.390, 1275.0, 35.7071
24.493069773, 96.390, 1274.0, 35.6931
24.519330338, 96.390, 1280.0, 35.7771
24.545590904, 96.390, 1255.0, 35.4260
24.571851469, 96.390, 1136.0, 33.7046
24.598112035, 96.390, 1195.0, 34.5688
24.624372600, 96.390, 1122.0, 33.4963
24.650633165, 96.390, 1137.0, 33.7194
24.676893731, 96.390, 1109.0, 33.3017
24.703154296, 96.390, 1135.0, 33.6898
24.729414861, 96.390, 1157.0, 34.0147
24.755675427, 96.390, 1096.0, 33.1059
24.781935992, 96.390, 1121.0, 33.4813
24.808196557, 96.390, 1091.0, 33.0303
24.834457123, 96.390, 1076.0, 32.8024
24.860717688, 96.390, 1073.0, 32.7567
24.886978253, 96.390, 1125.0, 33.5410
24.913238819, 96.390, 1090.0, 33.0151
24.939499384, 96.390, 1102.0, 33.1964
24.965759950, 96.390, 1100.0, 33.1662
24.992020515, 96.390, 1078.0, 32.8329
25.018281080, 96.390, 1086.0, 32.9545
25.044541646, 96.390, 1088.0, 32.9848
25.070802211, 96.390, 1111.0, 33.3317
25.097062776, 96.390, 1144.0, 33.8231
25.123323342, 96.390, 1079.0, 32.8481
25.149583907, 96.390, 1113.0, 33.3617
25.175844472, 96.390, 1074.0, 32.7719
25.202105038, 96.390, 1084.0, 32.9242
25.228365603, 96.390, 1088.0, 32.9848
25.254626168, 96.390, 1115.0, 33.3916
25.280886734, 96.390, 1156.0, 34.0000
25.307147299, 96.390, 1147.0, 33.8674
25.333407864, 96.390, 1338.0, 36.5787
25.359668430, 96.390, 1501.0, 38.7427
25.385928995, 96.390, 1743.0, 41.7493
25.412189561, 96.390, 2113.0, 45.9674
25.438450126, 96.390, 2707.0, 52.0288
25.464710691, 96.390, 3308.0, 57.5152
25.490971257, 96.390, 3871.0, 62.2174
25.517231822, 96.390, 3118.0, 55.8391
25.543492387, 96.390, 2556.0, 50.5569
25.569752953, 96.390, 2082.0, 45.6289
25.596013518, 96.390, 1553.0, 39.4081
25.622274083, 96.390, 1215.0, 34.8569
25.648534649, 96.390, 1088.0, 32.9848
25.674795214, 96.390, 1061.0, 32.5730
25.701055779, 96.390, 1069.0, 32.6956
25.727316345, 96.390, 1108.0, 33.2866
25.753576910, 96.390, 1110.0, 33.3167
25.779837476, 96.390, 1060.0, 32.5576
25.806098041, 96.390, 1066.0, 32.6497
25.832358606, 96.390, 1088.0, 32.9848
25.858619172, 96.390, 1096.0, 33.1059
25.884879737, 96.390, 1118.0, 33.4365
25.911140302, 96.390, 1171.0, 34.2199
25.937400868, 96.390, 1187.0, 34.4529
25.963661433, 96.390, 1315.0, 36.2629
25.989921998, 96.390, 1305.0, 36.1248
26.016182564, 96.390, 1451.0, 38.0920
26.042443129, 96.390, 1620.0, 40.2492
26.068703694, 96.390, 1836.0, 42.8486
26.094964260, 96.390, 1992.0, 44.6318
26.121224825, 96.390, 2344.0, 48.4149
26.147485390, 96.390, 2792.0, 52.8394
26.173745956, 96.390, 3020.0, 54.9545
26.200006521, 96.390, 2668.0, 51.6527
26.226267087, 96.390, 2412.0, 49.1121
26.252527652, 96.390, 2001.0, 44.7325
26.278788217, 96.390, 1733.0, 41.6293
26.305048783, 96.390, 1438.0, 37.9210
26.331309348, 96.390, 1282.0, 35.8050
26.357569913, 96.390, 1284.0, 35.8329
26.383830479, 96.390, 1161.0, 34.0735
26.410091044, 96.390, 1218.0, 34.8999
26.436351609, 96.390, 1246.0, 35.2987
26.462612175, 96.390, 1249.0, 35.3412
26.488872740, 96.390, 1246.0, 35.2987
26.515133305, 96.390, 1259.0, 35.4824
26.541393871, 96.390, 1193.0, 34.5398
26.567654436, 96.390, 1244.0, 35.2704
26.593915002, 96.390, 1274.0, 35.6931
26.620175567, 96.390, 1151.0, 33.9264
26.646436132, 96.390, 1176.0, 34.2929
26.672696698, 96.390, 1276.0, 35.7211
26.698957263, 96.390, 1295.0, 35.9861
26.725217828, 96.390, 1292.0, 35.9444
26.751478394, 96.390, 1315.0, 36.2629
26.777738959, 96.390, 1222.0, 34.9571
26.803999524, 96.390, 1300.0, 36.0555
26.830260090, 96.390, 1428.0, 37.7889
26.856520655, 96.390, 1502.0, 38.7556
26.882781220, 96.390, 1596.0, 39.9500
26.909041786, 96.390, 1671.0, 40.8779
26.935302351, 96.390, 1657.0, 40.7063
26.961562916, 96.390, 1849.0, 43.0000
26.987823482, 96.390, 1989.0, 44.5982
27.014084047, 96.390, 2403.0, 49.0204
27.040344613, 96.390, 2741.0, 52.3546
27.066605178, 96.390, 3338.0, 57.7754
27.092865743, 96.390, 4315.0, 65.6887
27.119126309, 96.390, 5564.0, 74.5922
27.145386874, 96.390, 7386.0, 85.9418
27.171647439, 96.390, 8850.0, 94.0744
27.197908005, 96.390, 9347.0, 96.6799
27.224168570, 96.390, 8805.0, 93.8350
27.250429135, 96.390, 7431.0, 86.2032
27.276689701, 96.390, 5578.0, 74.6860
27.302950266, 96.390, 4259.0, 65.2610
27.329210831, 96.390, 3014.0, 54.8999
27.355471397, 96.390, 2275.0, 47.6970
27.381731962, 96.390, 1929.0, 43.9204
27.407992528, 96.390, 1873.0, 43.2782
27.434253093, 96.390, 1777.0, 42.1545
27.460513658, 96.390, 1756.0, 41.9047
27.486774224, 96.390, 1690.0, 41.1096
27.513034789, 96.390, 1676.0, 40.9390
27.539295354, 96.390, 1639.0, 40.4846
27.565555920, 96.390, 1814.0, 42.5911
27.591816485, 96.390, 1745.0, 41.7732
27.618077050, 96.390, 1856.0, 43.0813
27.644337616, 96.390, 1915.0, 43.7607
27.670598181, 96.390, 1881.0, 43.3705
27.696858746, 96.390, 1924.0, 43.8634
27.723119312, 96.390, 2107.0, 45.9021
27.749379877, 96.390, 2218.0, 47.0956
27.775640442, 96.390, 2272.0, 47.6655
27.801901008, 96.390, 2354.0, 48.5180
27.828161573, 96.390, 2257.0, 47.5079
27.854422139, 96.390, 2379.0, 48.7750
27.880682704, 96.390, 2335.0, 48.3218
27.906943269, 96.390, 2326.0, 48.2286
27.933203835, 96.390, 2126.0, 46.1086
27.959464400, 96.390, 2018.0, 44.9222
27.985724965, 96.390, 1919.0, 43.8064
28.011985531, 96.390, 1840.0, 42.8952
28.038246096, 96.390, 1812.0, 42.5676
28.064506661, 96.390, 1808.0, 42.5206
28.090767227, 96.390, 1668.0, 40.8412
28.117027792, 96.390, 1604.0, 40.0500
28.143288357, 96.390, 1640.0, 40.4969
28.169548923, 96.390, 1555.0, 39.4335
28.195809488, 96.390, 1546.0, 39.3192
28.222070054, 96.390, 1414.0, 37.6032
28.248330619, 96.390, 1386.0, 37.2290
28.274591184, 96.390, 1307.0, 36.1525
28.300851750, 96.390, 1196.0, 34.5832
28.327112315, 96.390, 1233.0, 35.1141
28.353372880, 96.390, 1192.0, 34.5254
28.379633446, 96.390, 1156.0, 34.0000
28.405894011, 96.390, 1182.0, 34.3802
28.432154576, 96.390, 1230.0, 35.0714
28.458415142, 96.390, 1153.0, 33.9559
28.484675707, 96.390, 1094.0, 33.0757
28.510936272, 96.390, 1115.0, 33.3916
28.537196838, 96.390, 1166.0, 34.1467
28.563457403, 96.390, 1120.0, 33.4664
28.589717968, 96.390, 1154.0, 33.9706
28.615978534, 96.390, 1119.0, 33.4515
28.642239099, 96.390, 1213.0, 34.8281
28.668499665, 96.390, 1193.0, 34.5398
28.694760230, 96.390, 1353.0, 36.7831
28.721020795, 96.390, 1404.0, 37.4700
28.747281361, 96.390, 1681.0, 41.0000
28.773541926, 96.390, 1862.0, 43.1509
28.799802491, 96.390, 2013.0, 44.8665
28.826063057, 96.390, 1945.0, 44.1022
28.852323622, 96.390, 1650.0, 40.6202
28.878584187, 96.390, 1551.0, 39.3827
28.904844753, 96.390, 1496.0, 38.6782
28.931105318, 96.390, 1250.0, 35.3553
28.957365883, 96.390, 1234.0, 35.1283
28.983626449, 96.390, 1370.0, 37.0135
29.009887014, 96.390, 1298.0, 36.0278
29.036147579, 96.390, 1451.0, 38.0920
29.062408145, 96.390, 1664.0, 40.7922
29.088668710, 96.390, 1953.0, 44.1928
29.114929276, 96.390, 2209.0, 47.0000
29.141189841, 96.390, 2490.0, 49.8999
29.167450406, 96.390, 2489.0, 49.8899
29.193710972, 96.390, 2106.0, 45.8912
29.219971537, 96.390, 1920.0, 43.8178
29.246232102, 96.390, 1627.0, 40.3361
29.272492668, 96.390, 1337.0, 36.5650
29.298753233, 96.390, 1318.0, 36.3043
29.325013798, 96.390, 1160.0, 34.0588
29.351274364, 96.390, 1127.0, 33.5708
29.377534929, 96.390, 1125.0, 33.5410
29.403795494, 96.390, 1147.0, 33.8674
29.430056060, 96.390, 1220.0, 34.9285
29.456316625, 96.390, 1164.0, 34.1174
29.482577191, 96.390, 1140.0, 33.7639
29.508837756, 96.390, 1238.0, 35.1852
29.535098321, 96.390, 1111.0, 33.3317
29.561358887, 96.390, 1118.0, 33.4365
29.587619452, 96.390, 1196.0, 34.5832
29.613880017, 96.390, 1253.0, 35.3977
29.640140583, 96.390, 1277.0, 35.7351
29.666401148, 96.390, 1294.0, 35.9722
29.692661713, 96.390, 1347.0, 36.7015
29.718922279, 96.390, 1431.0, 37.8286
29.745182844, 96.390, 1486.0, 38.5487
29.771443409, 96.390, 1611.0, 40.1373
29.797703975, 96.390, 1763.0, 41.9881
29.823964540, 96.390, 2016.0, 44.8999
29.850225105, 96.390, 2416.0, 49.1528
29.876485671, 96.390, 2912.0, 53.9630
29.902746236, 96.390, 3752.0, 61.2536
29.929006802, 96.390, 4871.0, 69.7925
29.955267367, 96.390, 6276.0, 79.2212
29.981527932, 96.390, 7887.0, 88.8088
30.007788498, 96.390, 8315.0, 91.1866
30.034049063, 96.390, 7289.0, 85.3756
30.060309628, 96.390, 6040.0, 77.7174
30.086570194, 96.390, 5077.0, 71.2531
30.112830759, 96.390, 3879.0, 62.2816
30.139091324, 96.390, 2722.0, 52.1728
30.165351890, 96.390, 2133.0, 46.1844
30.191612455, 96.390, 1746.0, 41.7852
30.217873020, 96.390, 1533.0, 39.1535
30.244133586, 96.390, 1471.0, 38.3536
30.270394151, 96.390, 1372.0, 37.0405
30.296654717, 96.390, 1277.0, 35.7351
30.322915282, 96.390, 1270.0, 35.6371
30.349175847, 96.390, 1224.0, 34.9857
30.375436413, 96.390, 1224.0, 34.9857
30.401696978, 96.390, 1182.0, 34.3802
30.427957543, 96.390, 1151.0, 33.9264
30.454218109, 96.390, 1177.0, 34.3074
30.480478674, 96.390, 1120.0, 33.4664
30.506739239, 96.390, 1172.0, 34.2345
30.532999805, 96.390, 1175.0, 34.2783
30.559260370, 96.390, 1243.0, 35.2562
30.585520935, 96.390, 1300.0, 36.0555
30.611781501, 96.390, 1489.0, 38.5876
30.638042066, 96.390, 1686.0, 41.0609
30.664302631, 96.390, 1985.0, 44.5533
30.690563197, 96.390, 2204.0, 46.9468
30.716823762, 96.390, 2186.0, 46.7547
30.743084328, 96.390, 2048.0, 45.2548
30.769344893, 96.390, 2084.0, 45.6508
30.795605458, 96.390, 2156.0, 46.4327
30.821866024, 96.390, 2342.0, 48.3942
30.848126589, 96.390, 2647.0, 51.4490
30.874387154, 96.390, 3039.0, 55.1271
30.900647720, 96.390, 2832.0, 53.2165
30.926908285, 96.390, 2528.0, 50.2792
30.953168850, 96.390, 2306.0, 48.0208
30.979429416, 96.390, 1979.0, 44.4860
31.005689981, 96.390, 1666.0, 40.8167
31.031950546, 96.390, 1409.0, 37.5366
31.058211112, 96.390, 1441.0, 37.9605
31.084471677, 96.390, 1467.0, 38.3014
31.110732243, 96.390, 1471.0, 38.3536
31.136992808, 96.390, 1714.0, 41.4005
31.163253373, 96.390, 2009.0, 44.8219
31.189513939, 96.390, 2620.0, 51.1859
31.215774504, 96.390, 3391.0, 58.2323
31.242035069, 96.390, 4003.0, 63.2693
31.268295635, 96.390, 3916.0, 62.5780
31.294556200, 96.390, 3166.0, 56.2672
31.320816765, 96.390, 2911.0, 53.9537
31.347077331, 96.390, 2542.0, 50.4183
31.373337896, 96.390, 1915.0, 43.7607
31.399598461, 96.390, 1522.0, 39.0128
31.425859027, 96.390, 1437.0, 37.9078
31.452119592, 96.390, 1415.0, 37.6165
31.478380157, 96.390, 1500.0, 38.7298
31.504640723, 96.390, 1564.0, 39.5474
31.530901288, 96.390, 1795.0, 42.3674
31.557161854, 96.390, 1919.0, 43.8064
31.583422419, 96.390, 1834.0, 42.8252
31.609682984, 96.390, 1785.0, 42.2493
31.635943550, 96.390, 1996.0, 44.6766
31.662204115, 96.390, 2062.0, 45.4093
31.688464680, 96.390, 1984.0, 44.5421
31.714725246, 96.390, 1754.0, 41.8808
31.740985811, 96.390, 1610.0, 40.1248
31.767246376, 96.390, 1516.0, 38.9358
31.793506942, 96.390, 1527.0, 39.0768
31.819767507, 96.390, 1323.0, 36.3731
31.846028072, 96.390, 1366.0, 36.9594
31.872288638, 96.390, 1546.0, 39.3192
31.898549203, 96.390, 1756.0, 41.9047
31.924809769, 96.390, 2058.0, 45.3652
31.951070334, 96.390, 2299.0, 47.9479
31.977330899, 96.390, 3030.0, 55.0454
32.003591465, 96.390, 4258.0, 65.2534
32.029852030, 96.390, 5787.0, 76.0723
32.056112595, 96.390, 8516.0, 92.2822
32.082373161, 96.390, 11547.0, 107.4570
32.108633726, 96.390, 12739.0, 112.8672
32.134894291, 96.390, 10745.0, 103.6581
32.161154857, 96.390, 8465.0, 92.0054
32.187415422, 96.390, 7253.0, 85.1645
32.213675987, 96.390, 5405.0, 73.5187
32.239936553, 96.390, 3240.0, 56.9210
32.266197118, 96.390, 2172.0, 46.6047
32.292457683, 96.390, 1690.0, 41.1096
32.318718249, 96.390, 1564.0, 39.5474
32.344978814, 96.390, 1406.0, 37.4967
32.371239380, 96.390, 1446.0, 38.0263
32.397499945, 96.390, 1375.0, 37.0810
32.423760510, 96.390, 1407.0, 37.5100
32.450021076, 96.390, 1438.0, 37.9210
32.476281641, 96.390, 1532.0, 39.1408
32.502542206, 96.390, 1607.0, 40.0874
32.528802772, 96.390, 1797.0, 42.3910
32.555063337, 96.390, 2003.0, 44.7549
32.581323902, 96.390, 2348.0, 48.4562
32.607584468, 96.390, 2414.0, 49.1325
32.633845033, 96.390, 2279.0, 47.7389
32.660105598, 96.390, 2156.0, 46.4327
32.686366164, 96.390, 1924.0, 43.8634
32.712626729, 96.390, 1756.0, 41.9047
32.738887295, 96.390, 1613.0, 40.1622
32.765147860, 96.390, 1324.0, 36.3868
32.791408425, 96.390, 1276.0, 35.7211
32.817668991, 96.390, 1236.0, 35.1568
32.843929556, 96.390, 1188.0, 34.4674
32.870190121, 96.390, 1069.0, 32.6956
32.896450687, 96.390, 1106.0, 33.2566
32.922711252, 96.390, 1149.0, 33.8969
32.948971817, 96.390, 1143.0, 33.8083
32.975232383, 96.390, 1159.0, 34.0441
33.001492948, 96.390, 1165.0, 34.1321
33.027753513, 96.390, 1197.0, 34.5977
33.054014079, 96.390, 1166.0, 34.1467
33.080274644, 96.390, 1129.0, 33.6006
33.106535209, 96.390, 1259.0, 35.4824
33.132795775, 96.390, 1328.0, 36.4417
33.159056340, 96.390, 1293.0, 35.9583
33.185316906, 96.390, 1323.0, 36.3731
33.211577471, 96.390, 1358.0, 36.8511
33.237838036, 96.390, 1289.0, 35.9026
33.264098602, 96.390, 1323.0, 36.3731
33.290359167, 96.390, 1389.0, 37.2693
33.316619732, 96.390, 1271.0, 35.6511
33.342880298, 96.390, 1297.0, 36.0139
33.369140863, 96.390, 1351.0, 36.7560
33.395401428, 96.390, 1461.0, 38.2230
33.421661994, 96.390, 1496.0, 38.6782
33.447922559, 96.390, 1529.0, 39.1024
33.474183124, 96.390, 1572.0, 39.6485
33.500443690, 96.390, 1369.0, 37.0000
33.526704255, 96.390, 1290.0, 35.9166
33.552964820, 96.390, 1284.0, 35.8329
33.579225386, 96.390, 1236.0, 35.1568
33.605485951, 96.390, 1236.0, 35.1568
33.631746517, 96.390, 1163.0, 34.1028
33.658007082, 96.390, 1162.0, 34.0881
33.684267647, 96.390, 1147.0, 33.8674
33.710528213, 96.390, 1172.0, 34.2345
33.736788778, 96.390, 1151.0, 33.9264
33.763049343, 96.390, 1258.0, 35.4683
33.789309909, 96.390, 1282.0, 35.8050
33.815570474, 96.390, 1357.0, 36.8375
33.841831039, 96.390, 1459.0, 38.1969
33.868091605, 96.390, 1702.0, 41.2553
33.894352170, 96.390, 2053.0, 45.3100
33.920612735, 96.390, 2546.0, 50.4579
33.946873301, 96.390, 3396.0, 58.2752
33.973133866, 96.390, 4580.0, 67.6757
33.999394432, 96.390, 5399.0, 73.4779
34.025654997, 96.390, 4886.0, 69.8999
34.051915562, 96.390, 3953.0, 62.8729
34.078176128, 96.390, 4062.0, 63.7338
34.104436693, 96.390, 3876.0, 62.2575
34.130697258, 96.390, 3458.0, 58.8048
34.156957824, 96.390, 3462.0, 58.8388
34.183218389, 96.390, 4215.0, 64.9230
34.209478954, 96.390, 5079.0, 71.2671
34.235739520, 96.390, 5632.0, 75.0467
34.262000085, 96.390, 5223.0, 72.2703
34.288260650, 96.390, 4577.0, 67.6535
34.314521216, 96.390, 4241.0, 65.1230
34.340781781, 96.390, 3722.0, 61.0082
34.367042346, 96.390, 3085.0, 55.5428
34.393302912, 96.390, 2646.0, 51.4393
34.419563477, 96.390, 2495.0, 49.9500
34.445824043, 96.390, 2399.0, 48.9796
34.472084608, 96.390, 2490.0, 49.8999
34.498345173, 96.390, 2696.0, 51.9230
34.524605739, 96.390, 2705.0, 52.0096
34.550866304, 96.390, 2498.0, 49.9800
34.577126869, 96.390, 2410.0, 49.0918
34.603387435, 96.390, 2268.0, 47.6235
34.629648000, 96.390, 2254.0, 47.4763
34.655908565, 96.390, 1956.0, 44.2267
34.682169131, 96.390, 2058.0, 45.3652
34.708429696, 96.390, 2073.0, 45.5302
34.734690261, 96.390, 2058.0, 45.3652
34.760950827, 96.390, 2090.0, 45.7165
34.787211392, 96.390, 2207.0, 46.9787
34.813471958, 96.390, 2322.0, 48.1871
34.839732523, 96.390, 2572.0, 50.7149
34.865993088, 96.390, 2994.0, 54.7175
34.892253654, 96.390, 3534.0, 59.4475
34.918514219, 96.390, 4337.0, 65.8559
34.944774784, 96.390, 5030.0, 70.9225
34.971035350, 96.390, 5295.0, 72.7668
34.997295915, 96.390, 5117.0, 71.5332
35.023556480, 96.390, 4468.0, 66.8431
35.049817046, 96.390, 3728.0, 61.0574
35.076077611, 96.390, 3255.0, 57.0526
35.102338176, 96.390, 2743.0, 52.3737
35.128598742, 96.390, 2090.0, 45.7165
35.154859307, 96.390, 1924.0, 43.8634
35.181119872, 96.390, 1695.0, 41.1704
35.207380438, 96.390, 1602.0, 40.0250
35.233641003, 96.390, 1625.0, 40.3113
35.259901569, 96.390, 1557.0, 39.4588
35.286162134, 96.390, 1519.0, 38.9744
35.312422699, 96.390, 1563.0, 39.5348
35.338683265, 96.390, 1594.0, 39.9249
35.364943830, 96.390, 1488.0, 38.5746
35.391204395, 96.390, 1522.0, 39.0128
35.417464961, 96.390, 1527.0, 39.0768
35.443725526, 96.390, 1455.0, 38.1445
35.469986091, 96.390, 1484.0, 38.5227
35.496246657, 96.390, 1439.0, 37.9342
35.522507222, 96.390, 1462.0, 38.2361
35.548767787, 96.390, 1493.0, 38.6394
35.575028353, 96.390, 1432.0, 37.8418
35.601288918, 96.390, 1526.0, 39.0640
35.627549484, 96.390, 1709.0, 41.3401
35.653810049, 96.390, 1886.0, 43.4281
35.680070614, 96.390, 1867.0, 43.2088
35.706331180, 96.390, 1714.0, 41.4005
35.732591745, 96.390, 1845.0, 42.9535
35.758852310, 96.390, 1966.0, 44.3396
35.785112876, 96.390, 2069.0, 45.4863
35.811373441, 96.390, 2006.0, 44.7884
35.837634006, 96.390, 1926.0, 43.8862
35.863894572, 96.390, 1888.0, 43.4511
35.890155137, 96.390, 1938.0, 44.0227
35.916415702, 96.390, 1684.0, 41.0366
35.942676268, 96.390, 1605.0, 40.0625
35.968936833, 96.390, 1553.0, 39.4081
35.995197398, 96.390, 1407.0, 37.5100
36.021457964, 96.390, 1349.0, 36.7287
36.047718529, 96.390, 1355.0, 36.8103
36.073979095, 96.390, 1293.0, 35.9583
36.100239660, 96.390, 1352.0, 36.7696
36.126500225, 96.390, 1411.0, 37.5633
36.152760791, 96.390, 1338.0, 36.5787
36.179021356, 96.390, 1362.0, 36.9053
36.205281921, 96.390, 1360.0, 36.8782
36.231542487, 96.390, 1400.0, 37.4166
36.257803052, 96.390, 1334.0, 36.5240
36.284063617, 96.390, 1361.0, 36.8917
36.310324183, 96.390, 1376.0, 37.0945
36.336584748, 96.390, 1333.0, 36.5103
36.362845313, 96.390, 1392.0, 37.3095
36.389105879, 96.390, 1411.0, 37.5633
36.415366444, 96.390, 1454.0, 38.1314
36.441627010, 96.390, 1468.0, 38.3145
36.467887575, 96.390, 1491.0, 38.6135
36.494148140, 96.390, 1539.0, 39.2301
36.520408706, 96.390, 1659.0, 40.7308
36.546669271, 96.390, 1755.0, 41.8927
36.572929836, 96.390, 1718.0, 41.4488
36.599190402, 96.390, 1710.0, 41.3521
36.625450967, 96.390, 1687.0, 41.0731
36.651711532, 96.390, 1484.0, 38.5227
36.677972098, 96.390, 1476.0, 38.4187
36.704232663, 96.390, 1392.0, 37.3095
36.730493228, 96.390, 1316.0, 36.2767
36.756753794, 96.390, 1240.0, 35.2136
36.783014359, 96.390, 1204.0, 34.6987
36.809274924, 96.390, 1175.0, 34.2783
36.835535490, 96.390, 1184.0, 34.4093
36.861796055, 96.390, 1197.0, 34.5977
36.888056621, 96.390, 1176.0, 34.2929
36.914317186, 96.390, 1143.0, 33.8083
36.940577751, 96.390, 1150.0, 33.9116
36.966838317, 96.390, 1114.0, 33.3766
36.993098882, 96.390, 1147.0, 33.8674
37.019359447, 96.390, 1190.0, 34.4964
37.045620013, 96.390, 1175.0, 34.2783
37.071880578, 96.390, 1152.0, 33.9411
37.098141143, 96.390, 1183.0, 34.3948
37.124401709, 96.390, 1176.0, 34.2929
37.150662274, 96.390, 1142.0, 33.7935
37.176922839, 96.390, 1137.0, 33.7194
37.203183405, 96.390, 1245.0, 35.2846
37.229443970, 96.390, 1240.0, 35.2136
37.255704535, 96.390, 1194.0, 34.5543
37.281965101, 96.390, 1331.0, 36.4829
37.308225666, 96.390, 1341.0, 36.6197
37.334486232, 96.390, 1336.0, 36.5513
37.360746797, 96.390, 1388.0, 37.2559
37.387007362, 96.390, 1395.0, 37.3497
37.413267928, 96.390, 1332.0, 36.4966
37.439528493, 96.390, 1443.0, 37.9868
37.465789058, 96.390, 1420.0, 37.6829
37.492049624, 96.390, 1491.0, 38.6135
37.518310189, 96.390, 1490.0, 38.6005
37.544570754, 96.390, 1427.0, 37.7757
37.570831320, 96.390, 1538.0, 39.2173
37.597091885, 96.390, 1709.0, 41.3401
37.623352450, 96.390, 1717.0, 41.4367
37.649613016, 96.390, 1737.0, 41.6773
37.675873581, 96.390, 2064.0, 45.4313
37.702134147, 96.390, 2265.0, 47.5920
37.728394712, 96.390, 2427.0, 49.2646
37.754655277, 96.390, 2767.0, 52.6023
37.780915843, 96.390, 2996.0, 54.7357
37.807176408, 96.390, 2800.0, 52.9150
37.833436973, 96.390, 2288.0, 47.8330
37.859697539, 96.390, 2386.0, 48.8467
37.885958104, 96.390, 2188.0, 46.7761
37.912218669, 96.390, 1989.0, 44.5982
37.938479235, 96.390, 1814.0, 42.5911
37.964739800, 96.390, 1773.0, 42.1070
37.991000365, 96.390, 1744.0, 41.7612
38.017260931, 96.390, 1853.0, 43.0465
38.043521496, 96.390, 1869.0, 43.2319
38.069782061, 96.390, 1967.0, 44.3509
38.096042627, 96.390, 1895.0, 43.5316
38.122303192, 96.390, 2043.0, 45.1996
38.148563758, 96.390, 1920.0, 43.8178
38.174824323, 96.390, 2053.0, 45.3100
38.201084888, 96.390, 2046.0, 45.2327
38.227345454, 96.390, 2086.0, 45.6727
38.253606019, 96.390, 1919.0, 43.8064
38.279866584, 96.390, 1804.0, 42.4735
38.306127150, 96.390, 1696.0, 41.1825
38.332387715, 96.390, 1655.0, 40.6817
38.358648280, 96.390, 1668.0, 40.8412
38.384908846, 96.390, 1523.0, 39.0256
38.411169411, 96.390, 1433.0, 37.8550
38.437429976, 96.390, 1503.0, 38.7685
38.463690542, 96.390, 1522.0, 39.0128
38.489951107, 96.390, 1533.0, 39.1535
38.516211673, 96.390, 1590.0, 39.8748
38.542472238, 96.390, 1481.0, 38.4838
38.568732803, 96.390, 1551.0, 39.3827
38.594993369, 96.390, 1520.0, 38.9872
38.621253934, 96.390, 1647.0, 40.5832
38.647514499, 96.390, 1630.0, 40.3733
38.673775065, 96.390, 1728.0, 41.5692
38.700035630, 96.390, 1651.0, 40.6325
38.726296195, 96.390, 1907.0, 43.6692
38.752556761, 96.390, 2084.0, 45.6508
38.778817326, 96.390, 2365.0, 48.6313
38.805077891, 96.390, 2510.0, 50.0999
38.831338457, 96.390, 2549.0, 50.4876
38.857599022, 96.390, 2266.0, 47.6025
38.883859587, 96.390, 2021.0, 44.9555
38.910120153, 96.390, 2042.0, 45.1885
38.936380718, 96.390, 1865.0, 43.1856
38.962641284, 96.390, 1704.0, 41.2795
38.988901849, 96.390, 1563.0, 39.5348
39.015162414, 96.390, 1527.0, 39.0768
39.041422980, 96.390, 1406.0, 37.4967
39.067683545, 96.390, 1433.0, 37.8550
39.093944110, 96.390, 1372.0, 37.0405
39.120204676, 96.390, 1408.0, 37.5233
39.146465241, 96.390, 1472.0, 38.3667
39.172725806, 96.390, 1402.0, 37.4433
39.198986372, 96.390, 1421.0, 37.6962
39.225246937, 96.390, 1498.0, 38.7040
39.251507502, 96.390, 1537.0, 39.2046
39.277768068, 96.390, 1532.0, 39.1408
39.304028633, 96.390, 1705.0, 41.2916
39.330289199, 96.390, 1780.0, 42.1900
39.356549764, 96.390, 1983.0, 44.5309
39.382810329, 96.390, 2172.0, 46.6047
39.409070895, 96.390, 2605.0, 51.0392
39.435331460, 96.390, 2978.0, 54.5711
39.461592025, 96.390, 3455.0, 58.7792
39.487852591, 96.390, 3484.0, 59.0254
39.514113156, 96.390, 2981.0, 54.5985
39.540373721, 96.390, 2624.0, 51.2250
39.566634287, 96.390, 2644.0, 51.4198
39.592894852, 96.390, 2437.0, 49.3660
39.619155417, 96.390, 2016.0, 44.8999
39.645415983, 96.390, 1749.0, 41.8210
39.671676548, 96.390, 1663.0, 40.7799
39.697937113, 96.390, 1615.0, 40.1871
39.724197679, 96.390, 1601.0, 40.0125
39.750458244, 96.390, 1521.0, 39.0000
39.776718810, 96.390, 1526.0, 39.0640
39.802979375, 96.390, 1546.0, 39.3192
39.829239940, 96.390, 1577.0, 39.7115
39.855500506, 96.390, 1613.0, 40.1622
39.881761071, 96.390, 1551.0, 39.3827
39.908021636, 96.390, 1611.0, 40.1373
39.934282202, 96.390, 1627.0, 40.3361
39.960542767, 96.390, 1681.0, 41.0000
39.986803332, 96.390, 1701.0, 41.2432
40.013063898, 96.390, 1736.0, 41.6653
40.039324463, 96.390, 1889.0, 43.4626
40.065585028, 96.390, 1910.0, 43.7035
40.091845594, 96.390, 2106.0, 45.8912
40.118106159, 96.390, 2288.0, 47.8330
40.144366725, 96.390, 2421.0, 49.2037
40.170627290, 96.390, 2485.0, 49.8498
40.196887855, 96.390, 2504.0, 50.0400
40.223148421, 96.390, 2462.0, 49.6185
40.249408986, 96.390, 2456.0, 49.5580
40.275669551, 96.390, 2538.0, 50.3786
40.301930117, 96.390, 2498.0, 49.9800
40.328190682, 96.390, 2460.0, 49.5984
40.354451247, 96.390, 2700.0, 51.9615
40.380711813, 96.390, 2610.0, 51.0882
40.406972378, 96.390, 2889.0, 53.7494
40.433232943, 96.390, 3054.0, 55.2630
40.459493509, 96.390, 3301.0, 57.4543
40.485754074, 96.390, 3643.0, 60.3573
40.512014639, 96.390, 3767.0, 61.3759
40.538275205, 96.390, 3959.0, 62.9206
40.564535770, 96.390, 4305.0, 65.6125
40.590796336, 96.390, 4479.0, 66.9253
40.617056901, 96.390, 4712.0, 68.6440
40.643317466, 96.390, 4744.0, 68.8767
40.669578032, 96.390, 4273.0, 65.3682
40.695838597, 96.390, 3899.0, 62.4420
40.722099162, 96.390, 3756.0, 61.2862
40.748359728, 96.390, 3327.0, 57.6802
40.774620293, 96.390, 2773.0, 52.6593
40.800880858, 96.390, 2554.0, 50.5371
40.827141424, 96.390, 2183.0, 46.7226
40.853401989, 96.390, 2054.0, 45.3211
40.879662554, 96.390, 1783.0, 42.2256
40.905923120, 96.390, 1715.0, 41.4126
40.932183685, 96.390, 1627.0, 40.3361
40.958444251, 96.390, 1576.0, 39.6989
40.984704816, 96.390, 1490.0, 38.6005
41.010965381, 96.390, 1527.0, 39.0768
41.037225947, 96.390, 1563.0, 39.5348
41.063486512, 96.390, 1487.0, 38.5616
41.089747077, 96.390, 1425.0, 37.7492
41.116007643, 96.390, 1462.0, 38.2361
41.142268208, 96.390, 1426.0, 37.7624
41.168528773, 96.390, 1430.0, 37.8153
41.194789339, 96.390, 1438.0, 37.9210
41.221049904, 96.390, 1436.0, 37.8946
41.247310469, 96.390, 1481.0, 38.4838
41.273571035, 96.390, 1593.0, 39.9124
41.299831600, 96.390, 1699.0, 41.2189
41.326092165, 96.390, 1930.0, 43.9318
41.352352731, 96.390, 2335.0, 48.3218
41.378613296, 96.390, 2674.0, 51.7107
41.404873862, 96.390, 3168.0, 56.2850
41.431134427, 96.390, 3450.0, 58.7367
41.457394992, 96.390, 3058.0, 55.2992
41.483655558, 96.390, 2679.0, 51.7591
41.509916123, 96.390, 2693.0, 51.8941
41.536176688, 96.390, 2828.0, 53.1789
41.562437254, 96.390, 2646.0, 51.4393
41.588697819, 96.390, 2390.0, 48.8876
41.614958384, 96.390, 2026.0, 45.0111
41.641218950, 96.390, 1831.0, 42.7902
41.667479515, 96.390, 1866.0, 43.1972
41.693740080, 96.390, 1712.0, 41.3763
41.720000646, 96.390, 1556.0, 39.4462
41.746261211, 96.390, 1435.0, 37.8814
41.772521776, 96.390, 1372.0, 37.0405
41.798782342, 96.390, 1363.0, 36.9188
41.825042907, 96.390, 1339.0, 36.5923
41.851303473, 96.390, 1292.0, 35.9444
41.877564038, 96.390, 1339.0, 36.5923
41.903824603, 96.390, 1258.0, 35.4683
41.930085169, 96.390, 1260.0, 35.4965
41.956345734, 96.390, 1153.0, 33.9559
41.982606299, 96.390, 1262.0, 35.5246
42.008866865, 96.390, 1299.0, 36.0416
42.035127430, 96.390, 1337.0, 36.5650
42.061387995, 96.390, 1304.0, 36.1109
42.087648561, 96.390, 1369.0, 37.0000
42.113909126, 96.390, 1564.0, 39.5474
42.140169691, 96.390, 1668.0, 40.8412
42.166430257, 96.390, 1983.0, 44.5309
42.192690822, 96.390, 1989.0, 44.5982
42.218951388, 96.390, 1947.0, 44.1248
42.245211953, 96.390, 2035.0, 45.1110
42.271472518, 96.390, 1904.0, 43.6348
42.297733084, 96.390, 1795.0, 42.3674
42.323993649, 96.390, 1568.0, 39.5980
42.350254214, 96.390, 1493.0, 38.6394
42.376514780, 96.390, 1348.0, 36.7151
42.402775345, 96.390, 1361.0, 36.8917
42.429035910, 96.390, 1221.0, 34.9428
42.455296476, 96.390, 1278.0, 35.7491
42.481557041, 96.390, 1259.0, 35.4824
42.507817606, 96.390, 1351.0, 36.7560
42.534078172, 96.390, 1497.0, 38.6911
42.560338737, 96.390, 1629.0, 40.3609
42.586599302, 96.390, 1752.0, 41.8569
42.612859868, 96.390, 1726.0, 41.5452
42.639120433, 96.390, 1622.0, 40.2741
42.665380999, 96.390, 1518.0, 38.9615
42.691641564, 96.390, 1422.0, 37.7094
42.717902129, 96.390, 1334.0, 36.5240
42.744162695, 96.390, 1346.0, 36.6879
42.770423260, 96.390, 1205.0, 34.7131
42.796683825, 96.390, 1168.0, 34.1760
42.822944391, 96.390, 1173.0, 34.2491
42.849204956, 96.390, 1189.0, 34.4819
42.875465521, 96.390, 1242.0, 35.2420
42.901726087, 96.390, 1328.0, 36.4417
42.927986652, 96.390, 1346.0, 36.6879
42.954247217, 96.390, 1355.0, 36.8103
42.980507783, 96.390, 1186.0, 34.4384
43.006768348, 96.390, 1274.0, 35.6931
43.033028914, 96.390, 1186.0, 34.4384
43.059289479, 96.390, 1188.0, 34.4674
43.085550044, 96.390, 1107.0, 33.2716
43.111810610, 96.390, 1048.0, 32.3728
43.138071175, 96.390, 1109.0, 33.3017
43.164331740, 96.390, 1034.0, 32.1559
43.190592306, 96.390, 1071.0, 32.7261
43.216852871, 96.390, 1023.0, 31.9844
43.243113436, 96.390, 1000.0, 31.6228
43.269374002, 96.390, 1050.0, 32.4037
43.295634567, 96.390, 1069.0, 32.6956
43.321895132, 96.390, 1054.0, 32.4654
43.348155698, 96.390, 1111.0, 33.3317
43.374416263, 96.390, 1121.0, 33.4813
43.400676828, 96.390, 1098.0, 33.1361
43.426937394, 96.390, 1108.0, 33.2866
43.453197959, 96.390, 1122.0, 33.4963
43.479458525, 96.390, 1268.0, 35.6090
43.505719090, 96.390, 1272.0, 35.6651
43.531979655, 96.390, 1350.0, 36.7423
43.558240221, 96.390, 1428.0, 37.7889
43.584500786, 96.390, 1446.0, 38.0263
43.610761351, 96.390, 1500.0, 38.7298
43.637021917, 96.390, 1533.0, 39.1535
43.663282482, 96.390, 1581.0, 39.7618
43.689543047, 96.390, 1727.0, 41.5572
43.715803613, 96.390, 2010.0, 44.8330
43.742064178, 96.390, 2284.0, 47.7912
43.768324743, 96.390, 2650.0, 51.4782
43.794585309, 96.390, 3077.0, 55.4707
43.820845874, 96.390, 2840.0, 53.2917
43.847106440, 96.390, 2415.0, 49.1426
43.873367005, 96.390, 2174.0, 46.6262
43.899627570, 96.390, 2231.0, 47.2335
43.925888136, 96.390, 2250.0, 47.4342
43.952148701, 96.390, 2000.0, 44.7214
43.978409266, 96.390, 1654.0, 40.6694
44.004669832, 96.390, 1508.0, 38.8330
44.030930397, 96.390, 1506.0, 38.8072
44.057190962, 96.390, 1426.0, 37.7624
44.083451528, 96.390, 1469.0, 38.3275
44.109712093, 96.390, 1436.0, 37.8946
44.135972658, 96.390, 1516.0, 38.9358
44.162233224, 96.390, 1642.0, 40.5216
44.188493789, 96.390, 1893.0, 43.5086
44.214754354, 96.390, 1929.0, 43.9204
44.241014920, 96.390, 1911.0, 43.7150
44.267275485, 96.390, 1971.0, 44.3959
44.293536051, 96.390, 1836.0, 42.8486
44.319796616, 96.390, 1827.0, 42.7434
44.346057181, 96.390, 2026.0, 45.0111
44.372317747, 96.390, 2107.0, 45.9021
44.398578312, 96.390, 2181.0, 46.7012
44.424838877, 96.390, 2214.0, 47.0532
44.451099443, 96.390, 2199.0, 46.8935
44.477360008, 96.390, 1944.0, 44.0908
44.503620573, 96.390, 1729.0, 41.5812
44.529881139, 96.390, 1755.0, 41.8927
44.556141704, 96.390, 1552.0, 39.3954
44.582402269, 96.390, 1406.0, 37.4967
44.608662835, 96.390, 1222.0, 34.9571
44.634923400, 96.390, 1173.0, 34.2491
44.661183966, 96.390, 1127.0, 33.5708
44.687444531, 96.390, 1128.0, 33.5857
44.713705096, 96.390, 1065.0, 32.6343
44.739965662, 96.390, 1093.0, 33.0606
44.766226227, 96.390, 1103.0, 33.2114
44.792486792, 96.390, 1208.0, 34.7563
44.818747358, 96.390, 1234.0, 35.1283
44.845007923, 96.390, 1282.0, 35.8050
44.871268488, 96.390, 1343.0, 36.6470
44.897529054, 96.390, 1417.0, 37.6431
44.923789619, 96.390, 1453.0, 38.1182
44.950050184, 96.390, 1295.0, 35.9861
44.976310750, 96.390, 1275.0, 35.7071
45.002571315, 96.390, 1330.0, 36.4692
45.028831880, 96.390, 1381.0, 37.1618
45.055092446, 96.390, 1328.0, 36.4417
45.081353011, 96.390, 1494.0, 38.6523
45.107613577, 96.390, 1671.0, 40.8779
45.133874142, 96.390, 1927.0, 43.8976
45.160134707, 96.390, 2076.0, 45.5631
45.186395273, 96.390, 2108.0, 45.9130
45.212655838, 96.390, 1746.0, 41.7852
45.238916403, 96.390, 1638.0, 40.4722
45.265176969, 96.390, 1923.0, 43.8520
45.291437534, 96.390, 1998.0, 44.6990
45.317698099, 96.390, 1957.0, 44.2380
45.343958665, 96.390, 2018.0, 44.9222
45.370219230, 96.390, 2219.0, 47.1063
45.396479795, 96.390, 2058.0, 45.3652
45.422740361, 96.390, 1935.0, 43.9886
45.449000926, 96.390, 2024.0, 44.9889
45.475261492, 96.390, 2225.0, 47.1699
45.501522057, 96.390, 2397.0, 48.9592
45.527782622, 96.390, 2492.0, 49.9199
45.554043188, 96.390, 2032.0, 45.0777
45.580303753, 96.390, 1811.0, 42.5558
45.606564318, 96.390, 1761.0, 41.9643
45.632824884, 96.390, 1749.0, 41.8210
45.659085449, 96.390, 1714.0, 41.4005
45.685346014, 96.390, 1526.0, 39.0640
45.711606580, 96.390, 1445.0, 38.0132
45.737867145, 96.390, 1276.0, 35.7211
45.764127710, 96.390, 1281.0, 35.7911
45.790388276, 96.390, 1360.0, 36.8782
45.816648841, 96.390, 1328.0, 36.4417
45.842909406, 96.390, 1436.0, 37.8946
45.869169972, 96.390, 1446.0, 38.0263
45.895430537, 96.390, 1345.0, 36.6742
45.921691103, 96.390, 1342.0, 36.6333
45.947951668, 96.390, 1345.0, 36.6742
45.974212233, 96.390, 1291.0, 35.9305
46.000472799, 96.390, 1408.0, 37.5233
46.026733364, 96.390, 1326.0, 36.4143
46.052993929, 96.390, 1364.0, 36.9324
46.079254495, 96.390, 1287.0, 35.8748
46.105515060, 96.390, 1293.0, 35.9583
46.131775625, 96.390, 1276.0, 35.7211
46.158036191, 96.390, 1396.0, 37.3631
46.184296756, 96.390, 1433.0, 37.8550
46.210557321, 96.390, 1434.0, 37.8682
46.236817887, 96.390, 1514.0, 38.9102
46.263078452, 96.390, 1736.0, 41.6653
46.289339017, 96.390, 1790.0, 42.3084
46.315599583, 96.390, 1857.0, 43.0929
46.341860148, 96.390, 1621.0, 40.2616
46.368120714, 96.390, 1473.0, 38.3797
46.394381279, 96.390, 1510.0, 38.8587
46.420641844, 96.390, 1505.0, 38.7943
46.446902410, 96.390, 1575.0, 39.6863
46.473162975, 96.390, 1416.0, 37.6298
46.499423540, 96.390, 1254.0, 35.4119
46.525684106, 96.390, 1209.0, 34.7707
46.551944671, 96.390, 1184.0, 34.4093
46.578205236, 96.390, 1174.0, 34.2637
46.604465802, 96.390, 1173.0, 34.2491
46.630726367, 96.390, 1090.0, 33.0151
46.656986932, 96.390, 1151.0, 33.9264
46.683247498, 96.390, 1112.0, 33.3467
46.709508063, 96.390, 1121.0, 33.4813
46.735768629, 96.390, 1127.0, 33.5708
46.762029194, 96.390, 1143.0, 33.8083
46.788289759, 96.390, 1122.0, 33.4963
46.814550325, 96.390, 1168.0, 34.1760
46.840810890, 96.390, 1157.0, 34.0147
46.867071455, 96.390, 1168.0, 34.1760
46.893332021, 96.390, 1249.0, 35.3412
46.919592586, 96.390, 1250.0, 35.3553
46.945853151, 96.390, 1368.0, 36.9865
46.972113717, 96.390, 1506.0, 38.8072
46.998374282, 96.390, 1592.0, 39.8999
47.024634847, 96.390, 1742.0, 41.7373
47.050895413, 96.390, 1793.0, 42.3438
47.077155978, 96.390, 1536.0, 39.1918
47.103416543, 96.390, 1499.0, 38.7169
47.129677109, 96.390, 1475.0, 38.4057
47.155937674, 96.390, 1497.0, 38.6911
47.182198240, 96.390, 1501.0, 38.7427
47.208458805, 96.390, 1369.0, 37.0000
47.234719370, 96.390, 1313.0, 36.2353
47.260979936, 96.390, 1419.0, 37.6696
47.287240501, 96.390, 1500.0, 38.7298
47.313501066, 96.390, 1656.0, 40.6940
47.339761632, 96.390, 1830.0, 42.7785
47.366022197, 96.390, 1899.0, 43.5775
47.392282762, 96.390, 1784.0, 42.2374
47.418543328, 96.390, 1633.0, 40.4104
47.444803893, 96.390, 1615.0, 40.1871
47.471064458, 96.390, 1520.0, 38.9872
47.497325024, 96.390, 1555.0, 39.4335
47.523585589, 96.390, 1480.0, 38.4708
47.549846155, 96.390, 1381.0, 37.1618
47.576106720, 96.390, 1322.0, 36.3593
47.602367285, 96.390, 1268.0, 35.6090
47.628627851, 96.390, 1127.0, 33.5708
47.654888416, 96.390, 1169.0, 34.1906
47.681148981, 96.390, 1060.0, 32.5576
47.707409547, 96.390, 1118.0, 33.4365
47.733670112, 96.390, 1057.0, 32.5115
47.759930677, 96.390, 1015.0, 31.8591
47.786191243, 96.390, 1011.0, 31.7962
47.812451808, 96.390, 1045.0, 32.3265
47.838712373, 96.390, 1084.0, 32.9242
47.864972939, 96.390, 1125.0, 33.5410
47.891233504, 96.390, 1114.0, 33.3766
47.917494069, 96.390, 1291.0, 35.9305
47.943754635, 96.390, 1325.0, 36.4005
47.970015200, 96.390, 1373.0, 37.0540
47.996275766, 96.390, 1263.0, 35.5387
48.022536331, 96.390, 1373.0, 37.0540
48.048796896, 96.390, 1336.0, 36.5513
48.075057462, 96.390, 1436.0, 37.8946
48.101318027, 96.390, 1455.0, 38.1445
48.127578592, 96.390, 1547.0, 39.3319
48.153839158, 96.390, 1651.0, 40.6325
48.180099723, 96.390, 1645.0, 40.5586
48.206360288, 96.390, 1484.0, 38.5227
48.232620854, 96.390, 1287.0, 35.8748
48.258881419, 96.390, 1301.0, 36.0694
48.285141984, 96.390, 1391.0, 37.2961
48.311402550, 96.390, 1347.0, 36.7015
48.337663115, 96.390, 1207.0, 34.7419
48.363923681, 96.390, 1083.0, 32.9090
48.390184246, 96.390, 1042.0, 32.2800
48.416444811, 96.390, 1068.0, 32.6803
48.442705377, 96.390, 1215.0, 34.8569
48.468965942, 96.390, 1256.0, 35.4401
48.495226507, 96.390, 1404.0, 37.4700
48.521487073, 96.390, 1558.0, 39.4715
48.547747638, 96.390, 1674.0, 40.9145
48.574008203, 96.390, 1591.0, 39.8873
48.600268769, 96.390, 1381.0, 37.1618
48.626529334, 96.390, 1310.0, 36.1939
48.652789899, 96.390, 1316.0, 36.2767
48.679050465, 96.390, 1272.0, 35.6651
48.705311030, 96.390, 1233.0, 35.1141
48.731571595, 96.390, 1077.0, 32.8177
48.757832161, 96.390, 948.0, 30.7896
48.784092726, 96.390, 901.0, 30.0167
48.810353292, 96.390, 861.0, 29.3428
48.836613857, 96.390, 898.0, 29.9666
48.862874422, 96.390, 909.0, 30.1496
48.889134988, 96.390, 926.0, 30.4302
48.915395553, 96.390, 938.0, 30.6268
48.941656118, 96.390, 902.0, 30.0333
48.967916684, 96.390, 886.0, 29.7658
48.994177249, 96.390, 937.0, 30.6105
49.020437814, 96.390, 902.0, 30.0333
49.046698380, 96.390, 876.0, 29.5973
49.072958945, 96.390, 944.0, 30.7246
49.099219510, 96.390, 1002.0, 31.6544
49.125480076, 96.390, 965.0, 31.0644
49.151740641, 96.390, 970.0, 31.1448
49.178001207, 96.390, 1046.0, 32.3419
49.204261772, 96.390, 987.0, 31.4166
49.230522337, 96.390, 1027.0, 32.0468
49.256782903, 96.390, 1004.0, 31.6860
49.283043468, 96.390, 997.0, 31.5753
49.309304033, 96.390, 1038.0, 32.2180
49.335564599, 96.390, 989.0, 31.4484
49.361825164, 96.390, 908.0, 30.1330
49.388085729, 96.390, 924.0, 30.3974
49.414346295, 96.390, 928.0, 30.4631
49.440606860, 96.390, 933.0, 30.5450
49.466867425, 96.390, 950.0, 30.8221
49.493127991, 96.390, 984.0, 31.3688
49.519388556, 96.390, 936.0, 30.5941
49.545649121, 96.390, 973.0, 31.1929
49.571909687, 96.390, 1001.0, 31.6386
49.598170252, 96.390, 1051.0, 32.4191
49.624430818, 96.390, 1036.0, 32.1870
49.650691383, 96.390, 948.0, 30.7896
49.676951948, 96.390, 997.0, 31.5753
49.703212514, 96.390, 1075.0, 32.7872
49.729473079, 96.390, 1184.0, 34.4093
49.755733644, 96.390, 1204.0, 34.6987
49.781994210, 96.390, 1121.0, 33.4813
49.808254775, 96.390, 1060.0, 32.5576
49.834515340, 96.390, 1070.0, 32.7109
49.860775906, 96.390, 1090.0, 33.0151
49.887036471, 96.390, 1046.0, 32.3419
49.913297036, 96.390, 1020.0, 31.9374
49.939557602, 96.390, 979.0, 31.2890
49.965818167, 96.390, 944.0, 30.7246
49.992078732, 96.390, 932.0, 30.5287
50.018339298, 96.390, 890.0, 29.8329
50.044599863, 96.390, 915.0, 30.2490
50.070860429, 96.390, 914.0, 30.2324
50.097120994, 96.390, 874.0, 29.5635
50.123381559, 96.390, 947.0, 30.7734
50.149642125, 96.390, 926.0, 30.4302
50.175902690, 96.390, 988.0, 31.4325
50.202163255, 96.390, 1201.0, 34.6554
50.228423821, 96.390, 1397.0, 37.3765
50.254684386, 96.390, 1565.0, 39.5601
50.280944951, 96.390, 1736.0, 41.6653
50.307205517, 96.390, 1783.0, 42.2256
50.333466082, 96.390, 1438.0, 37.9210
50.359726647, 96.390, 1351.0, 36.7560
50.385987213, 96.390, 1302.0, 36.0832
50.412247778, 96.390, 1269.0, 35.6230
50.438508344, 96.390, 1291.0, 35.9305
50.464768909, 96.390, 1125.0, 33.5410
50.491029474, 96.390, 1001.0, 31.6386
50.517290040, 96.390, 944.0, 30.7246
50.543550605, 96.390, 870.0, 29.4958
50.569811170, 96.390, 904.0, 30.0666
50.596071736, 96.390, 848.0, 29.1204
50.622332301, 96.390, 869.0, 29.4788
50.648592866, 96.390, 902.0, 30.0333
50.674853432, 96.390, 903.0, 30.0500
50.701113997, 96.390, 864.0, 29.3939
50.727374562, 96.390, 878.0, 29.6311
50.753635128, 96.390, 829.0, 28.7924
50.779895693, 96.390, 847.0, 29.1033
50.806156258, 96.390, 872.0, 29.5296
50.832416824, 96.390, 841.0, 29.0000
50.858677389, 96.390, 814.0, 28.5307
50.884937955, 96.390, 880.0, 29.6648
50.911198520, 96.390, 889.0, 29.8161
50.937459085, 96.390, 868.0, 29.4618
50.963719651, 96.390, 858.0, 29.2916
50.989980216, 96.390, 834.0, 28.8791
51.016240781, 96.390, 867.0, 29.4449
51.042501347, 96.390, 900.0, 30.0000
51.068761912, 96.390, 874.0, 29.5635
51.095022477, 96.390, 892.0, 29.8664
51.121283043, 96.390, 924.0, 30.3974
51.147543608, 96.390, 979.0, 31.2890
51.173804173, 96.390, 1061.0, 32.5730
51.200064739, 96.390, 1219.0, 34.9142
51.226325304, 96.390, 1252.0, 35.3836
51.252585870, 96.390, 1376.0, 37.0945
51.278846435, 96.390, 1277.0, 35.7351
51.305107000, 96.390, 1216.0, 34.8712
51.331367566, 96.390, 1110.0, 33.3167
51.357628131, 96.390, 1172.0, 34.2345
51.383888696, 96.390, 1110.0, 33.3167
51.410149262, 96.390, 1113.0, 33.3617
51.436409827, 96.390, 1095.0, 33.0908
51.462670392, 96.390, 967.0, 31.0966
51.488930958, 96.390, 920.0, 30.3315
51.515191523, 96.390, 920.0, 30.3315
51.541452088, 96.390, 931.0, 30.5123
51.567712654, 96.390, 896.0, 29.9333
51.593973219, 96.390, 956.0, 30.9192
51.620233784, 96.390, 929.0, 30.4795
51.646494350, 96.390, 946.0, 30.7571
51.672754915, 96.390, 852.0, 29.1890
51.699015481, 96.390, 905.0, 30.0832
51.725276046, 96.390, 963.0, 31.0322
51.751536611, 96.390, 945.0, 30.7409
51.777797177, 96.390, 943.0, 30.7083
51.804057742, 96.390, 1054.0, 32.4654
51.830318307, 96.390, 1092.0, 33.0454
51.856578873, 96.390, 1142.0, 33.7935
51.882839438, 96.390, 1091.0, 33.0303
51.909100003, 96.390, 1090.0, 33.0151
51.935360569, 96.390, 1081.0, 32.8786
51.961621134, 96.390, 1188.0, 34.4674
51.987881699, 96.390, 1166.0, 34.1467
52.014142265, 96.390, 1236.0, 35.1568
52.040402830, 96.390, 1208.0, 34.7563
52.066663396, 96.390, 1310.0, 36.1939
52.092923961, 96.390, 1280.0, 35.7771
52.119184526, 96.390, 1387.0, 37.2424
52.145445092, 96.390, 1531.0, 39.1280
52.171705657, 96.390, 1669.0, 40.8534
52.197966222, 96.390, 1834.0, 42.8252
52.224226788, 96.390, 2031.0, 45.0666
52.250487353, 96.390, 2046.0, 45.2327
52.276747918, 96.390, 2080.0, 45.6070
52.303008484, 96.390, 2064.0, 45.4313
52.329269049, 96.390, 2020.0, 44.9444
52.355529614, 96.390, 1988.0, 44.5870
52.381790180, 96.390, 1858.0, 43.1045
52.408050745, 96.390, 1717.0, 41.4367
52.434311310, 96.390, 1789.0, 42.2966
52.460571876, 96.390, 1685.0, 41.0488
52.486832441, 96.390, 1613.0, 40.1622
52.513093007, 96.390, 1576.0, 39.6989
52.539353572, 96.390, 1666.0, 40.8167
52.565614137, 96.390, 1824.0, 42.7083
52.591874703, 96.390, 1994.0, 44.6542
52.618135268, 96.390, 2153.0, 46.4004
52.644395833, 96.390, 2374.0, 48.7237
52.670656399, 96.390, 2363.0, 48.6107
52.696916964, 96.390, 2351.0, 48.4871
52.723177529, 96.390, 2194.0, 46.8402
52.749438095, 96.390, 2150.0, 46.3681
52.775698660, 96.390, 2154.0, 46.4112
52.801959225, 96.390, 2118.0, 46.0217
52.828219791, 96.390, 2017.0, 44.9110
52.854480356, 96.390, 1931.0, 43.9431
52.880740922, 96.390, 1879.0, 43.3474
52.907001487, 96.390, 1808.0, 42.5206
52.933262052, 96.390, 1810.0, 42.5441
52.959522618, 96.390, 1741.0, 41.7253
52.985783183, 96.390, 1813.0, 42.5793
53.012043748, 96.390, 1939.0, 44.0341
53.038304314, 96.390, 1883.0, 43.3935
53.064564879, 96.390, 1979.0, 44.4860
53.090825444, 96.390, 2041.0, 45.1774
53.117086010, 96.390, 2065.0, 45.4423
53.143346575, 96.390, 2117.0, 46.0109
53.169607140, 96.390, 2214.0, 47.0532
53.195867706, 96.390, 2214.0, 47.0532
53.222128271, 96.390, 2202.0, 46.9255
53.248388836, 96.390, 2279.0, 47.7389
53.274649402, 96.390, 2171.0, 46.5940
53.300909967, 96.390, 2014.0, 44.8776
53.327170533, 96.390, 1892.0, 43.4971
53.353431098, 96.390, 1792.0, 42.3320
53.379691663, 96.390, 1670.0, 40.8656
53.405952229, 96.390, 1612.0, 40.1497
53.432212794, 96.390, 1511.0, 38.8716
53.458473359, 96.390, 1402.0, 37.4433
53.484733925, 96.390, 1385.0, 37.2156
53.510994490, 96.390, 1269.0, 35.6230
53.537255055, 96.390, 1225.0, 35.0000
53.563515621, 96.390, 1236.0, 35.1568
53.589776186, 96.390, 1090.0, 33.0151
53.616036751, 96.390, 1114.0, 33.3766
53.642297317, 96.390, 1029.0, 32.0780
53.668557882, 96.390, 1091.0, 33.0303
53.694818448, 96.390, 972.0, 31.1769
53.721079013, 96.390, 1045.0, 32.3265
53.747339578, 96.390, 908.0, 30.1330
53.773600144, 96.390, 967.0, 31.0966
53.799860709, 96.390, 904.0, 30.0666
53.826121274, 96.390, 911.0, 30.1828
53.852381840, 96.390, 885.0, 29.7489
53.878642405, 96.390, 839.0, 28.9655
53.904902970, 96.390, 928.0, 30.4631
53.931163536, 96.390, 880.0, 29.6648
53.957424101, 96.390, 860.0, 29.3258
53.983684666, 96.390, 935.0, 30.5778
54.009945232, 96.390, 911.0, 30.1828
54.036205797, 96.390, 960.0, 30.9839
54.062466362, 96.390, 967.0, 31.0966
54.088726928, 96.390, 1019.0, 31.9218
54.114987493, 96.390, 1150.0, 33.9116
54.141248059, 96.390, 1227.0, 35.0286
54.167508624, 96.390, 1379.0, 37.1349
54.193769189, 96.390, 1550.0, 39.3700
54.220029755, 96.390, 1574.0, 39.6737
54.246290320, 96.390, 1548.0, 39.3446
54.272550885, 96.390, 1590.0, 39.8748
54.298811451, 96.390, 1655.0, 40.6817
54.325072016, 96.390, 1790.0, 42.3084
54.351332581, 96.390, 1900.0, 43.5890
54.377593147, 96.390, 1847.0, 42.9767
54.403853712, 96.390, 1585.0, 39.8121
54.430114277, 96.390, 1472.0, 38.3667
54.456374843, 96.390, 1429.0, 37.8021
54.482635408, 96.390, 1356.0, 36.8239
54.508895973, 96.390, 1200.0, 34.6410
54.535156539, 96.390, 1253.0, 35.3977
54.561417104, 96.390, 1079.0, 32.8481
54.587677670, 96.390, 1075.0, 32.7872
54.613938235, 96.390, 978.0, 31.2730
54.640198800, 96.390, 862.0, 29.3598
54.666459366, 96.390, 852.0, 29.1890
54.692719931, 96.390, 803.0, 28.3373
54.718980496, 96.390, 876.0, 29.5973
54.745241062, 96.390, 857.0, 29.2746
54.771501627, 96.390, 890.0, 29.8329
54.797762192, 96.390, 855.0, 29.2404
54.824022758, 96.390, 852.0, 29.1890
54.850283323, 96.390, 872.0, 29.5296
54.876543888, 96.390, 809.0, 28.4429
54.902804454, 96.390, 850.0, 29.1548
54.929065019, 96.390, 849.0, 29.1376
54.955325585, 96.390, 823.0, 28.6880
54.981586150, 96.390, 854.0, 29.2233
55.007846715, 96.390, 776.0, 27.8568
55.034107281, 96.390, 803.0, 28.3373
55.060367846, 96.390, 793.0, 28.1603
55.086628411, 96.390, 820.0, 28.6356
55.112888977, 96.390, 724.0, 26.9072
55.139149542, 96.390, 677.0, 26.0192
55.165410107, 96.390, 709.0, 26.6271
55.191670673, 96.390, 714.0, 26.7208
55.217931238, 96.390, 687.0, 26.2107
55.244191803, 96.390, 733.0, 27.0740
55.270452369, 96.390, 705.0, 26.5518
55.296712934, 96.390, 736.0, 27.1293
55.322973499, 96.390, 726.0, 26.9444
55.349234065, 96.390, 719.0, 26.8142
55.375494630, 96.390, 785.0, 28.0179
55.401755196, 96.390, 718.0, 26.7955
55.428015761, 96.390, 778.0, 27.8927
55.454276326, 96.390, 795.0, 28.1957
55.480536892, 96.390, 760.0, 27.5681
55.506797457, 96.390, 779.0, 27.9106
55.533058022, 96.390, 843.0, 29.0345
55.559318588, 96.390, 943.0, 30.7083
55.585579153, 96.390, 970.0, 31.1448
55.611839718, 96.390, 1030.0, 32.0936
55.638100284, 96.390, 1038.0, 32.2180
55.664360849, 96.390, 1014.0, 31.8434
55.690621414, 96.390, 896.0, 29.9333
55.716881980, 96.390, 903.0, 30.0500
55.743142545, 96.390, 948.0, 30.7896
55.769403111, 96.390, 998.0, 31.5911
55.795663676, 96.390, 1049.0, 32.3883
55.821924241, 96.390, 990.0, 31.4643
55.848184807, 96.390, 924.0, 30.3974
55.874445372, 96.390, 867.0, 29.4449
55.900705937, 96.390, 860.0, 29.3258
55.926966503, 96.390, 806.0, 28.3901
55.953227068, 96.390, 894.0, 29.8998
55.979487633, 96.390, 885.0, 29.7489
56.005748199, 96.390, 879.0, 29.6479
56.032008764, 96.390, 860.0, 29.3258
56.058269329, 96.390, 831.0, 28.8271
56.084529895, 96.390, 806.0, 28.3901
56.110790460, 96.390, 919.0, 30.3150
56.137051025, 96.390, 814.0, 28.5307
56.163311591, 96.390, 834.0, 28.8791
56.189572156, 96.390, 790.0, 28.1069
56.215832722, 96.390, 766.0, 27.6767
56.242093287, 96.390, 754.0, 27.4591
56.268353852, 96.390, 739.0, 27.1846
56.294614418, 96.390, 753.0, 27.4408
56.320874983, 96.390, 737.0, 27.1477
56.347135548, 96.390, 724.0, 26.9072
56.373396114, 96.390, 771.0, 27.7669
56.399656679, 96.390, 786.0, 28.0357
56.425917244, 96.390, 854.0, 29.2233
56.452177810, 96.390, 875.0, 29.5804
56.478438375, 96.390, 901.0, 30.0167
56.504698940, 96.390, 959.0, 30.9677
56.530959506, 96.390, 1050.0, 32.4037
56.557220071, 96.390, 1007.0, 31.7333
56.583480637, 96.390, 948.0, 30.7896
56.609741202, 96.390, 906.0, 30.0998
56.636001767, 96.390, 927.0, 30.4467
56.662262333, 96.390, 888.0, 29.7993
56.688522898, 96.390, 857.0, 29.2746
56.714783463, 96.390, 859.0, 29.3087
56.741044029, 96.390, 814.0, 28.5307
56.767304594, 96.390, 772.0, 27.7849
56.793565159, 96.390, 765.0, 27.6586
56.819825725, 96.390, 767.0, 27.6948
56.846086290, 96.390, 791.0, 28.1247
56.872346855, 96.390, 761.0, 27.5862
56.898607421, 96.390, 764.0, 27.6405
56.924867986, 96.390, 833.0, 28.8617
56.951128551, 96.390, 837.0, 28.9310
56.977389117, 96.390, 848.0, 29.1204
57.003649682, 96.390, 803.0, 28.3373
57.029910248, 96.390, 840.0, 28.9828
57.056170813, 96.390, 795.0, 28.1957
57.082431378, 96.390, 803.0, 28.3373
57.108691944, 96.390, 805.0, 28.3725
57.134952509, 96.390, 862.0, 29.3598
57.161213074, 96.390, 773.0, 27.8029
57.187473640, 96.390, 849.0, 29.1376
57.213734205, 96.390, 844.0, 29.0517
57.239994770, 96.390, 778.0, 27.8927
57.266255336, 96.390, 830.0, 28.8097
57.292515901, 96.390, 817.0, 28.5832
57.318776466, 96.390, 846.0, 29.0861
57.345037032, 96.390, 901.0, 30.0167
57.371297597, 96.390, 915.0, 30.2490
57.397558163, 96.390, 919.0, 30.3150
57.423818728, 96.390, 955.0, 30.9031
57.450079293, 96.390, 983.0, 31.3528
57.476339859, 96.390, 1034.0, 32.1559
57.502600424, 96.390, 1087.0, 32.9697
57.528860989, 96.390, 1174.0, 34.2637
57.555121555, 96.390, 1220.0, 34.9285
57.581382120, 96.390, 1285.0, 35.8469
57.607642685, 96.390, 1321.0, 36.3456
57.633903251, 96.390, 1286.0, 35.8608
57.660163816, 96.390, 1196.0, 34.5832
57.686424381, 96.390, 1188.0, 34.4674
57.712684947, 96.390, 1087.0, 32.9697
57.738945512, 96.390, 1054.0, 32.4654
57.765206077, 96.390, 1066.0, 32.6497
57.791466643, 96.390, 963.0, 31.0322
57.817727208, 96.390, 960.0, 30.9839
57.843987774, 96.390, 870.0, 29.4958
57.870248339, 96.390, 836.0, 28.9137
57.896508904, 96.390, 846.0, 29.0861
57.922769470, 96.390, 809.0, 28.4429
57.949030035, 96.390, 813.0, 28.5132
57.975290600, 96.390, 884.0, 29.7321
58.001551166, 96.390, 939.0, 30.6431
58.027811731, 96.390, 1062.0, 32.5883
58.054072296, 96.390, 1199.0, 34.6266
58.080332862, 96.390, 1406.0, 37.4967
58.106593427, 96.390, 1407.0, 37.5100
58.132853992, 96.390, 1344.0, 36.6606
58.159114558, 96.390, 1131.0, 33.6303
58.185375123, 96.390, 1049.0, 32.3883
58.211635689, 96.390, 1054.0, 32.4654
58.237896254, 96.390, 1060.0, 32.5576
58.264156819, 96.390, 1043.0, 32.2955
58.290417385, 96.390, 993.0, 31.5119
58.316677950, 96.390, 916.0, 30.2655
58.342938515, 96.390, 823.0, 28.6880
58.369199081, 96.390, 751.0, 27.4044
58.395459646, 96.390, 782.0, 27.9643
58.421720211, 96.390, 781.0, 27.9464
58.447980777, 96.390, 787.0, 28.0535
58.474241342, 96.390, 812.0, 28.4956
58.500501907, 96.390, 813.0, 28.5132
58.526762473, 96.390, 862.0, 29.3598
58.553023038, 96.390, 958.0, 30.9516
58.579283603, 96.390, 1103.0, 33.2114
58.605544169, 96.390, 1221.0, 34.9428
58.631804734, 96.390, 1389.0, 37.2693
58.658065300, 96.390, 1326.0, 36.4143
58.684325865, 96.390, 1232.0, 35.0999
58.710586430, 96.390, 1216.0, 34.8712
58.736846996, 96.390, 1149.0, 33.8969
58.763107561, 96.390, 1113.0, 33.3617
58.789368126, 96.390, 1149.0, 33.8969
58.815628692, 96.390, 1172.0, 34.2345
58.841889257, 96.390, 1058.0, 32.5269
58.868149822, 96.390, 1040.0, 32.2490
58.894410388, 96.390, 904.0, 30.0666
58.920670953, 96.390, 867.0, 29.4449
58.946931518, 96.390, 871.0, 29.5127
58.973192084, 96.390, 871.0, 29.5127
58.999452649, 96.390, 830.0, 28.8097
59.025713214, 96.390, 860.0, 29.3258
59.051973780, 96.390, 770.0, 27.7489
59.078234345, 96.390, 767.0, 27.6948
59.104494911, 96.390, 852.0, 29.1890
59.130755476, 96.390, 877.0, 29.6142
59.157016041, 96.390, 882.0, 29.6985
59.183276607, 96.390, 907.0, 30.1164
59.209537172, 96.390, 886.0, 29.7658
59.235797737, 96.390, 1032.0, 32.1248
59.262058303, 96.390, 1018.0, 31.9061
59.288318868, 96.390, 1058.0, 32.5269
59.314579433, 96.390, 1144.0, 33.8231
59.340839999, 96.390, 982.0, 31.3369
59.367100564, 96.390, 951.0, 30.8383
59.393361129, 96.390, 908.0, 30.1330
59.419621695, 96.390, 938.0, 30.6268
59.445882260, 96.390, 949.0, 30.8058
59.472142826, 96.390, 888.0, 29.7993
59.498403391, 96.390, 930.0, 30.4959
59.524663956, 96.390, 875.0, 29.5804
59.550924522, 96.390, 906.0, 30.0998
59.577185087, 96.390, 914.0, 30.2324
59.603445652, 96.390, 912.0, 30.1993
59.629706218, 96.390, 840.0, 28.9828
59.655966783, 96.390, 777.0, 27.8747
59.682227348, 96.390, 850.0, 29.1548
59.708487914, 96.390, 859.0, 29.3087
59.734748479, 96.390, 807.0, 28.4077
59.761009044, 96.390, 819.0, 28.6182
59.787269610, 96.390, 886.0, 29.7658
59.813530175, 96.390, 890.0, 29.8329
59.839790740, 96.390, 910.0, 30.1662
59.866051306, 96.390, 919.0, 30.3150
59.892311871, 96.390, 926.0, 30.4302
59.918572437, 96.390, 890.0, 29.8329
59.944833002, 96.390, 915.0, 30.2490
59.971093567, 96.390, 922.0, 30.3645
59.997354133, 96.390, 987.0, 31.4166
60.023614698, 96.390, 996.0, 31.5595
60.049875263, 96.390, 910.0, 30.1662
60.076135829, 96.390, 924.0, 30.3974
60.102396394, 96.390, 931.0, 30.5123
60.128656959, 96.390, 1001.0, 31.6386
60.154917525, 96.390, 1023.0, 31.9844
60.181178090, 96.390, 1043.0, 32.2955
60.207438655, 96.390, 1009.0, 31.7648
60.233699221, 96.390, 1060.0, 32.5576
60.259959786, 96.390, 1026.0, 32.0312
60.286220352, 96.390, 984.0, 31.3688
60.312480917, 96.390, 1019.0, 31.9218
60.338741482, 96.390, 937.0, 30.6105
60.365002048, 96.390, 854.0, 29.2233
60.391262613, 96.390, 893.0, 29.8831
60.417523178, 96.390, 921.0, 30.3480
60.443783744, 96.390, 897.0, 29.9500
60.470044309, 96.390, 859.0, 29.3087
60.496304874, 96.390, 881.0, 29.6816
60.522565440, 96.390, 878.0, 29.6311
60.548826005, 96.390, 847.0, 29.1033
60.575086570, 96.390, 907.0, 30.1164
60.601347136, 96.390, 829.0, 28.7924
60.627607701, 96.390, 886.0, 29.7658
60.653868266, 96.390, 1033.0, 32.1403
60.680128832, 96.390, 1069.0, 32.6956
60.706389397, 96.390, 1173.0, 34.2491
60.732649963, 96.390, 1268.0, 35.6090
60.758910528, 96.390, 1302.0, 36.0832
60.785171093, 96.390, 1356.0, 36.8239
60.811431659, 96.390, 1374.0, 37.0675
60.837692224, 96.390, 1377.0, 37.1080
60.863952789, 96.390, 1430.0, 37.8153
60.890213355, 96.390, 1477.0, 38.4318
60.916473920, 96.390, 1494.0, 38.6523
60.942734485, 96.390, 1490.0, 38.6005
60.968995051, 96.390, 1290.0, 35.9166
60.995255616, 96.390, 1274.0, 35.6931
61.021516181, 96.390, 1218.0, 34.8999
61.047776747, 96.390, 1186.0, 34.4384
61.074037312, 96.390, 1116.0, 33.4066
61.100297878, 96.390, 1044.0, 32.3110
61.126558443, 96.390, 1026.0, 32.0312
61.152819008, 96.390, 969.0, 31.1288
61.179079574, 96.390, 991.0, 31.4802
61.205340139, 96.390, 971.0, 31.1609
61.231600704, 96.390, 991.0, 31.4802
61.257861270, 96.390, 969.0, 31.1288
61.284121835, 96.390, 899.0, 29.9833
61.310382400, 96.390, 916.0, 30.2655
61.336642966, 96.390, 917.0, 30.2820
61.362903531, 96.390, 907.0, 30.1164
61.389164096, 96.390, 923.0, 30.3809
61.415424662, 96.390, 923.0, 30.3809
61.441685227, 96.390, 934.0, 30.5614
61.467945792, 96.390, 1044.0, 32.3110
61.494206358, 96.390, 1024.0, 32.0000
61.520466923, 96.390, 1145.0, 33.8378
61.546727489, 96.390, 1145.0, 33.8378
61.572988054, 96.390, 998.0, 31.5911
61.599248619, 96.390, 939.0, 30.6431
61.625509185, 96.390, 899.0, 29.9833
61.651769750, 96.390, 899.0, 29.9833
61.678030315, 96.390, 901.0, 30.0167
61.704290881, 96.390, 950.0, 30.8221
61.730551446, 96.390, 950.0, 30.8221
61.756812011, 96.390, 974.0, 31.2090
61.783072577, 96.390, 903.0, 30.0500
61.809333142, 96.390, 920.0, 30.3315
61.835593707, 96.390, 904.0, 30.0666
61.861854273, 96.390, 864.0, 29.3939
61.888114838, 96.390, 875.0, 29.5804
61.914375404, 96.390, 981.0, 31.3209
61.940635969, 96.390, 976.0, 31.2410
61.966896534, 96.390, 986.0, 31.4006
61.993157100, 96.390, 1038.0, 32.2180
62.019417665, 96.390, 1026.0, 32.0312
62.045678230, 96.390, 1010.0, 31.7805
62.071938796, 96.390, 1066.0, 32.6497
62.098199361, 96.390, 1045.0, 32.3265
62.124459926, 96.390, 1078.0, 32.8329
62.150720492, 96.390, 1160.0, 34.0588
62.176981057, 96.390, 1197.0, 34.5977
62.203241622, 96.390, 1184.0, 34.4093
62.229502188, 96.390, 1241.0, 35.2278
62.255762753, 96.390, 1226.0, 35.0143
62.282023318, 96.390, 1231.0, 35.0856
62.308283884, 96.390, 1263.0, 35.5387
62.334544449, 96.390, 1213.0, 34.8281
62.360805015, 96.390, 1127.0, 33.5708
62.387065580, 96.390, 1119.0, 33.4515
62.413326145, 96.390, 1086.0, 32.9545
62.439586711, 96.390, 1043.0, 32.2955
62.465847276, 96.390, 1036.0, 32.1870
62.492107841, 96.390, 1059.0, 32.5423
62.518368407, 96.390, 983.0, 31.3528
62.544628972, 96.390, 903.0, 30.0500
62.570889537, 96.390, 914.0, 30.2324
62.597150103, 96.390, 910.0, 30.1662
62.623410668, 96.390, 975.0, 31.2250
62.649671233, 96.390, 962.0, 31.0161
62.675931799, 96.390, 1048.0, 32.3728
62.702192364, 96.390, 1162.0, 34.0881
62.728452930, 96.390, 1283.0, 35.8190
62.754713495, 96.390, 1236.0, 35.1568
62.780974060, 96.390, 1107.0, 33.2716
62.807234626, 96.390, 1053.0, 32.4500
62.833495191, 96.390, 1101.0, 33.1813
62.859755756, 96.390, 977.0, 31.2570
62.886016322, 96.390, 1028.0, 32.0624
62.912276887, 96.390, 1004.0, 31.6860
62.938537452, 96.390, 898.0, 29.9666
62.964798018, 96.390, 836.0, 28.9137
62.991058583, 96.390, 827.0, 28.7576
63.017319148, 96.390, 714.0, 26.7208
63.043579714, 96.390, 686.0, 26.1916
63.069840279, 96.390, 713.0, 26.7021
63.096100844, 96.390, 639.0, 25.2784
63.122361410, 96.390, 677.0, 26.0192
63.148621975, 96.390, 670.0, 25.8844
63.174882541, 96.390, 653.0, 25.5539
63.201143106, 96.390, 704.0, 26.5330
63.227403671, 96.390, 663.0, 25.7488
63.253664237, 96.390, 703.0, 26.5141
63.279924802, 96.390, 721.0, 26.8514
63.306185367, 96.390, 727.0, 26.9629
63.332445933, 96.390, 794.0, 28.1780
63.358706498, 96.390, 729.0, 27.0000
63.384967063, 96.390, 706.0, 26.5707
63.411227629, 96.390, 730.0, 27.0185
63.437488194, 96.390, 785.0, 28.0179
63.463748759, 96.390, 774.0, 27.8209
63.490009325, 96.390, 751.0, 27.4044
63.516269890, 96.390, 718.0, 26.7955
63.542530455, 96.390, 815.0, 28.5482
63.568791021, 96.390, 800.0, 28.2843
63.595051586, 96.390, 771.0, 27.7669
63.621312152, 96.390, 885.0, 29.7489
63.647572717, 96.390, 912.0, 30.1993
63.673833282, 96.390, 1029.0, 32.0780
63.700093848, 96.390, 1104.0, 33.2265
63.726354413, 96.390, 1193.0, 34.5398
63.752614978, 96.390, 1353.0, 36.7831
63.778875544, 96.390, 1422.0, 37.7094
63.805136109, 96.390, 1540.0, 39.2428
63.831396674, 96.390, 1643.0, 40.5339
63.857657240, 96.390, 1584.0, 39.7995
63.883917805, 96.390, 1545.0, 39.3065
63.910178370, 96.390, 1380.0, 37.1484
63.936438936, 96.390, 1322.0, 36.3593
63.962699501, 96.390, 1268.0, 35.6090
63.988960067, 96.390, 1327.0, 36.4280
64.015220632, 96.390, 1273.0, 35.6791
64.041481197, 96.390, 1231.0, 35.0856
64.067741763, 96.390, 1228.0, 35.0428
64.094002328, 96.390, 1073.0, 32.7567
64.120262893, 96.390, 1050.0, 32.4037
64.146523459, 96.390, 1048.0, 32.3728
64.172784024, 96.390, 1007.0, 31.7333
64.199044589, 96.390, 1056.0, 32.4962
64.225305155, 96.390, 1074.0, 32.7719
64.251565720, 96.390, 1290.0, 35.9166
64.277826285, 96.390, 1243.0, 35.2562
64.304086851, 96.390, 1258.0, 35.4683
64.330347416, 96.390, 1274.0, 35.6931
64.356607981, 96.390, 1152.0, 33.9411
64.382868547, 96.390, 1181.0, 34.3657
64.409129112, 96.390, 1131.0, 33.6303
64.435389678, 96.390, 1207.0, 34.7419
64.461650243, 96.390, 1100.0, 33.1662
64.487910808, 96.390, 1118.0, 33.4365
64.514171374, 96.390, 1017.0, 31.8904
64.540431939, 96.390, 947.0, 30.7734
64.566692504, 96.390, 949.0, 30.8058
64.592953070, 96.390, 922.0, 30.3645
64.619213635, 96.390, 857.0, 29.2746
64.645474200, 96.390, 885.0, 29.7489
64.671734766, 96.390, 836.0, 28.9137
64.697995331, 96.390, 850.0, 29.1548
64.724255896, 96.390, 768.0, 27.7128
64.750516462, 96.390, 791.0, 28.1247
64.776777027, 96.390, 805.0, 28.3725
64.803037593, 96.390, 812.0, 28.4956
64.829298158, 96.390, 777.0, 27.8747
64.855558723, 96.390, 742.0, 27.2397
64.881819289, 96.390, 713.0, 26.7021
64.908079854, 96.390, 711.0, 26.6646
64.934340419, 96.390, 729.0, 27.0000
64.960600985, 96.390, 718.0, 26.7955
64.986861550, 96.390, 700.0, 26.4575
