[Measurement conditions]
Sample identification,XRD_P04Free14Apr22_Act03May22_B1_0065M_TSP_LS0111_1
Comment - 1,"Configuration=Stage for Flat Samples/Holders, Owner=User-1, Creation date=7/1/2020 9:53:24 AM"
Comment - 2,"Goniometer=Theta/Theta; Minimum step size 2Theta:0.0001; Minimum step size Omega:0.0001"
Comment - 3,"Sample stage=Stage for flat samples/holders"
Comment - 4,"Diffractometer system=EMPYREAN"
Comment - 5,"Measurement program=C:\Users\ibo5034\OneDrive - The Pennsylvania State University\NEUP\Zerobackground scan.xrdmp, Identifier={98A3B11C-88F9-4AA6-982C-73314A311EF5}"
Anode material,Cu
K-Alpha1 wavelength,1.5405980
K-Alpha2 wavelength,1.5444260
Ratio K-Alpha2/K-Alpha1,0.500
Divergence slit,Fixed,0.25
Monochromator used,NO
Generator voltage, 45
Tube current, 40
File date and time,03/Jun/2022 16:32
Unit cell,
h k l, 0 0 0
Scan axis,Gonio
Scan range,4.994599997,64.999991833
Scan step size,0.0262606
No. of points, 2285
Scan type,CONTINUOUS
Time per step,96.390
[Scan points]
Angle, TimePerStep, Intensity, ESD
5.007730280, 96.390, 5609.0, 74.8933
5.033990845, 96.390, 5385.0, 73.3826
5.060251411, 96.390, 5465.0, 73.9256
5.086511976, 96.390, 5544.0, 74.4580
5.112772541, 96.390, 5520.0, 74.2967
5.139033107, 96.390, 5516.0, 74.2698
5.165293672, 96.390, 5385.0, 73.3826
5.191554237, 96.390, 5339.0, 73.0685
5.217814803, 96.390, 5204.0, 72.1388
5.244075368, 96.390, 5398.0, 73.4711
5.270335934, 96.390, 5161.0, 71.8401
5.296596499, 96.390, 5154.0, 71.7914
5.322857064, 96.390, 5152.0, 71.7774
5.349117630, 96.390, 5294.0, 72.7599
5.375378195, 96.390, 5192.0, 72.0555
5.401638760, 96.390, 5175.0, 71.9375
5.427899326, 96.390, 5029.0, 70.9154
5.454159891, 96.390, 5052.0, 71.0774
5.480420456, 96.390, 5137.0, 71.6729
5.506681022, 96.390, 5036.0, 70.9648
5.532941587, 96.390, 5020.0, 70.8520
5.559202152, 96.390, 4990.0, 70.6399
5.585462718, 96.390, 5006.0, 70.7531
5.611723283, 96.390, 5010.0, 70.7814
5.637983849, 96.390, 4952.0, 70.3704
5.664244414, 96.390, 4816.0, 69.3974
5.690504979, 96.390, 4794.0, 69.2387
5.716765545, 96.390, 4835.0, 69.5342
5.743026110, 96.390, 4731.0, 68.7823
5.769286675, 96.390, 4813.0, 69.3758
5.795547241, 96.390, 4822.0, 69.4406
5.821807806, 96.390, 4762.0, 69.0072
5.848068371, 96.390, 4782.0, 69.1520
5.874328937, 96.390, 4729.0, 68.7677
5.900589502, 96.390, 4871.0, 69.7925
5.926850067, 96.390, 4546.0, 67.4240
5.953110633, 96.390, 4675.0, 68.3740
5.979371198, 96.390, 4636.0, 68.0882
6.005631763, 96.390, 4742.0, 68.8622
6.031892329, 96.390, 4764.0, 69.0217
6.058152894, 96.390, 4790.0, 69.2098
6.084413460, 96.390, 4643.0, 68.1396
6.110674025, 96.390, 4635.0, 68.0808
6.136934590, 96.390, 4590.0, 67.7495
6.163195156, 96.390, 4501.0, 67.0895
6.189455721, 96.390, 4484.0, 66.9627
6.215716286, 96.390, 4525.0, 67.2681
6.241976852, 96.390, 4553.0, 67.4759
6.268237417, 96.390, 4554.0, 67.4833
6.294497982, 96.390, 4642.0, 68.1322
6.320758548, 96.390, 4514.0, 67.1863
6.347019113, 96.390, 4588.0, 67.7348
6.373279678, 96.390, 4515.0, 67.1937
6.399540244, 96.390, 4466.0, 66.8281
6.425800809, 96.390, 4434.0, 66.5883
6.452061375, 96.390, 4565.0, 67.5648
6.478321940, 96.390, 4500.0, 67.0820
6.504582505, 96.390, 4508.0, 67.1416
6.530843071, 96.390, 4386.0, 66.2269
6.557103636, 96.390, 4507.0, 67.1342
6.583364201, 96.390, 4338.0, 65.8635
6.609624767, 96.390, 4407.0, 66.3852
6.635885332, 96.390, 4162.0, 64.5136
6.662145897, 96.390, 4280.0, 65.4217
6.688406463, 96.390, 4244.0, 65.1460
6.714667028, 96.390, 4344.0, 65.9090
6.740927593, 96.390, 4383.0, 66.2042
6.767188159, 96.390, 4343.0, 65.9014
6.793448724, 96.390, 4288.0, 65.4828
6.819709289, 96.390, 4406.0, 66.3777
6.845969855, 96.390, 4273.0, 65.3682
6.872230420, 96.390, 4191.0, 64.7379
6.898490986, 96.390, 4292.0, 65.5134
6.924751551, 96.390, 4201.0, 64.8151
6.951012116, 96.390, 4188.0, 64.7148
6.977272682, 96.390, 4183.0, 64.6761
7.003533247, 96.390, 4234.0, 65.0692
7.029793812, 96.390, 4278.0, 65.4064
7.056054378, 96.390, 4230.0, 65.0385
7.082314943, 96.390, 4124.0, 64.2184
7.108575508, 96.390, 4202.0, 64.8228
7.134836074, 96.390, 4216.0, 64.9307
7.161096639, 96.390, 4230.0, 65.0385
7.187357204, 96.390, 4243.0, 65.1383
7.213617770, 96.390, 4264.0, 65.2993
7.239878335, 96.390, 4242.0, 65.1306
7.266138900, 96.390, 4208.0, 64.8691
7.292399466, 96.390, 4010.0, 63.3246
7.318660031, 96.390, 4129.0, 64.2573
7.344920597, 96.390, 3969.0, 63.0000
7.371181162, 96.390, 4089.0, 63.9453
7.397441727, 96.390, 4176.0, 64.6220
7.423702293, 96.390, 4142.0, 64.3584
7.449962858, 96.390, 4084.0, 63.9062
7.476223423, 96.390, 4034.0, 63.5138
7.502483989, 96.390, 4083.0, 63.8984
7.528744554, 96.390, 4108.0, 64.0937
7.555005119, 96.390, 3997.0, 63.2218
7.581265685, 96.390, 4003.0, 63.2693
7.607526250, 96.390, 4064.0, 63.7495
7.633786815, 96.390, 4009.0, 63.3167
7.660047381, 96.390, 4034.0, 63.5138
7.686307946, 96.390, 4030.0, 63.4823
7.712568512, 96.390, 4021.0, 63.4114
7.738829077, 96.390, 3949.0, 62.8411
7.765089642, 96.390, 4029.0, 63.4744
7.791350208, 96.390, 3961.0, 62.9365
7.817610773, 96.390, 4044.0, 63.5925
7.843871338, 96.390, 4001.0, 63.2535
7.870131904, 96.390, 3946.0, 62.8172
7.896392469, 96.390, 3853.0, 62.0725
7.922653034, 96.390, 3918.0, 62.5939
7.948913600, 96.390, 3911.0, 62.5380
7.975174165, 96.390, 4088.0, 63.9375
8.001434730, 96.390, 4015.0, 63.3640
8.027695296, 96.390, 4063.0, 63.7417
8.053955861, 96.390, 4021.0, 63.4114
8.080216426, 96.390, 3840.0, 61.9677
8.106476992, 96.390, 3957.0, 62.9047
8.132737557, 96.390, 3953.0, 62.8729
8.158998123, 96.390, 3878.0, 62.2736
8.185258688, 96.390, 3847.0, 62.0242
8.211519253, 96.390, 3760.0, 61.3188
8.237779819, 96.390, 4004.0, 63.2772
8.264040384, 96.390, 3883.0, 62.3137
8.290300949, 96.390, 3914.0, 62.5620
8.316561515, 96.390, 3911.0, 62.5380
8.342822080, 96.390, 3923.0, 62.6339
8.369082645, 96.390, 3880.0, 62.2896
8.395343211, 96.390, 3945.0, 62.8092
8.421603776, 96.390, 3941.0, 62.7774
8.447864341, 96.390, 3895.0, 62.4099
8.474124907, 96.390, 3883.0, 62.3137
8.500385472, 96.390, 3925.0, 62.6498
8.526646038, 96.390, 3911.0, 62.5380
8.552906603, 96.390, 3982.0, 63.1031
8.579167168, 96.390, 3937.0, 62.7455
8.605427734, 96.390, 3894.0, 62.4019
8.631688299, 96.390, 3708.0, 60.8933
8.657948864, 96.390, 3774.0, 61.4329
8.684209430, 96.390, 3913.0, 62.5540
8.710469995, 96.390, 3920.0, 62.6099
8.736730560, 96.390, 3713.0, 60.9344
8.762991126, 96.390, 3812.0, 61.7414
8.789251691, 96.390, 3838.0, 61.9516
8.815512256, 96.390, 3807.0, 61.7009
8.841772822, 96.390, 3875.0, 62.2495
8.868033387, 96.390, 3867.0, 62.1852
8.894293952, 96.390, 3792.0, 61.5792
8.920554518, 96.390, 3815.0, 61.7657
8.946815083, 96.390, 3772.0, 61.4166
8.973075649, 96.390, 3845.0, 62.0081
8.999336214, 96.390, 3761.0, 61.3270
9.025596779, 96.390, 3830.0, 61.8870
9.051857345, 96.390, 3704.0, 60.8605
9.078117910, 96.390, 3754.0, 61.2699
9.104378475, 96.390, 3770.0, 61.4003
9.130639041, 96.390, 3777.0, 61.4573
9.156899606, 96.390, 3807.0, 61.7009
9.183160171, 96.390, 3727.0, 61.0492
9.209420737, 96.390, 3784.0, 61.5142
9.235681302, 96.390, 3760.0, 61.3188
9.261941867, 96.390, 3713.0, 60.9344
9.288202433, 96.390, 3750.0, 61.2372
9.314462998, 96.390, 3762.0, 61.3351
9.340723564, 96.390, 3704.0, 60.8605
9.366984129, 96.390, 3762.0, 61.3351
9.393244694, 96.390, 3662.0, 60.5145
9.419505260, 96.390, 3647.0, 60.3904
9.445765825, 96.390, 3714.0, 60.9426
9.472026390, 96.390, 3793.0, 61.5873
9.498286956, 96.390, 3728.0, 61.0574
9.524547521, 96.390, 3731.0, 61.0819
9.550808086, 96.390, 3683.0, 60.6877
9.577068652, 96.390, 3662.0, 60.5145
9.603329217, 96.390, 3727.0, 61.0492
9.629589782, 96.390, 3639.0, 60.3241
9.655850348, 96.390, 3788.0, 61.5467
9.682110913, 96.390, 3744.0, 61.1882
9.708371478, 96.390, 3709.0, 60.9016
9.734632044, 96.390, 3857.0, 62.1048
9.760892609, 96.390, 3715.0, 60.9508
9.787153175, 96.390, 3706.0, 60.8769
9.813413740, 96.390, 3704.0, 60.8605
9.839674305, 96.390, 3671.0, 60.5888
9.865934871, 96.390, 3569.0, 59.7411
9.892195436, 96.390, 3752.0, 61.2536
9.918456001, 96.390, 3605.0, 60.0417
9.944716567, 96.390, 3612.0, 60.0999
9.970977132, 96.390, 3720.0, 60.9918
9.997237697, 96.390, 3752.0, 61.2536
10.023498263, 96.390, 3735.0, 61.1146
10.049758828, 96.390, 3684.0, 60.6960
10.076019393, 96.390, 3714.0, 60.9426
10.102279959, 96.390, 3730.0, 61.0737
10.128540524, 96.390, 3789.0, 61.5549
10.154801090, 96.390, 3637.0, 60.3075
10.181061655, 96.390, 3684.0, 60.6960
10.207322220, 96.390, 3792.0, 61.5792
10.233582786, 96.390, 3644.0, 60.3656
10.259843351, 96.390, 3658.0, 60.4814
10.286103916, 96.390, 3658.0, 60.4814
10.312364482, 96.390, 3733.0, 61.0983
10.338625047, 96.390, 3698.0, 60.8112
10.364885612, 96.390, 3704.0, 60.8605
10.391146178, 96.390, 3767.0, 61.3759
10.417406743, 96.390, 3711.0, 60.9180
10.443667308, 96.390, 3715.0, 60.9508
10.469927874, 96.390, 3845.0, 62.0081
10.496188439, 96.390, 3745.0, 61.1964
10.522449004, 96.390, 3756.0, 61.2862
10.548709570, 96.390, 3645.0, 60.3738
10.574970135, 96.390, 3694.0, 60.7783
10.601230701, 96.390, 3772.0, 61.4166
10.627491266, 96.390, 3618.0, 60.1498
10.653751831, 96.390, 3687.0, 60.7207
10.680012397, 96.390, 3607.0, 60.0583
10.706272962, 96.390, 3703.0, 60.8523
10.732533527, 96.390, 3717.0, 60.9672
10.758794093, 96.390, 3750.0, 61.2372
10.785054658, 96.390, 3743.0, 61.1801
10.811315223, 96.390, 3776.0, 61.4492
10.837575789, 96.390, 3735.0, 61.1146
10.863836354, 96.390, 3770.0, 61.4003
10.890096919, 96.390, 3796.0, 61.6117
10.916357485, 96.390, 3741.0, 61.1637
10.942618050, 96.390, 3827.0, 61.8628
10.968878616, 96.390, 3795.0, 61.6036
10.995139181, 96.390, 3722.0, 61.0082
11.021399746, 96.390, 3791.0, 61.5711
11.047660312, 96.390, 3805.0, 61.6847
11.073920877, 96.390, 3753.0, 61.2617
11.100181442, 96.390, 3940.0, 62.7694
11.126442008, 96.390, 3862.0, 62.1450
11.152702573, 96.390, 3959.0, 62.9206
11.178963138, 96.390, 3841.0, 61.9758
11.205223704, 96.390, 4050.0, 63.6396
11.231484269, 96.390, 4068.0, 63.7809
11.257744834, 96.390, 3990.0, 63.1664
11.284005400, 96.390, 4110.0, 64.1093
11.310265965, 96.390, 3941.0, 62.7774
11.336526530, 96.390, 4075.0, 63.8357
11.362787096, 96.390, 4071.0, 63.8044
11.389047661, 96.390, 4317.0, 65.7039
11.415308227, 96.390, 4151.0, 64.4283
11.441568792, 96.390, 4217.0, 64.9384
11.467829357, 96.390, 4267.0, 65.3223
11.494089923, 96.390, 4312.0, 65.6658
11.520350488, 96.390, 4275.0, 65.3835
11.546611053, 96.390, 4297.0, 65.5515
11.572871619, 96.390, 4317.0, 65.7039
11.599132184, 96.390, 4258.0, 65.2534
11.625392749, 96.390, 4386.0, 66.2269
11.651653315, 96.390, 4345.0, 65.9166
11.677913880, 96.390, 4363.0, 66.0530
11.704174445, 96.390, 4195.0, 64.7688
11.730435011, 96.390, 4191.0, 64.7379
11.756695576, 96.390, 3997.0, 63.2218
11.782956141, 96.390, 4123.0, 64.2106
11.809216707, 96.390, 4039.0, 63.5531
11.835477272, 96.390, 3923.0, 62.6339
11.861737838, 96.390, 3762.0, 61.3351
11.887998403, 96.390, 3798.0, 61.6279
11.914258968, 96.390, 3747.0, 61.2127
11.940519534, 96.390, 3780.0, 61.4817
11.966780099, 96.390, 3548.0, 59.5651
11.993040664, 96.390, 3530.0, 59.4138
12.019301230, 96.390, 3632.0, 60.2661
12.045561795, 96.390, 3403.0, 58.3352
12.071822360, 96.390, 3542.0, 59.5147
12.098082926, 96.390, 3449.0, 58.7282
12.124343491, 96.390, 3374.0, 58.0861
12.150604056, 96.390, 3358.0, 57.9483
12.176864622, 96.390, 3421.0, 58.4893
12.203125187, 96.390, 3166.0, 56.2672
12.229385753, 96.390, 3191.0, 56.4889
12.255646318, 96.390, 3242.0, 56.9386
12.281906883, 96.390, 3395.0, 58.2666
12.308167449, 96.390, 3183.0, 56.4181
12.334428014, 96.390, 3290.0, 57.3585
12.360688579, 96.390, 3134.0, 55.9821
12.386949145, 96.390, 3154.0, 56.1605
12.413209710, 96.390, 3053.0, 55.2540
12.439470275, 96.390, 3147.0, 56.0981
12.465730841, 96.390, 3135.0, 55.9911
12.491991406, 96.390, 3041.0, 55.1453
12.518251971, 96.390, 3020.0, 54.9545
12.544512537, 96.390, 3003.0, 54.7996
12.570773102, 96.390, 3104.0, 55.7136
12.597033667, 96.390, 2954.0, 54.3507
12.623294233, 96.390, 2933.0, 54.1572
12.649554798, 96.390, 2913.0, 53.9722
12.675815364, 96.390, 2910.0, 53.9444
12.702075929, 96.390, 2999.0, 54.7631
12.728336494, 96.390, 2838.0, 53.2729
12.754597060, 96.390, 2960.0, 54.4059
12.780857625, 96.390, 2891.0, 53.7680
12.807118190, 96.390, 2856.0, 53.4416
12.833378756, 96.390, 2885.0, 53.7122
12.859639321, 96.390, 2871.0, 53.5817
12.885899886, 96.390, 2852.0, 53.4041
12.912160452, 96.390, 2804.0, 52.9528
12.938421017, 96.390, 2853.0, 53.4135
12.964681582, 96.390, 2792.0, 52.8394
12.990942148, 96.390, 2729.0, 52.2398
13.017202713, 96.390, 2739.0, 52.3355
13.043463279, 96.390, 2814.0, 53.0471
13.069723844, 96.390, 2756.0, 52.4976
13.095984409, 96.390, 2728.0, 52.2303
13.122244975, 96.390, 2642.0, 51.4004
13.148505540, 96.390, 2617.0, 51.1566
13.174766105, 96.390, 2706.0, 52.0192
13.201026671, 96.390, 2680.0, 51.7687
13.227287236, 96.390, 2638.0, 51.3615
13.253547801, 96.390, 2713.0, 52.0865
13.279808367, 96.390, 2733.0, 52.2781
13.306068932, 96.390, 2631.0, 51.2933
13.332329497, 96.390, 2663.0, 51.6043
13.358590063, 96.390, 2710.0, 52.0577
13.384850628, 96.390, 2648.0, 51.4587
13.411111193, 96.390, 2690.0, 51.8652
13.437371759, 96.390, 2686.0, 51.8266
13.463632324, 96.390, 2695.0, 51.9134
13.489892890, 96.390, 2594.0, 50.9313
13.516153455, 96.390, 2558.0, 50.5767
13.542414020, 96.390, 2645.0, 51.4296
13.568674586, 96.390, 2529.0, 50.2892
13.594935151, 96.390, 2608.0, 51.0686
13.621195716, 96.390, 2644.0, 51.4198
13.647456282, 96.390, 2595.0, 50.9411
13.673716847, 96.390, 2452.0, 49.5177
13.699977412, 96.390, 2615.0, 51.1371
13.726237978, 96.390, 2606.0, 51.0490
13.752498543, 96.390, 2509.0, 50.0899
13.778759108, 96.390, 2572.0, 50.7149
13.805019674, 96.390, 2511.0, 50.1099
13.831280239, 96.390, 2519.0, 50.1896
13.857540805, 96.390, 2510.0, 50.0999
13.883801370, 96.390, 2454.0, 49.5379
13.910061935, 96.390, 2453.0, 49.5278
13.936322501, 96.390, 2522.0, 50.2195
13.962583066, 96.390, 2482.0, 49.8197
13.988843631, 96.390, 2508.0, 50.0799
14.015104197, 96.390, 2477.0, 49.7695
14.041364762, 96.390, 2497.0, 49.9700
14.067625327, 96.390, 2392.0, 48.9081
14.093885893, 96.390, 2334.0, 48.3115
14.120146458, 96.390, 2477.0, 49.7695
14.146407023, 96.390, 2420.0, 49.1935
14.172667589, 96.390, 2409.0, 49.0816
14.198928154, 96.390, 2410.0, 49.0918
14.225188719, 96.390, 2344.0, 48.4149
14.251449285, 96.390, 2482.0, 49.8197
14.277709850, 96.390, 2441.0, 49.4065
14.303970416, 96.390, 2399.0, 48.9796
14.330230981, 96.390, 2393.0, 48.9183
14.356491546, 96.390, 2381.0, 48.7955
14.382752112, 96.390, 2340.0, 48.3735
14.409012677, 96.390, 2357.0, 48.5489
14.435273242, 96.390, 2360.0, 48.5798
14.461533808, 96.390, 2427.0, 49.2646
14.487794373, 96.390, 2406.0, 49.0510
14.514054938, 96.390, 2361.0, 48.5901
14.540315504, 96.390, 2282.0, 47.7703
14.566576069, 96.390, 2250.0, 47.4342
14.592836634, 96.390, 2435.0, 49.3457
14.619097200, 96.390, 2315.0, 48.1144
14.645357765, 96.390, 2330.0, 48.2701
14.671618331, 96.390, 2261.0, 47.5500
14.697878896, 96.390, 2288.0, 47.8330
14.724139461, 96.390, 2425.0, 49.2443
14.750400027, 96.390, 2344.0, 48.4149
14.776660592, 96.390, 2254.0, 47.4763
14.802921157, 96.390, 2295.0, 47.9062
14.829181723, 96.390, 2265.0, 47.5920
14.855442288, 96.390, 2292.0, 47.8748
14.881702853, 96.390, 2273.0, 47.6760
14.907963419, 96.390, 2175.0, 46.6369
14.934223984, 96.390, 2270.0, 47.6445
14.960484549, 96.390, 2281.0, 47.7598
14.986745115, 96.390, 2343.0, 48.4045
15.013005680, 96.390, 2297.0, 47.9270
15.039266245, 96.390, 2287.0, 47.8226
15.065526811, 96.390, 2282.0, 47.7703
15.091787376, 96.390, 2266.0, 47.6025
15.118047942, 96.390, 2268.0, 47.6235
15.144308507, 96.390, 2261.0, 47.5500
15.170569072, 96.390, 2320.0, 48.1664
15.196829638, 96.390, 2239.0, 47.3181
15.223090203, 96.390, 2245.0, 47.3814
15.249350768, 96.390, 2218.0, 47.0956
15.275611334, 96.390, 2310.0, 48.0625
15.301871899, 96.390, 2284.0, 47.7912
15.328132464, 96.390, 2339.0, 48.3632
15.354393030, 96.390, 2268.0, 47.6235
15.380653595, 96.390, 2216.0, 47.0744
15.406914160, 96.390, 2184.0, 46.7333
15.433174726, 96.390, 2229.0, 47.2123
15.459435291, 96.390, 2246.0, 47.3920
15.485695857, 96.390, 2210.0, 47.0106
15.511956422, 96.390, 2192.0, 46.8188
15.538216987, 96.390, 2185.0, 46.7440
15.564477553, 96.390, 2252.0, 47.4552
15.590738118, 96.390, 2157.0, 46.4435
15.616998683, 96.390, 2155.0, 46.4220
15.643259249, 96.390, 2197.0, 46.8722
15.669519814, 96.390, 2198.0, 46.8828
15.695780379, 96.390, 2236.0, 47.2864
15.722040945, 96.390, 2187.0, 46.7654
15.748301510, 96.390, 2200.0, 46.9042
15.774562075, 96.390, 2223.0, 47.1487
15.800822641, 96.390, 2203.0, 46.9361
15.827083206, 96.390, 2277.0, 47.7179
15.853343771, 96.390, 2171.0, 46.5940
15.879604337, 96.390, 2261.0, 47.5500
15.905864902, 96.390, 2184.0, 46.7333
15.932125468, 96.390, 2064.0, 45.4313
15.958386033, 96.390, 2224.0, 47.1593
15.984646598, 96.390, 2211.0, 47.0213
16.010907164, 96.390, 2249.0, 47.4236
16.037167729, 96.390, 2121.0, 46.0543
16.063428294, 96.390, 2127.0, 46.1194
16.089688860, 96.390, 2074.0, 45.5412
16.115949425, 96.390, 2179.0, 46.6798
16.142209990, 96.390, 2248.0, 47.4131
16.168470556, 96.390, 2196.0, 46.8615
16.194731121, 96.390, 2183.0, 46.7226
16.220991686, 96.390, 2170.0, 46.5833
16.247252252, 96.390, 2234.0, 47.2652
16.273512817, 96.390, 2159.0, 46.4650
16.299773382, 96.390, 2158.0, 46.4543
16.326033948, 96.390, 2224.0, 47.1593
16.352294513, 96.390, 2274.0, 47.6865
16.378555079, 96.390, 2146.0, 46.3249
16.404815644, 96.390, 2181.0, 46.7012
16.431076209, 96.390, 2197.0, 46.8722
16.457336775, 96.390, 2152.0, 46.3897
16.483597340, 96.390, 2211.0, 47.0213
16.509857905, 96.390, 2259.0, 47.5289
16.536118471, 96.390, 2223.0, 47.1487
16.562379036, 96.390, 2168.0, 46.5618
16.588639601, 96.390, 2182.0, 46.7119
16.614900167, 96.390, 2212.0, 47.0319
16.641160732, 96.390, 2289.0, 47.8435
16.667421297, 96.390, 2204.0, 46.9468
16.693681863, 96.390, 2282.0, 47.7703
16.719942428, 96.390, 2156.0, 46.4327
16.746202994, 96.390, 2172.0, 46.6047
16.772463559, 96.390, 2192.0, 46.8188
16.798724124, 96.390, 2127.0, 46.1194
16.824984690, 96.390, 2188.0, 46.7761
16.851245255, 96.390, 2225.0, 47.1699
16.877505820, 96.390, 2216.0, 47.0744
16.903766386, 96.390, 2200.0, 46.9042
16.930026951, 96.390, 2153.0, 46.4004
16.956287516, 96.390, 2175.0, 46.6369
16.982548082, 96.390, 2167.0, 46.5510
17.008808647, 96.390, 2202.0, 46.9255
17.035069212, 96.390, 2247.0, 47.4025
17.061329778, 96.390, 2204.0, 46.9468
17.087590343, 96.390, 2134.0, 46.1952
17.113850908, 96.390, 2230.0, 47.2229
17.140111474, 96.390, 2167.0, 46.5510
17.166372039, 96.390, 2164.0, 46.5188
17.192632605, 96.390, 2242.0, 47.3498
17.218893170, 96.390, 2216.0, 47.0744
17.245153735, 96.390, 2158.0, 46.4543
17.271414301, 96.390, 2246.0, 47.3920
17.297674866, 96.390, 2199.0, 46.8935
17.323935431, 96.390, 2206.0, 46.9681
17.350195997, 96.390, 2208.0, 46.9894
17.376456562, 96.390, 2135.0, 46.2061
17.402717127, 96.390, 2201.0, 46.9148
17.428977693, 96.390, 2200.0, 46.9042
17.455238258, 96.390, 2272.0, 47.6655
17.481498823, 96.390, 2208.0, 46.9894
17.507759389, 96.390, 2272.0, 47.6655
17.534019954, 96.390, 2242.0, 47.3498
17.560280520, 96.390, 2146.0, 46.3249
17.586541085, 96.390, 2177.0, 46.6583
17.612801650, 96.390, 2264.0, 47.5815
17.639062216, 96.390, 2234.0, 47.2652
17.665322781, 96.390, 2266.0, 47.6025
17.691583346, 96.390, 2259.0, 47.5289
17.717843912, 96.390, 2202.0, 46.9255
17.744104477, 96.390, 2155.0, 46.4220
17.770365042, 96.390, 2261.0, 47.5500
17.796625608, 96.390, 2260.0, 47.5395
17.822886173, 96.390, 2228.0, 47.2017
17.849146738, 96.390, 2328.0, 48.2494
17.875407304, 96.390, 2220.0, 47.1169
17.901667869, 96.390, 2229.0, 47.2123
17.927928434, 96.390, 2194.0, 46.8402
17.954189000, 96.390, 2247.0, 47.4025
17.980449565, 96.390, 2235.0, 47.2758
18.006710131, 96.390, 2206.0, 46.9681
18.032970696, 96.390, 2177.0, 46.6583
18.059231261, 96.390, 2228.0, 47.2017
18.085491827, 96.390, 2318.0, 48.1456
18.111752392, 96.390, 2320.0, 48.1664
18.138012957, 96.390, 2256.0, 47.4974
18.164273523, 96.390, 2331.0, 48.2804
18.190534088, 96.390, 2232.0, 47.2440
18.216794653, 96.390, 2347.0, 48.4458
18.243055219, 96.390, 2298.0, 47.9375
18.269315784, 96.390, 2236.0, 47.2864
18.295576349, 96.390, 2259.0, 47.5289
18.321836915, 96.390, 2278.0, 47.7284
18.348097480, 96.390, 2348.0, 48.4562
18.374358046, 96.390, 2316.0, 48.1248
18.400618611, 96.390, 2315.0, 48.1144
18.426879176, 96.390, 2313.0, 48.0937
18.453139742, 96.390, 2244.0, 47.3709
18.479400307, 96.390, 2280.0, 47.7493
18.505660872, 96.390, 2314.0, 48.1041
18.531921438, 96.390, 2315.0, 48.1144
18.558182003, 96.390, 2337.0, 48.3425
18.584442568, 96.390, 2341.0, 48.3839
18.610703134, 96.390, 2330.0, 48.2701
18.636963699, 96.390, 2334.0, 48.3115
18.663224264, 96.390, 2299.0, 47.9479
18.689484830, 96.390, 2413.0, 49.1223
18.715745395, 96.390, 2315.0, 48.1144
18.742005960, 96.390, 2352.0, 48.4974
18.768266526, 96.390, 2162.0, 46.4973
18.794527091, 96.390, 2371.0, 48.6929
18.820787657, 96.390, 2418.0, 49.1732
18.847048222, 96.390, 2319.0, 48.1560
18.873308787, 96.390, 2397.0, 48.9592
18.899569353, 96.390, 2365.0, 48.6313
18.925829918, 96.390, 2421.0, 49.2037
18.952090483, 96.390, 2466.0, 49.6588
18.978351049, 96.390, 2324.0, 48.2079
19.004611614, 96.390, 2453.0, 49.5278
19.030872179, 96.390, 2390.0, 48.8876
19.057132745, 96.390, 2467.0, 49.6689
19.083393310, 96.390, 2442.0, 49.4166
19.109653875, 96.390, 2409.0, 49.0816
19.135914441, 96.390, 2395.0, 48.9387
19.162175006, 96.390, 2364.0, 48.6210
19.188435572, 96.390, 2399.0, 48.9796
19.214696137, 96.390, 2405.0, 49.0408
19.240956702, 96.390, 2434.0, 49.3356
19.267217268, 96.390, 2450.0, 49.4975
19.293477833, 96.390, 2503.0, 50.0300
19.319738398, 96.390, 2474.0, 49.7393
19.345998964, 96.390, 2471.0, 49.7092
19.372259529, 96.390, 2313.0, 48.0937
19.398520094, 96.390, 2493.0, 49.9300
19.424780660, 96.390, 2472.0, 49.7192
19.451041225, 96.390, 2485.0, 49.8498
19.477301790, 96.390, 2423.0, 49.2240
19.503562356, 96.390, 2484.0, 49.8397
19.529822921, 96.390, 2550.0, 50.4975
19.556083486, 96.390, 2481.0, 49.8096
19.582344052, 96.390, 2424.0, 49.2341
19.608604617, 96.390, 2459.0, 49.5883
19.634865183, 96.390, 2485.0, 49.8498
19.661125748, 96.390, 2566.0, 50.6557
19.687386313, 96.390, 2491.0, 49.9099
19.713646879, 96.390, 2541.0, 50.4083
19.739907444, 96.390, 2591.0, 50.9019
19.766168009, 96.390, 2470.0, 49.6991
19.792428575, 96.390, 2460.0, 49.5984
19.818689140, 96.390, 2588.0, 50.8724
19.844949705, 96.390, 2546.0, 50.4579
19.871210271, 96.390, 2568.0, 50.6754
19.897470836, 96.390, 2564.0, 50.6360
19.923731401, 96.390, 2588.0, 50.8724
19.949991967, 96.390, 2486.0, 49.8598
19.976252532, 96.390, 2666.0, 51.6333
20.002513097, 96.390, 2553.0, 50.5272
20.028773663, 96.390, 2540.0, 50.3984
20.055034228, 96.390, 2609.0, 51.0784
20.081294794, 96.390, 2602.0, 51.0098
20.107555359, 96.390, 2637.0, 51.3517
20.133815924, 96.390, 2689.0, 51.8556
20.160076490, 96.390, 2593.0, 50.9215
20.186337055, 96.390, 2561.0, 50.6063
20.212597620, 96.390, 2652.0, 51.4976
20.238858186, 96.390, 2567.0, 50.6656
20.265118751, 96.390, 2607.0, 51.0588
20.291379316, 96.390, 2657.0, 51.5461
20.317639882, 96.390, 2655.0, 51.5267
20.343900447, 96.390, 2718.0, 52.1344
20.370161012, 96.390, 2546.0, 50.4579
20.396421578, 96.390, 2699.0, 51.9519
20.422682143, 96.390, 2656.0, 51.5364
20.448942709, 96.390, 2725.0, 52.2015
20.475203274, 96.390, 2791.0, 52.8299
20.501463839, 96.390, 2640.0, 51.3809
20.527724405, 96.390, 2698.0, 51.9423
20.553984970, 96.390, 2692.0, 51.8845
20.580245535, 96.390, 2662.0, 51.5946
20.606506101, 96.390, 2697.0, 51.9326
20.632766666, 96.390, 2675.0, 51.7204
20.659027231, 96.390, 2727.0, 52.2207
20.685287797, 96.390, 2667.0, 51.6430
20.711548362, 96.390, 2614.0, 51.1273
20.737808927, 96.390, 2762.0, 52.5547
20.764069493, 96.390, 2703.0, 51.9904
20.790330058, 96.390, 2704.0, 52.0000
20.816590623, 96.390, 2728.0, 52.2303
20.842851189, 96.390, 2783.0, 52.7541
20.869111754, 96.390, 2768.0, 52.6118
20.895372320, 96.390, 2798.0, 52.8961
20.921632885, 96.390, 2769.0, 52.6213
20.947893450, 96.390, 2817.0, 53.0754
20.974154016, 96.390, 2810.0, 53.0094
21.000414581, 96.390, 2803.0, 52.9434
21.026675146, 96.390, 2745.0, 52.3927
21.052935712, 96.390, 2783.0, 52.7541
21.079196277, 96.390, 2843.0, 53.3198
21.105456842, 96.390, 2775.0, 52.6783
21.131717408, 96.390, 2831.0, 53.2071
21.157977973, 96.390, 2831.0, 53.2071
21.184238538, 96.390, 2718.0, 52.1344
21.210499104, 96.390, 2851.0, 53.3948
21.236759669, 96.390, 2723.0, 52.1824
21.263020235, 96.390, 2823.0, 53.1319
21.289280800, 96.390, 2761.0, 52.5452
21.315541365, 96.390, 2736.0, 52.3068
21.341801931, 96.390, 2885.0, 53.7122
21.368062496, 96.390, 2807.0, 52.9811
21.394323061, 96.390, 2859.0, 53.4696
21.420583627, 96.390, 2869.0, 53.5630
21.446844192, 96.390, 2811.0, 53.0189
21.473104757, 96.390, 2908.0, 53.9259
21.499365323, 96.390, 2797.0, 52.8867
21.525625888, 96.390, 2794.0, 52.8583
21.551886453, 96.390, 2877.0, 53.6377
21.578147019, 96.390, 2775.0, 52.6783
21.604407584, 96.390, 2918.0, 54.0185
21.630668149, 96.390, 2900.0, 53.8516
21.656928715, 96.390, 2913.0, 53.9722
21.683189280, 96.390, 3020.0, 54.9545
21.709449846, 96.390, 2903.0, 53.8795
21.735710411, 96.390, 2934.0, 54.1664
21.761970976, 96.390, 2938.0, 54.2033
21.788231542, 96.390, 2891.0, 53.7680
21.814492107, 96.390, 2929.0, 54.1202
21.840752672, 96.390, 2846.0, 53.3479
21.867013238, 96.390, 2874.0, 53.6097
21.893273803, 96.390, 2900.0, 53.8516
21.919534368, 96.390, 2933.0, 54.1572
21.945794934, 96.390, 2880.0, 53.6656
21.972055499, 96.390, 2886.0, 53.7215
21.998316064, 96.390, 2928.0, 54.1110
22.024576630, 96.390, 2870.0, 53.5724
22.050837195, 96.390, 2864.0, 53.5164
22.077097761, 96.390, 2861.0, 53.4883
22.103358326, 96.390, 3010.0, 54.8635
22.129618891, 96.390, 2949.0, 54.3047
22.155879457, 96.390, 2896.0, 53.8145
22.182140022, 96.390, 2909.0, 53.9351
22.208400587, 96.390, 2921.0, 54.0463
22.234661153, 96.390, 3031.0, 55.0545
22.260921718, 96.390, 2889.0, 53.7494
22.287182283, 96.390, 2873.0, 53.6004
22.313442849, 96.390, 2899.0, 53.8424
22.339703414, 96.390, 3002.0, 54.7905
22.365963979, 96.390, 2965.0, 54.4518
22.392224545, 96.390, 3007.0, 54.8361
22.418485110, 96.390, 2925.0, 54.0833
22.444745675, 96.390, 2980.0, 54.5894
22.471006241, 96.390, 2941.0, 54.2310
22.497266806, 96.390, 2903.0, 53.8795
22.523527372, 96.390, 2963.0, 54.4334
22.549787937, 96.390, 2989.0, 54.6717
22.576048502, 96.390, 2998.0, 54.7540
22.602309068, 96.390, 3021.0, 54.9636
22.628569633, 96.390, 2989.0, 54.6717
22.654830198, 96.390, 2995.0, 54.7266
22.681090764, 96.390, 2976.0, 54.5527
22.707351329, 96.390, 2897.0, 53.8238
22.733611894, 96.390, 3004.0, 54.8088
22.759872460, 96.390, 3008.0, 54.8452
22.786133025, 96.390, 3025.0, 55.0000
22.812393590, 96.390, 2925.0, 54.0833
22.838654156, 96.390, 2997.0, 54.7449
22.864914721, 96.390, 3016.0, 54.9181
22.891175287, 96.390, 2953.0, 54.3415
22.917435852, 96.390, 3053.0, 55.2540
22.943696417, 96.390, 3044.0, 55.1725
22.969956983, 96.390, 3156.0, 56.1783
22.996217548, 96.390, 3026.0, 55.0091
23.022478113, 96.390, 3112.0, 55.7853
23.048738679, 96.390, 3066.0, 55.3715
23.074999244, 96.390, 3040.0, 55.1362
23.101259809, 96.390, 3037.0, 55.1090
23.127520375, 96.390, 3180.0, 56.3915
23.153780940, 96.390, 3117.0, 55.8301
23.180041505, 96.390, 3216.0, 56.7098
23.206302071, 96.390, 3183.0, 56.4181
23.232562636, 96.390, 3171.0, 56.3116
23.258823201, 96.390, 3119.0, 55.8480
23.285083767, 96.390, 3189.0, 56.4712
23.311344332, 96.390, 3180.0, 56.3915
23.337604898, 96.390, 3179.0, 56.3826
23.363865463, 96.390, 3199.0, 56.5597
23.390126028, 96.390, 3214.0, 56.6922
23.416386594, 96.390, 3177.0, 56.3649
23.442647159, 96.390, 3198.0, 56.5509
23.468907724, 96.390, 3306.0, 57.4978
23.495168290, 96.390, 3156.0, 56.1783
23.521428855, 96.390, 3217.0, 56.7186
23.547689420, 96.390, 3155.0, 56.1694
23.573949986, 96.390, 3134.0, 55.9821
23.600210551, 96.390, 3109.0, 55.7584
23.626471116, 96.390, 3145.0, 56.0803
23.652731682, 96.390, 3032.0, 55.0636
23.678992247, 96.390, 2985.0, 54.6352
23.705252813, 96.390, 3042.0, 55.1543
23.731513378, 96.390, 2926.0, 54.0925
23.757773943, 96.390, 2993.0, 54.7083
23.784034509, 96.390, 2894.0, 53.7959
23.810295074, 96.390, 2871.0, 53.5817
23.836555639, 96.390, 2827.0, 53.1695
23.862816205, 96.390, 2915.0, 53.9907
23.889076770, 96.390, 2782.0, 52.7447
23.915337335, 96.390, 2860.0, 53.4790
23.941597901, 96.390, 2907.0, 53.9166
23.967858466, 96.390, 2816.0, 53.0660
23.994119031, 96.390, 2842.0, 53.3104
24.020379597, 96.390, 2741.0, 52.3546
24.046640162, 96.390, 2841.0, 53.3010
24.072900727, 96.390, 2700.0, 51.9615
24.099161293, 96.390, 2848.0, 53.3667
24.125421858, 96.390, 2784.0, 52.7636
24.151682424, 96.390, 2715.0, 52.1057
24.177942989, 96.390, 2709.0, 52.0481
24.204203554, 96.390, 2651.0, 51.4879
24.230464120, 96.390, 2728.0, 52.2303
24.256724685, 96.390, 2607.0, 51.0588
24.282985250, 96.390, 2687.0, 51.8363
24.309245816, 96.390, 2623.0, 51.2152
24.335506381, 96.390, 2707.0, 52.0288
24.361766946, 96.390, 2637.0, 51.3517
24.388027512, 96.390, 2681.0, 51.7784
24.414288077, 96.390, 2722.0, 52.1728
24.440548642, 96.390, 2632.0, 51.3030
24.466809208, 96.390, 2592.0, 50.9117
24.493069773, 96.390, 2561.0, 50.6063
24.519330338, 96.390, 2632.0, 51.3030
24.545590904, 96.390, 2589.0, 50.8822
24.571851469, 96.390, 2673.0, 51.7011
24.598112035, 96.390, 2605.0, 51.0392
24.624372600, 96.390, 2576.0, 50.7543
24.650633165, 96.390, 2564.0, 50.6360
24.676893731, 96.390, 2585.0, 50.8429
24.703154296, 96.390, 2545.0, 50.4480
24.729414861, 96.390, 2581.0, 50.8035
24.755675427, 96.390, 2588.0, 50.8724
24.781935992, 96.390, 2512.0, 50.1199
24.808196557, 96.390, 2537.0, 50.3686
24.834457123, 96.390, 2454.0, 49.5379
24.860717688, 96.390, 2490.0, 49.8999
24.886978253, 96.390, 2508.0, 50.0799
24.913238819, 96.390, 2569.0, 50.6853
24.939499384, 96.390, 2464.0, 49.6387
24.965759950, 96.390, 2474.0, 49.7393
24.992020515, 96.390, 2576.0, 50.7543
25.018281080, 96.390, 2555.0, 50.5470
25.044541646, 96.390, 2527.0, 50.2693
25.070802211, 96.390, 2467.0, 49.6689
25.097062776, 96.390, 2456.0, 49.5580
25.123323342, 96.390, 2413.0, 49.1223
25.149583907, 96.390, 2465.0, 49.6488
25.175844472, 96.390, 2478.0, 49.7795
25.202105038, 96.390, 2554.0, 50.5371
25.228365603, 96.390, 2496.0, 49.9600
25.254626168, 96.390, 2510.0, 50.0999
25.280886734, 96.390, 2514.0, 50.1398
25.307147299, 96.390, 2471.0, 49.7092
25.333407864, 96.390, 2476.0, 49.7594
25.359668430, 96.390, 2487.0, 49.8698
25.385928995, 96.390, 2487.0, 49.8698
25.412189561, 96.390, 2442.0, 49.4166
25.438450126, 96.390, 2414.0, 49.1325
25.464710691, 96.390, 2389.0, 48.8774
25.490971257, 96.390, 2428.0, 49.2747
25.517231822, 96.390, 2435.0, 49.3457
25.543492387, 96.390, 2396.0, 48.9490
25.569752953, 96.390, 2451.0, 49.5076
25.596013518, 96.390, 2407.0, 49.0612
25.622274083, 96.390, 2390.0, 48.8876
25.648534649, 96.390, 2338.0, 48.3529
25.674795214, 96.390, 2328.0, 48.2494
25.701055779, 96.390, 2413.0, 49.1223
25.727316345, 96.390, 2281.0, 47.7598
25.753576910, 96.390, 2452.0, 49.5177
25.779837476, 96.390, 2264.0, 47.5815
25.806098041, 96.390, 2362.0, 48.6004
25.832358606, 96.390, 2358.0, 48.5592
25.858619172, 96.390, 2238.0, 47.3075
25.884879737, 96.390, 2353.0, 48.5077
25.911140302, 96.390, 2336.0, 48.3322
25.937400868, 96.390, 2353.0, 48.5077
25.963661433, 96.390, 2349.0, 48.4665
25.989921998, 96.390, 2351.0, 48.4871
26.016182564, 96.390, 2293.0, 47.8853
26.042443129, 96.390, 2244.0, 47.3709
26.068703694, 96.390, 2333.0, 48.3011
26.094964260, 96.390, 2382.0, 48.8057
26.121224825, 96.390, 2396.0, 48.9490
26.147485390, 96.390, 2366.0, 48.6415
26.173745956, 96.390, 2337.0, 48.3425
26.200006521, 96.390, 2246.0, 47.3920
26.226267087, 96.390, 2287.0, 47.8226
26.252527652, 96.390, 2310.0, 48.0625
26.278788217, 96.390, 2296.0, 47.9166
26.305048783, 96.390, 2377.0, 48.7545
26.331309348, 96.390, 2288.0, 47.8330
26.357569913, 96.390, 2350.0, 48.4768
26.383830479, 96.390, 2252.0, 47.4552
26.410091044, 96.390, 2257.0, 47.5079
26.436351609, 96.390, 2206.0, 46.9681
26.462612175, 96.390, 2189.0, 46.7868
26.488872740, 96.390, 2302.0, 47.9792
26.515133305, 96.390, 2284.0, 47.7912
26.541393871, 96.390, 2345.0, 48.4252
26.567654436, 96.390, 2315.0, 48.1144
26.593915002, 96.390, 2315.0, 48.1144
26.620175567, 96.390, 2249.0, 47.4236
26.646436132, 96.390, 2175.0, 46.6369
26.672696698, 96.390, 2229.0, 47.2123
26.698957263, 96.390, 2246.0, 47.3920
26.725217828, 96.390, 2274.0, 47.6865
26.751478394, 96.390, 2203.0, 46.9361
26.777738959, 96.390, 2321.0, 48.1768
26.803999524, 96.390, 2245.0, 47.3814
26.830260090, 96.390, 2171.0, 46.5940
26.856520655, 96.390, 2255.0, 47.4868
26.882781220, 96.390, 2203.0, 46.9361
26.909041786, 96.390, 2272.0, 47.6655
26.935302351, 96.390, 2248.0, 47.4131
26.961562916, 96.390, 2251.0, 47.4447
26.987823482, 96.390, 2193.0, 46.8295
27.014084047, 96.390, 2257.0, 47.5079
27.040344613, 96.390, 2221.0, 47.1275
27.066605178, 96.390, 2290.0, 47.8539
27.092865743, 96.390, 2365.0, 48.6313
27.119126309, 96.390, 2300.0, 47.9583
27.145386874, 96.390, 2274.0, 47.6865
27.171647439, 96.390, 2194.0, 46.8402
27.197908005, 96.390, 2177.0, 46.6583
27.224168570, 96.390, 2226.0, 47.1805
27.250429135, 96.390, 2189.0, 46.7868
27.276689701, 96.390, 2111.0, 45.9456
27.302950266, 96.390, 2173.0, 46.6154
27.329210831, 96.390, 2225.0, 47.1699
27.355471397, 96.390, 2224.0, 47.1593
27.381731962, 96.390, 2197.0, 46.8722
27.407992528, 96.390, 2207.0, 46.9787
27.434253093, 96.390, 2241.0, 47.3392
27.460513658, 96.390, 2238.0, 47.3075
27.486774224, 96.390, 2207.0, 46.9787
27.513034789, 96.390, 2193.0, 46.8295
27.539295354, 96.390, 2163.0, 46.5081
27.565555920, 96.390, 2243.0, 47.3603
27.591816485, 96.390, 2160.0, 46.4758
27.618077050, 96.390, 2263.0, 47.5710
27.644337616, 96.390, 2075.0, 45.5522
27.670598181, 96.390, 2145.0, 46.3141
27.696858746, 96.390, 2166.0, 46.5403
27.723119312, 96.390, 2205.0, 46.9574
27.749379877, 96.390, 2223.0, 47.1487
27.775640442, 96.390, 2219.0, 47.1063
27.801901008, 96.390, 2248.0, 47.4131
27.828161573, 96.390, 2280.0, 47.7493
27.854422139, 96.390, 2141.0, 46.2709
27.880682704, 96.390, 2179.0, 46.6798
27.906943269, 96.390, 2147.0, 46.3357
27.933203835, 96.390, 2151.0, 46.3789
27.959464400, 96.390, 2161.0, 46.4866
27.985724965, 96.390, 2164.0, 46.5188
28.011985531, 96.390, 2161.0, 46.4866
28.038246096, 96.390, 2156.0, 46.4327
28.064506661, 96.390, 2151.0, 46.3789
28.090767227, 96.390, 2109.0, 45.9239
28.117027792, 96.390, 2205.0, 46.9574
28.143288357, 96.390, 2219.0, 47.1063
28.169548923, 96.390, 2079.0, 45.5961
28.195809488, 96.390, 2115.0, 45.9891
28.222070054, 96.390, 2145.0, 46.3141
28.248330619, 96.390, 2065.0, 45.4423
28.274591184, 96.390, 2113.0, 45.9674
28.300851750, 96.390, 2212.0, 47.0319
28.327112315, 96.390, 2165.0, 46.5296
28.353372880, 96.390, 2067.0, 45.4643
28.379633446, 96.390, 2177.0, 46.6583
28.405894011, 96.390, 2129.0, 46.1411
28.432154576, 96.390, 2127.0, 46.1194
28.458415142, 96.390, 2081.0, 45.6180
28.484675707, 96.390, 2093.0, 45.7493
28.510936272, 96.390, 1999.0, 44.7102
28.537196838, 96.390, 2097.0, 45.7930
28.563457403, 96.390, 2108.0, 45.9130
28.589717968, 96.390, 2116.0, 46.0000
28.615978534, 96.390, 2183.0, 46.7226
28.642239099, 96.390, 2130.0, 46.1519
28.668499665, 96.390, 2084.0, 45.6508
28.694760230, 96.390, 2145.0, 46.3141
28.721020795, 96.390, 2170.0, 46.5833
28.747281361, 96.390, 2057.0, 45.3542
28.773541926, 96.390, 2081.0, 45.6180
28.799802491, 96.390, 2046.0, 45.2327
28.826063057, 96.390, 2045.0, 45.2217
28.852323622, 96.390, 2072.0, 45.5192
28.878584187, 96.390, 2122.0, 46.0652
28.904844753, 96.390, 2068.0, 45.4753
28.931105318, 96.390, 2115.0, 45.9891
28.957365883, 96.390, 2096.0, 45.7821
28.983626449, 96.390, 2102.0, 45.8476
29.009887014, 96.390, 2071.0, 45.5082
29.036147579, 96.390, 2139.0, 46.2493
29.062408145, 96.390, 2087.0, 45.6837
29.088668710, 96.390, 2036.0, 45.1221
29.114929276, 96.390, 2059.0, 45.3762
29.141189841, 96.390, 2064.0, 45.4313
29.167450406, 96.390, 2077.0, 45.5741
29.193710972, 96.390, 2029.0, 45.0444
29.219971537, 96.390, 2126.0, 46.1086
29.246232102, 96.390, 2063.0, 45.4203
29.272492668, 96.390, 2025.0, 45.0000
29.298753233, 96.390, 2004.0, 44.7661
29.325013798, 96.390, 2079.0, 45.5961
29.351274364, 96.390, 2069.0, 45.4863
29.377534929, 96.390, 1979.0, 44.4860
29.403795494, 96.390, 2003.0, 44.7549
29.430056060, 96.390, 2063.0, 45.4203
29.456316625, 96.390, 1953.0, 44.1928
29.482577191, 96.390, 1951.0, 44.1701
29.508837756, 96.390, 2062.0, 45.4093
29.535098321, 96.390, 2001.0, 44.7325
29.561358887, 96.390, 1964.0, 44.3170
29.587619452, 96.390, 2010.0, 44.8330
29.613880017, 96.390, 1972.0, 44.4072
29.640140583, 96.390, 2068.0, 45.4753
29.666401148, 96.390, 1995.0, 44.6654
29.692661713, 96.390, 1957.0, 44.2380
29.718922279, 96.390, 1949.0, 44.1475
29.745182844, 96.390, 2041.0, 45.1774
29.771443409, 96.390, 1934.0, 43.9773
29.797703975, 96.390, 1989.0, 44.5982
29.823964540, 96.390, 1972.0, 44.4072
29.850225105, 96.390, 2002.0, 44.7437
29.876485671, 96.390, 1982.0, 44.5197
29.902746236, 96.390, 1939.0, 44.0341
29.929006802, 96.390, 1935.0, 43.9886
29.955267367, 96.390, 1918.0, 43.7950
29.981527932, 96.390, 1930.0, 43.9318
30.007788498, 96.390, 1907.0, 43.6692
30.034049063, 96.390, 1906.0, 43.6578
30.060309628, 96.390, 1959.0, 44.2606
30.086570194, 96.390, 1952.0, 44.1814
30.112830759, 96.390, 1950.0, 44.1588
30.139091324, 96.390, 2004.0, 44.7661
30.165351890, 96.390, 1872.0, 43.2666
30.191612455, 96.390, 1894.0, 43.5201
30.217873020, 96.390, 1976.0, 44.4522
30.244133586, 96.390, 1938.0, 44.0227
30.270394151, 96.390, 1947.0, 44.1248
30.296654717, 96.390, 1929.0, 43.9204
30.322915282, 96.390, 1894.0, 43.5201
30.349175847, 96.390, 1849.0, 43.0000
30.375436413, 96.390, 1919.0, 43.8064
30.401696978, 96.390, 1954.0, 44.2041
30.427957543, 96.390, 1809.0, 42.5323
30.454218109, 96.390, 1859.0, 43.1161
30.480478674, 96.390, 1959.0, 44.2606
30.506739239, 96.390, 1895.0, 43.5316
30.532999805, 96.390, 1911.0, 43.7150
30.559260370, 96.390, 1897.0, 43.5546
30.585520935, 96.390, 1888.0, 43.4511
30.611781501, 96.390, 1875.0, 43.3013
30.638042066, 96.390, 1876.0, 43.3128
30.664302631, 96.390, 1933.0, 43.9659
30.690563197, 96.390, 1863.0, 43.1625
30.716823762, 96.390, 1859.0, 43.1161
30.743084328, 96.390, 1829.0, 42.7668
30.769344893, 96.390, 1828.0, 42.7551
30.795605458, 96.390, 1857.0, 43.0929
30.821866024, 96.390, 1822.0, 42.6849
30.848126589, 96.390, 1864.0, 43.1741
30.874387154, 96.390, 1897.0, 43.5546
30.900647720, 96.390, 1803.0, 42.4617
30.926908285, 96.390, 1902.0, 43.6119
30.953168850, 96.390, 1905.0, 43.6463
30.979429416, 96.390, 1855.0, 43.0697
31.005689981, 96.390, 1967.0, 44.3509
31.031950546, 96.390, 1846.0, 42.9651
31.058211112, 96.390, 1820.0, 42.6615
31.084471677, 96.390, 1849.0, 43.0000
31.110732243, 96.390, 1810.0, 42.5441
31.136992808, 96.390, 1872.0, 43.2666
31.163253373, 96.390, 1825.0, 42.7200
31.189513939, 96.390, 1813.0, 42.5793
31.215774504, 96.390, 1856.0, 43.0813
31.242035069, 96.390, 1832.0, 42.8019
31.268295635, 96.390, 1810.0, 42.5441
31.294556200, 96.390, 1817.0, 42.6263
31.320816765, 96.390, 1768.0, 42.0476
31.347077331, 96.390, 1827.0, 42.7434
31.373337896, 96.390, 1820.0, 42.6615
31.399598461, 96.390, 1808.0, 42.5206
31.425859027, 96.390, 1787.0, 42.2729
31.452119592, 96.390, 1848.0, 42.9884
31.478380157, 96.390, 1803.0, 42.4617
31.504640723, 96.390, 1733.0, 41.6293
31.530901288, 96.390, 1813.0, 42.5793
31.557161854, 96.390, 1824.0, 42.7083
31.583422419, 96.390, 1810.0, 42.5441
31.609682984, 96.390, 1814.0, 42.5911
31.635943550, 96.390, 1724.0, 41.5211
31.662204115, 96.390, 1784.0, 42.2374
31.688464680, 96.390, 1776.0, 42.1426
31.714725246, 96.390, 1825.0, 42.7200
31.740985811, 96.390, 1763.0, 41.9881
31.767246376, 96.390, 1687.0, 41.0731
31.793506942, 96.390, 1755.0, 41.8927
31.819767507, 96.390, 1831.0, 42.7902
31.846028072, 96.390, 1668.0, 40.8412
31.872288638, 96.390, 1738.0, 41.6893
31.898549203, 96.390, 1698.0, 41.2068
31.924809769, 96.390, 1745.0, 41.7732
31.951070334, 96.390, 1776.0, 42.1426
31.977330899, 96.390, 1785.0, 42.2493
32.003591465, 96.390, 1725.0, 41.5331
32.029852030, 96.390, 1850.0, 43.0116
32.056112595, 96.390, 1726.0, 41.5452
32.082373161, 96.390, 1699.0, 41.2189
32.108633726, 96.390, 1750.0, 41.8330
32.134894291, 96.390, 1699.0, 41.2189
32.161154857, 96.390, 1804.0, 42.4735
32.187415422, 96.390, 1711.0, 41.3642
32.213675987, 96.390, 1731.0, 41.6053
32.239936553, 96.390, 1717.0, 41.4367
32.266197118, 96.390, 1703.0, 41.2674
32.292457683, 96.390, 1745.0, 41.7732
32.318718249, 96.390, 1667.0, 40.8289
32.344978814, 96.390, 1702.0, 41.2553
32.371239380, 96.390, 1702.0, 41.2553
32.397499945, 96.390, 1689.0, 41.0974
32.423760510, 96.390, 1754.0, 41.8808
32.450021076, 96.390, 1697.0, 41.1947
32.476281641, 96.390, 1733.0, 41.6293
32.502542206, 96.390, 1687.0, 41.0731
32.528802772, 96.390, 1645.0, 40.5586
32.555063337, 96.390, 1691.0, 41.1218
32.581323902, 96.390, 1721.0, 41.4849
32.607584468, 96.390, 1694.0, 41.1582
32.633845033, 96.390, 1718.0, 41.4488
32.660105598, 96.390, 1731.0, 41.6053
32.686366164, 96.390, 1743.0, 41.7493
32.712626729, 96.390, 1702.0, 41.2553
32.738887295, 96.390, 1741.0, 41.7253
32.765147860, 96.390, 1721.0, 41.4849
32.791408425, 96.390, 1697.0, 41.1947
32.817668991, 96.390, 1662.0, 40.7676
32.843929556, 96.390, 1701.0, 41.2432
32.870190121, 96.390, 1727.0, 41.5572
32.896450687, 96.390, 1639.0, 40.4846
32.922711252, 96.390, 1737.0, 41.6773
32.948971817, 96.390, 1707.0, 41.3159
32.975232383, 96.390, 1686.0, 41.0609
33.001492948, 96.390, 1710.0, 41.3521
33.027753513, 96.390, 1698.0, 41.2068
33.054014079, 96.390, 1645.0, 40.5586
33.080274644, 96.390, 1698.0, 41.2068
33.106535209, 96.390, 1702.0, 41.2553
33.132795775, 96.390, 1712.0, 41.3763
33.159056340, 96.390, 1724.0, 41.5211
33.185316906, 96.390, 1669.0, 40.8534
33.211577471, 96.390, 1674.0, 40.9145
33.237838036, 96.390, 1698.0, 41.2068
33.264098602, 96.390, 1812.0, 42.5676
33.290359167, 96.390, 1687.0, 41.0731
33.316619732, 96.390, 1691.0, 41.1218
33.342880298, 96.390, 1688.0, 41.0853
33.369140863, 96.390, 1685.0, 41.0488
33.395401428, 96.390, 1731.0, 41.6053
33.421661994, 96.390, 1669.0, 40.8534
33.447922559, 96.390, 1629.0, 40.3609
33.474183124, 96.390, 1670.0, 40.8656
33.500443690, 96.390, 1712.0, 41.3763
33.526704255, 96.390, 1695.0, 41.1704
33.552964820, 96.390, 1654.0, 40.6694
33.579225386, 96.390, 1605.0, 40.0625
33.605485951, 96.390, 1710.0, 41.3521
33.631746517, 96.390, 1705.0, 41.2916
33.658007082, 96.390, 1709.0, 41.3401
33.684267647, 96.390, 1677.0, 40.9512
33.710528213, 96.390, 1790.0, 42.3084
33.736788778, 96.390, 1786.0, 42.2611
33.763049343, 96.390, 1735.0, 41.6533
33.789309909, 96.390, 1680.0, 40.9878
33.815570474, 96.390, 1734.0, 41.6413
33.841831039, 96.390, 1754.0, 41.8808
33.868091605, 96.390, 1727.0, 41.5572
33.894352170, 96.390, 1768.0, 42.0476
33.920612735, 96.390, 1747.0, 41.7971
33.946873301, 96.390, 1773.0, 42.1070
33.973133866, 96.390, 1795.0, 42.3674
33.999394432, 96.390, 1775.0, 42.1307
34.025654997, 96.390, 1772.0, 42.0951
34.051915562, 96.390, 1865.0, 43.1856
34.078176128, 96.390, 1839.0, 42.8836
34.104436693, 96.390, 1874.0, 43.2897
34.130697258, 96.390, 1871.0, 43.2551
34.156957824, 96.390, 1867.0, 43.2088
34.183218389, 96.390, 1841.0, 42.9069
34.209478954, 96.390, 1906.0, 43.6578
34.235739520, 96.390, 1893.0, 43.5086
34.262000085, 96.390, 1982.0, 44.5197
34.288260650, 96.390, 1919.0, 43.8064
34.314521216, 96.390, 1885.0, 43.4166
34.340781781, 96.390, 1910.0, 43.7035
34.367042346, 96.390, 1998.0, 44.6990
34.393302912, 96.390, 1948.0, 44.1362
34.419563477, 96.390, 1929.0, 43.9204
34.445824043, 96.390, 1924.0, 43.8634
34.472084608, 96.390, 1989.0, 44.5982
34.498345173, 96.390, 2051.0, 45.2880
34.524605739, 96.390, 2009.0, 44.8219
34.550866304, 96.390, 1988.0, 44.5870
34.577126869, 96.390, 2107.0, 45.9021
34.603387435, 96.390, 1976.0, 44.4522
34.629648000, 96.390, 2026.0, 45.0111
34.655908565, 96.390, 2031.0, 45.0666
34.682169131, 96.390, 2009.0, 44.8219
34.708429696, 96.390, 2090.0, 45.7165
34.734690261, 96.390, 2137.0, 46.2277
34.760950827, 96.390, 2198.0, 46.8828
34.787211392, 96.390, 2237.0, 47.2969
34.813471958, 96.390, 2266.0, 47.6025
34.839732523, 96.390, 2338.0, 48.3529
34.865993088, 96.390, 2433.0, 49.3254
34.892253654, 96.390, 2415.0, 49.1426
34.918514219, 96.390, 2489.0, 49.8899
34.944774784, 96.390, 2521.0, 50.2096
34.971035350, 96.390, 2408.0, 49.0714
34.997295915, 96.390, 2520.0, 50.1996
35.023556480, 96.390, 2480.0, 49.7996
35.049817046, 96.390, 2335.0, 48.3218
35.076077611, 96.390, 2484.0, 49.8397
35.102338176, 96.390, 2403.0, 49.0204
35.128598742, 96.390, 2382.0, 48.8057
35.154859307, 96.390, 2320.0, 48.1664
35.181119872, 96.390, 2237.0, 47.2969
35.207380438, 96.390, 2156.0, 46.4327
35.233641003, 96.390, 2270.0, 47.6445
35.259901569, 96.390, 2188.0, 46.7761
35.286162134, 96.390, 2150.0, 46.3681
35.312422699, 96.390, 2115.0, 45.9891
35.338683265, 96.390, 2093.0, 45.7493
35.364943830, 96.390, 2124.0, 46.0869
35.391204395, 96.390, 2038.0, 45.1442
35.417464961, 96.390, 1981.0, 44.5084
35.443725526, 96.390, 2123.0, 46.0760
35.469986091, 96.390, 2091.0, 45.7275
35.496246657, 96.390, 2046.0, 45.2327
35.522507222, 96.390, 1984.0, 44.5421
35.548767787, 96.390, 2046.0, 45.2327
35.575028353, 96.390, 2000.0, 44.7214
35.601288918, 96.390, 2053.0, 45.3100
35.627549484, 96.390, 2020.0, 44.9444
35.653810049, 96.390, 1986.0, 44.5646
35.680070614, 96.390, 2013.0, 44.8665
35.706331180, 96.390, 1970.0, 44.3847
35.732591745, 96.390, 1933.0, 43.9659
35.758852310, 96.390, 1936.0, 44.0000
35.785112876, 96.390, 1970.0, 44.3847
35.811373441, 96.390, 1915.0, 43.7607
35.837634006, 96.390, 1873.0, 43.2782
35.863894572, 96.390, 1939.0, 44.0341
35.890155137, 96.390, 1955.0, 44.2154
35.916415702, 96.390, 1884.0, 43.4051
35.942676268, 96.390, 1955.0, 44.2154
35.968936833, 96.390, 1900.0, 43.5890
35.995197398, 96.390, 1824.0, 42.7083
36.021457964, 96.390, 1886.0, 43.4281
36.047718529, 96.390, 1901.0, 43.6005
36.073979095, 96.390, 1850.0, 43.0116
36.100239660, 96.390, 1847.0, 42.9767
36.126500225, 96.390, 1917.0, 43.7836
36.152760791, 96.390, 1869.0, 43.2319
36.179021356, 96.390, 1842.0, 42.9185
36.205281921, 96.390, 1861.0, 43.1393
36.231542487, 96.390, 1861.0, 43.1393
36.257803052, 96.390, 1828.0, 42.7551
36.284063617, 96.390, 1802.0, 42.4500
36.310324183, 96.390, 1770.0, 42.0714
36.336584748, 96.390, 1831.0, 42.7902
36.362845313, 96.390, 1834.0, 42.8252
36.389105879, 96.390, 1881.0, 43.3705
36.415366444, 96.390, 1858.0, 43.1045
36.441627010, 96.390, 1785.0, 42.2493
36.467887575, 96.390, 1804.0, 42.4735
36.494148140, 96.390, 1751.0, 41.8450
36.520408706, 96.390, 1901.0, 43.6005
36.546669271, 96.390, 1729.0, 41.5812
36.572929836, 96.390, 1812.0, 42.5676
36.599190402, 96.390, 1732.0, 41.6173
36.625450967, 96.390, 1769.0, 42.0595
36.651711532, 96.390, 1771.0, 42.0833
36.677972098, 96.390, 1816.0, 42.6146
36.704232663, 96.390, 1764.0, 42.0000
36.730493228, 96.390, 1759.0, 41.9404
36.756753794, 96.390, 1704.0, 41.2795
36.783014359, 96.390, 1769.0, 42.0595
36.809274924, 96.390, 1734.0, 41.6413
36.835535490, 96.390, 1756.0, 41.9047
36.861796055, 96.390, 1776.0, 42.1426
36.888056621, 96.390, 1760.0, 41.9524
36.914317186, 96.390, 1730.0, 41.5933
36.940577751, 96.390, 1763.0, 41.9881
36.966838317, 96.390, 1757.0, 41.9166
36.993098882, 96.390, 1758.0, 41.9285
37.019359447, 96.390, 1775.0, 42.1307
37.045620013, 96.390, 1684.0, 41.0366
37.071880578, 96.390, 1729.0, 41.5812
37.098141143, 96.390, 1750.0, 41.8330
37.124401709, 96.390, 1714.0, 41.4005
37.150662274, 96.390, 1611.0, 40.1373
37.176922839, 96.390, 1712.0, 41.3763
37.203183405, 96.390, 1706.0, 41.3038
37.229443970, 96.390, 1636.0, 40.4475
37.255704535, 96.390, 1716.0, 41.4246
37.281965101, 96.390, 1674.0, 40.9145
37.308225666, 96.390, 1706.0, 41.3038
37.334486232, 96.390, 1737.0, 41.6773
37.360746797, 96.390, 1595.0, 39.9375
37.387007362, 96.390, 1662.0, 40.7676
37.413267928, 96.390, 1649.0, 40.6079
37.439528493, 96.390, 1689.0, 41.0974
37.465789058, 96.390, 1796.0, 42.3792
37.492049624, 96.390, 1710.0, 41.3521
37.518310189, 96.390, 1658.0, 40.7185
37.544570754, 96.390, 1654.0, 40.6694
37.570831320, 96.390, 1709.0, 41.3401
37.597091885, 96.390, 1638.0, 40.4722
37.623352450, 96.390, 1654.0, 40.6694
37.649613016, 96.390, 1658.0, 40.7185
37.675873581, 96.390, 1626.0, 40.3237
37.702134147, 96.390, 1680.0, 40.9878
37.728394712, 96.390, 1594.0, 39.9249
37.754655277, 96.390, 1713.0, 41.3884
37.780915843, 96.390, 1689.0, 41.0974
37.807176408, 96.390, 1654.0, 40.6694
37.833436973, 96.390, 1715.0, 41.4126
37.859697539, 96.390, 1561.0, 39.5095
37.885958104, 96.390, 1642.0, 40.5216
37.912218669, 96.390, 1671.0, 40.8779
37.938479235, 96.390, 1646.0, 40.5709
37.964739800, 96.390, 1665.0, 40.8044
37.991000365, 96.390, 1677.0, 40.9512
38.017260931, 96.390, 1611.0, 40.1373
38.043521496, 96.390, 1641.0, 40.5093
38.069782061, 96.390, 1661.0, 40.7554
38.096042627, 96.390, 1618.0, 40.2244
38.122303192, 96.390, 1570.0, 39.6232
38.148563758, 96.390, 1603.0, 40.0375
38.174824323, 96.390, 1644.0, 40.5463
38.201084888, 96.390, 1576.0, 39.6989
38.227345454, 96.390, 1627.0, 40.3361
38.253606019, 96.390, 1608.0, 40.0999
38.279866584, 96.390, 1626.0, 40.3237
38.306127150, 96.390, 1609.0, 40.1123
38.332387715, 96.390, 1592.0, 39.8999
38.358648280, 96.390, 1619.0, 40.2368
38.384908846, 96.390, 1541.0, 39.2556
38.411169411, 96.390, 1642.0, 40.5216
38.437429976, 96.390, 1590.0, 39.8748
38.463690542, 96.390, 1626.0, 40.3237
38.489951107, 96.390, 1635.0, 40.4351
38.516211673, 96.390, 1595.0, 39.9375
38.542472238, 96.390, 1583.0, 39.7869
38.568732803, 96.390, 1582.0, 39.7744
38.594993369, 96.390, 1602.0, 40.0250
38.621253934, 96.390, 1612.0, 40.1497
38.647514499, 96.390, 1564.0, 39.5474
38.673775065, 96.390, 1631.0, 40.3856
38.700035630, 96.390, 1606.0, 40.0749
38.726296195, 96.390, 1543.0, 39.2810
38.752556761, 96.390, 1601.0, 40.0125
38.778817326, 96.390, 1612.0, 40.1497
38.805077891, 96.390, 1578.0, 39.7240
38.831338457, 96.390, 1635.0, 40.4351
38.857599022, 96.390, 1579.0, 39.7366
38.883859587, 96.390, 1644.0, 40.5463
38.910120153, 96.390, 1675.0, 40.9268
38.936380718, 96.390, 1527.0, 39.0768
38.962641284, 96.390, 1629.0, 40.3609
38.988901849, 96.390, 1667.0, 40.8289
39.015162414, 96.390, 1660.0, 40.7431
39.041422980, 96.390, 1631.0, 40.3856
39.067683545, 96.390, 1698.0, 41.2068
39.093944110, 96.390, 1612.0, 40.1497
39.120204676, 96.390, 1658.0, 40.7185
39.146465241, 96.390, 1669.0, 40.8534
39.172725806, 96.390, 1650.0, 40.6202
39.198986372, 96.390, 1695.0, 41.1704
39.225246937, 96.390, 1683.0, 41.0244
39.251507502, 96.390, 1684.0, 41.0366
39.277768068, 96.390, 1657.0, 40.7063
39.304028633, 96.390, 1657.0, 40.7063
39.330289199, 96.390, 1701.0, 41.2432
39.356549764, 96.390, 1742.0, 41.7373
39.382810329, 96.390, 1723.0, 41.5090
39.409070895, 96.390, 1806.0, 42.4971
39.435331460, 96.390, 1753.0, 41.8688
39.461592025, 96.390, 1829.0, 42.7668
39.487852591, 96.390, 1793.0, 42.3438
39.514113156, 96.390, 1769.0, 42.0595
39.540373721, 96.390, 1882.0, 43.3820
39.566634287, 96.390, 1770.0, 42.0714
39.592894852, 96.390, 1804.0, 42.4735
39.619155417, 96.390, 1782.0, 42.2137
39.645415983, 96.390, 1768.0, 42.0476
39.671676548, 96.390, 1747.0, 41.7971
39.697937113, 96.390, 1761.0, 41.9643
39.724197679, 96.390, 1753.0, 41.8688
39.750458244, 96.390, 1658.0, 40.7185
39.776718810, 96.390, 1633.0, 40.4104
39.802979375, 96.390, 1632.0, 40.3980
39.829239940, 96.390, 1593.0, 39.9124
39.855500506, 96.390, 1578.0, 39.7240
39.881761071, 96.390, 1570.0, 39.6232
39.908021636, 96.390, 1642.0, 40.5216
39.934282202, 96.390, 1627.0, 40.3361
39.960542767, 96.390, 1523.0, 39.0256
39.986803332, 96.390, 1558.0, 39.4715
40.013063898, 96.390, 1558.0, 39.4715
40.039324463, 96.390, 1490.0, 38.6005
40.065585028, 96.390, 1595.0, 39.9375
40.091845594, 96.390, 1446.0, 38.0263
40.118106159, 96.390, 1562.0, 39.5221
40.144366725, 96.390, 1547.0, 39.3319
40.170627290, 96.390, 1425.0, 37.7492
40.196887855, 96.390, 1496.0, 38.6782
40.223148421, 96.390, 1450.0, 38.0789
40.249408986, 96.390, 1467.0, 38.3014
40.275669551, 96.390, 1433.0, 37.8550
40.301930117, 96.390, 1456.0, 38.1576
40.328190682, 96.390, 1507.0, 38.8201
40.354451247, 96.390, 1487.0, 38.5616
40.380711813, 96.390, 1517.0, 38.9487
40.406972378, 96.390, 1390.0, 37.2827
40.433232943, 96.390, 1453.0, 38.1182
40.459493509, 96.390, 1394.0, 37.3363
40.485754074, 96.390, 1333.0, 36.5103
40.512014639, 96.390, 1424.0, 37.7359
40.538275205, 96.390, 1427.0, 37.7757
40.564535770, 96.390, 1429.0, 37.8021
40.590796336, 96.390, 1417.0, 37.6431
40.617056901, 96.390, 1400.0, 37.4166
40.643317466, 96.390, 1403.0, 37.4566
40.669578032, 96.390, 1446.0, 38.0263
40.695838597, 96.390, 1379.0, 37.1349
40.722099162, 96.390, 1379.0, 37.1349
40.748359728, 96.390, 1373.0, 37.0540
40.774620293, 96.390, 1450.0, 38.0789
40.800880858, 96.390, 1358.0, 36.8511
40.827141424, 96.390, 1429.0, 37.8021
40.853401989, 96.390, 1411.0, 37.5633
40.879662554, 96.390, 1394.0, 37.3363
40.905923120, 96.390, 1362.0, 36.9053
40.932183685, 96.390, 1368.0, 36.9865
40.958444251, 96.390, 1370.0, 37.0135
40.984704816, 96.390, 1347.0, 36.7015
41.010965381, 96.390, 1374.0, 37.0675
41.037225947, 96.390, 1350.0, 36.7423
41.063486512, 96.390, 1336.0, 36.5513
41.089747077, 96.390, 1351.0, 36.7560
41.116007643, 96.390, 1413.0, 37.5899
41.142268208, 96.390, 1334.0, 36.5240
41.168528773, 96.390, 1366.0, 36.9594
41.194789339, 96.390, 1386.0, 37.2290
41.221049904, 96.390, 1376.0, 37.0945
41.247310469, 96.390, 1316.0, 36.2767
41.273571035, 96.390, 1409.0, 37.5366
41.299831600, 96.390, 1360.0, 36.8782
41.326092165, 96.390, 1318.0, 36.3043
41.352352731, 96.390, 1348.0, 36.7151
41.378613296, 96.390, 1329.0, 36.4555
41.404873862, 96.390, 1327.0, 36.4280
41.431134427, 96.390, 1323.0, 36.3731
41.457394992, 96.390, 1347.0, 36.7015
41.483655558, 96.390, 1379.0, 37.1349
41.509916123, 96.390, 1324.0, 36.3868
41.536176688, 96.390, 1390.0, 37.2827
41.562437254, 96.390, 1369.0, 37.0000
41.588697819, 96.390, 1387.0, 37.2424
41.614958384, 96.390, 1415.0, 37.6165
41.641218950, 96.390, 1285.0, 35.8469
41.667479515, 96.390, 1401.0, 37.4299
41.693740080, 96.390, 1344.0, 36.6606
41.720000646, 96.390, 1320.0, 36.3318
41.746261211, 96.390, 1396.0, 37.3631
41.772521776, 96.390, 1378.0, 37.1214
41.798782342, 96.390, 1259.0, 35.4824
41.825042907, 96.390, 1267.0, 35.5949
41.851303473, 96.390, 1289.0, 35.9026
41.877564038, 96.390, 1294.0, 35.9722
41.903824603, 96.390, 1334.0, 36.5240
41.930085169, 96.390, 1212.0, 34.8138
41.956345734, 96.390, 1296.0, 36.0000
41.982606299, 96.390, 1265.0, 35.5668
42.008866865, 96.390, 1322.0, 36.3593
42.035127430, 96.390, 1357.0, 36.8375
42.061387995, 96.390, 1257.0, 35.4542
42.087648561, 96.390, 1259.0, 35.4824
42.113909126, 96.390, 1279.0, 35.7631
42.140169691, 96.390, 1318.0, 36.3043
42.166430257, 96.390, 1434.0, 37.8682
42.192690822, 96.390, 1248.0, 35.3270
42.218951388, 96.390, 1281.0, 35.7911
42.245211953, 96.390, 1285.0, 35.8469
42.271472518, 96.390, 1231.0, 35.0856
42.297733084, 96.390, 1344.0, 36.6606
42.323993649, 96.390, 1322.0, 36.3593
42.350254214, 96.390, 1254.0, 35.4119
42.376514780, 96.390, 1345.0, 36.6742
42.402775345, 96.390, 1378.0, 37.1214
42.429035910, 96.390, 1298.0, 36.0278
42.455296476, 96.390, 1246.0, 35.2987
42.481557041, 96.390, 1275.0, 35.7071
42.507817606, 96.390, 1320.0, 36.3318
42.534078172, 96.390, 1329.0, 36.4555
42.560338737, 96.390, 1291.0, 35.9305
42.586599302, 96.390, 1309.0, 36.1801
42.612859868, 96.390, 1257.0, 35.4542
42.639120433, 96.390, 1265.0, 35.5668
42.665380999, 96.390, 1242.0, 35.2420
42.691641564, 96.390, 1302.0, 36.0832
42.717902129, 96.390, 1388.0, 37.2559
42.744162695, 96.390, 1301.0, 36.0694
42.770423260, 96.390, 1372.0, 37.0405
42.796683825, 96.390, 1263.0, 35.5387
42.822944391, 96.390, 1321.0, 36.3456
42.849204956, 96.390, 1362.0, 36.9053
42.875465521, 96.390, 1345.0, 36.6742
42.901726087, 96.390, 1332.0, 36.4966
42.927986652, 96.390, 1290.0, 35.9166
42.954247217, 96.390, 1354.0, 36.7967
42.980507783, 96.390, 1289.0, 35.9026
43.006768348, 96.390, 1269.0, 35.6230
43.033028914, 96.390, 1357.0, 36.8375
43.059289479, 96.390, 1314.0, 36.2491
43.085550044, 96.390, 1348.0, 36.7151
43.111810610, 96.390, 1396.0, 37.3631
43.138071175, 96.390, 1320.0, 36.3318
43.164331740, 96.390, 1256.0, 35.4401
43.190592306, 96.390, 1262.0, 35.5246
43.216852871, 96.390, 1283.0, 35.8190
43.243113436, 96.390, 1256.0, 35.4401
43.269374002, 96.390, 1338.0, 36.5787
43.295634567, 96.390, 1349.0, 36.7287
43.321895132, 96.390, 1258.0, 35.4683
43.348155698, 96.390, 1267.0, 35.5949
43.374416263, 96.390, 1290.0, 35.9166
43.400676828, 96.390, 1268.0, 35.6090
43.426937394, 96.390, 1348.0, 36.7151
43.453197959, 96.390, 1223.0, 34.9714
43.479458525, 96.390, 1303.0, 36.0971
43.505719090, 96.390, 1282.0, 35.8050
43.531979655, 96.390, 1330.0, 36.4692
43.558240221, 96.390, 1326.0, 36.4143
43.584500786, 96.390, 1260.0, 35.4965
43.610761351, 96.390, 1242.0, 35.2420
43.637021917, 96.390, 1265.0, 35.5668
43.663282482, 96.390, 1279.0, 35.7631
43.689543047, 96.390, 1273.0, 35.6791
43.715803613, 96.390, 1292.0, 35.9444
43.742064178, 96.390, 1290.0, 35.9166
43.768324743, 96.390, 1261.0, 35.5106
43.794585309, 96.390, 1270.0, 35.6371
43.820845874, 96.390, 1239.0, 35.1994
43.847106440, 96.390, 1191.0, 34.5109
43.873367005, 96.390, 1287.0, 35.8748
43.899627570, 96.390, 1247.0, 35.3129
43.925888136, 96.390, 1283.0, 35.8190
43.952148701, 96.390, 1264.0, 35.5528
43.978409266, 96.390, 1351.0, 36.7560
44.004669832, 96.390, 1253.0, 35.3977
44.030930397, 96.390, 1284.0, 35.8329
44.057190962, 96.390, 1308.0, 36.1663
44.083451528, 96.390, 1247.0, 35.3129
44.109712093, 96.390, 1265.0, 35.5668
44.135972658, 96.390, 1312.0, 36.2215
44.162233224, 96.390, 1277.0, 35.7351
44.188493789, 96.390, 1276.0, 35.7211
44.214754354, 96.390, 1265.0, 35.5668
44.241014920, 96.390, 1222.0, 34.9571
44.267275485, 96.390, 1286.0, 35.8608
44.293536051, 96.390, 1278.0, 35.7491
44.319796616, 96.390, 1215.0, 34.8569
44.346057181, 96.390, 1297.0, 36.0139
44.372317747, 96.390, 1232.0, 35.0999
44.398578312, 96.390, 1250.0, 35.3553
44.424838877, 96.390, 1264.0, 35.5528
44.451099443, 96.390, 1267.0, 35.5949
44.477360008, 96.390, 1219.0, 34.9142
44.503620573, 96.390, 1294.0, 35.9722
44.529881139, 96.390, 1276.0, 35.7211
44.556141704, 96.390, 1174.0, 34.2637
44.582402269, 96.390, 1315.0, 36.2629
44.608662835, 96.390, 1254.0, 35.4119
44.634923400, 96.390, 1187.0, 34.4529
44.661183966, 96.390, 1305.0, 36.1248
44.687444531, 96.390, 1273.0, 35.6791
44.713705096, 96.390, 1223.0, 34.9714
44.739965662, 96.390, 1184.0, 34.4093
44.766226227, 96.390, 1209.0, 34.7707
44.792486792, 96.390, 1230.0, 35.0714
44.818747358, 96.390, 1297.0, 36.0139
44.845007923, 96.390, 1314.0, 36.2491
44.871268488, 96.390, 1226.0, 35.0143
44.897529054, 96.390, 1246.0, 35.2987
44.923789619, 96.390, 1237.0, 35.1710
44.950050184, 96.390, 1299.0, 36.0416
44.976310750, 96.390, 1215.0, 34.8569
45.002571315, 96.390, 1261.0, 35.5106
45.028831880, 96.390, 1265.0, 35.5668
45.055092446, 96.390, 1242.0, 35.2420
45.081353011, 96.390, 1215.0, 34.8569
45.107613577, 96.390, 1240.0, 35.2136
45.133874142, 96.390, 1239.0, 35.1994
45.160134707, 96.390, 1260.0, 35.4965
45.186395273, 96.390, 1256.0, 35.4401
45.212655838, 96.390, 1324.0, 36.3868
45.238916403, 96.390, 1226.0, 35.0143
45.265176969, 96.390, 1272.0, 35.6651
45.291437534, 96.390, 1281.0, 35.7911
45.317698099, 96.390, 1278.0, 35.7491
45.343958665, 96.390, 1237.0, 35.1710
45.370219230, 96.390, 1239.0, 35.1994
45.396479795, 96.390, 1278.0, 35.7491
45.422740361, 96.390, 1251.0, 35.3695
45.449000926, 96.390, 1302.0, 36.0832
45.475261492, 96.390, 1231.0, 35.0856
45.501522057, 96.390, 1233.0, 35.1141
45.527782622, 96.390, 1289.0, 35.9026
45.554043188, 96.390, 1248.0, 35.3270
45.580303753, 96.390, 1288.0, 35.8887
45.606564318, 96.390, 1259.0, 35.4824
45.632824884, 96.390, 1173.0, 34.2491
45.659085449, 96.390, 1206.0, 34.7275
45.685346014, 96.390, 1252.0, 35.3836
45.711606580, 96.390, 1227.0, 35.0286
45.737867145, 96.390, 1204.0, 34.6987
45.764127710, 96.390, 1249.0, 35.3412
45.790388276, 96.390, 1237.0, 35.1710
45.816648841, 96.390, 1297.0, 36.0139
45.842909406, 96.390, 1340.0, 36.6060
45.869169972, 96.390, 1257.0, 35.4542
45.895430537, 96.390, 1309.0, 36.1801
45.921691103, 96.390, 1263.0, 35.5387
45.947951668, 96.390, 1276.0, 35.7211
45.974212233, 96.390, 1323.0, 36.3731
46.000472799, 96.390, 1327.0, 36.4280
46.026733364, 96.390, 1256.0, 35.4401
46.052993929, 96.390, 1258.0, 35.4683
46.079254495, 96.390, 1281.0, 35.7911
46.105515060, 96.390, 1258.0, 35.4683
46.131775625, 96.390, 1271.0, 35.6511
46.158036191, 96.390, 1284.0, 35.8329
46.184296756, 96.390, 1214.0, 34.8425
46.210557321, 96.390, 1270.0, 35.6371
46.236817887, 96.390, 1259.0, 35.4824
46.263078452, 96.390, 1256.0, 35.4401
46.289339017, 96.390, 1219.0, 34.9142
46.315599583, 96.390, 1279.0, 35.7631
46.341860148, 96.390, 1337.0, 36.5650
46.368120714, 96.390, 1319.0, 36.3180
46.394381279, 96.390, 1273.0, 35.6791
46.420641844, 96.390, 1253.0, 35.3977
46.446902410, 96.390, 1315.0, 36.2629
46.473162975, 96.390, 1338.0, 36.5787
46.499423540, 96.390, 1306.0, 36.1386
46.525684106, 96.390, 1273.0, 35.6791
46.551944671, 96.390, 1362.0, 36.9053
46.578205236, 96.390, 1289.0, 35.9026
46.604465802, 96.390, 1307.0, 36.1525
46.630726367, 96.390, 1289.0, 35.9026
46.656986932, 96.390, 1353.0, 36.7831
46.683247498, 96.390, 1333.0, 36.5103
46.709508063, 96.390, 1387.0, 37.2424
46.735768629, 96.390, 1408.0, 37.5233
46.762029194, 96.390, 1323.0, 36.3731
46.788289759, 96.390, 1398.0, 37.3898
46.814550325, 96.390, 1395.0, 37.3497
46.840810890, 96.390, 1373.0, 37.0540
46.867071455, 96.390, 1375.0, 37.0810
46.893332021, 96.390, 1329.0, 36.4555
46.919592586, 96.390, 1409.0, 37.5366
46.945853151, 96.390, 1387.0, 37.2424
46.972113717, 96.390, 1412.0, 37.5766
46.998374282, 96.390, 1422.0, 37.7094
47.024634847, 96.390, 1424.0, 37.7359
47.050895413, 96.390, 1446.0, 38.0263
47.077155978, 96.390, 1372.0, 37.0405
47.103416543, 96.390, 1421.0, 37.6962
47.129677109, 96.390, 1356.0, 36.8239
47.155937674, 96.390, 1388.0, 37.2559
47.182198240, 96.390, 1429.0, 37.8021
47.208458805, 96.390, 1347.0, 36.7015
47.234719370, 96.390, 1380.0, 37.1484
47.260979936, 96.390, 1285.0, 35.8469
47.287240501, 96.390, 1386.0, 37.2290
47.313501066, 96.390, 1316.0, 36.2767
47.339761632, 96.390, 1349.0, 36.7287
47.366022197, 96.390, 1287.0, 35.8748
47.392282762, 96.390, 1202.0, 34.6699
47.418543328, 96.390, 1292.0, 35.9444
47.444803893, 96.390, 1215.0, 34.8569
47.471064458, 96.390, 1279.0, 35.7631
47.497325024, 96.390, 1231.0, 35.0856
47.523585589, 96.390, 1257.0, 35.4542
47.549846155, 96.390, 1214.0, 34.8425
47.576106720, 96.390, 1150.0, 33.9116
47.602367285, 96.390, 1172.0, 34.2345
47.628627851, 96.390, 1230.0, 35.0714
47.654888416, 96.390, 1194.0, 34.5543
47.681148981, 96.390, 1211.0, 34.7994
47.707409547, 96.390, 1160.0, 34.0588
47.733670112, 96.390, 1217.0, 34.8855
47.759930677, 96.390, 1218.0, 34.8999
47.786191243, 96.390, 1178.0, 34.3220
47.812451808, 96.390, 1177.0, 34.3074
47.838712373, 96.390, 1190.0, 34.4964
47.864972939, 96.390, 1106.0, 33.2566
47.891233504, 96.390, 1184.0, 34.4093
47.917494069, 96.390, 1145.0, 33.8378
47.943754635, 96.390, 1156.0, 34.0000
47.970015200, 96.390, 1080.0, 32.8634
47.996275766, 96.390, 1185.0, 34.4238
48.022536331, 96.390, 1103.0, 33.2114
48.048796896, 96.390, 1158.0, 34.0294
48.075057462, 96.390, 1148.0, 33.8821
48.101318027, 96.390, 1164.0, 34.1174
48.127578592, 96.390, 1087.0, 32.9697
48.153839158, 96.390, 1100.0, 33.1662
48.180099723, 96.390, 1132.0, 33.6452
48.206360288, 96.390, 1054.0, 32.4654
48.232620854, 96.390, 1101.0, 33.1813
48.258881419, 96.390, 1075.0, 32.7872
48.285141984, 96.390, 1155.0, 33.9853
48.311402550, 96.390, 1114.0, 33.3766
48.337663115, 96.390, 1126.0, 33.5559
48.363923681, 96.390, 1139.0, 33.7491
48.390184246, 96.390, 1120.0, 33.4664
48.416444811, 96.390, 1101.0, 33.1813
48.442705377, 96.390, 1097.0, 33.1210
48.468965942, 96.390, 1072.0, 32.7414
48.495226507, 96.390, 1039.0, 32.2335
48.521487073, 96.390, 1072.0, 32.7414
48.547747638, 96.390, 1131.0, 33.6303
48.574008203, 96.390, 1066.0, 32.6497
48.600268769, 96.390, 1069.0, 32.6956
48.626529334, 96.390, 1133.0, 33.6601
48.652789899, 96.390, 1093.0, 33.0606
48.679050465, 96.390, 1085.0, 32.9393
48.705311030, 96.390, 1096.0, 33.1059
48.731571595, 96.390, 1179.0, 34.3366
48.757832161, 96.390, 1059.0, 32.5423
48.784092726, 96.390, 1020.0, 31.9374
48.810353292, 96.390, 1053.0, 32.4500
48.836613857, 96.390, 1047.0, 32.3574
48.862874422, 96.390, 1069.0, 32.6956
48.889134988, 96.390, 1137.0, 33.7194
48.915395553, 96.390, 1053.0, 32.4500
48.941656118, 96.390, 1039.0, 32.2335
48.967916684, 96.390, 1094.0, 33.0757
48.994177249, 96.390, 1065.0, 32.6343
49.020437814, 96.390, 1050.0, 32.4037
49.046698380, 96.390, 1078.0, 32.8329
49.072958945, 96.390, 1030.0, 32.0936
49.099219510, 96.390, 1035.0, 32.1714
49.125480076, 96.390, 1064.0, 32.6190
49.151740641, 96.390, 1078.0, 32.8329
49.178001207, 96.390, 1078.0, 32.8329
49.204261772, 96.390, 1082.0, 32.8938
49.230522337, 96.390, 966.0, 31.0805
49.256782903, 96.390, 1010.0, 31.7805
49.283043468, 96.390, 1092.0, 33.0454
49.309304033, 96.390, 1019.0, 31.9218
49.335564599, 96.390, 1069.0, 32.6956
49.361825164, 96.390, 1004.0, 31.6860
49.388085729, 96.390, 1053.0, 32.4500
49.414346295, 96.390, 1027.0, 32.0468
49.440606860, 96.390, 1037.0, 32.2025
49.466867425, 96.390, 984.0, 31.3688
49.493127991, 96.390, 982.0, 31.3369
49.519388556, 96.390, 994.0, 31.5278
49.545649121, 96.390, 969.0, 31.1288
49.571909687, 96.390, 1009.0, 31.7648
49.598170252, 96.390, 1009.0, 31.7648
49.624430818, 96.390, 1046.0, 32.3419
49.650691383, 96.390, 1026.0, 32.0312
49.676951948, 96.390, 1151.0, 33.9264
49.703212514, 96.390, 1028.0, 32.0624
49.729473079, 96.390, 1026.0, 32.0312
49.755733644, 96.390, 1038.0, 32.2180
49.781994210, 96.390, 1015.0, 31.8591
49.808254775, 96.390, 1023.0, 31.9844
49.834515340, 96.390, 1058.0, 32.5269
49.860775906, 96.390, 1066.0, 32.6497
49.887036471, 96.390, 1078.0, 32.8329
49.913297036, 96.390, 1020.0, 31.9374
49.939557602, 96.390, 1013.0, 31.8277
49.965818167, 96.390, 985.0, 31.3847
49.992078732, 96.390, 1009.0, 31.7648
50.018339298, 96.390, 962.0, 31.0161
50.044599863, 96.390, 1039.0, 32.2335
50.070860429, 96.390, 1001.0, 31.6386
50.097120994, 96.390, 1022.0, 31.9687
50.123381559, 96.390, 1003.0, 31.6702
50.149642125, 96.390, 999.0, 31.6070
50.175902690, 96.390, 965.0, 31.0644
50.202163255, 96.390, 1005.0, 31.7017
50.228423821, 96.390, 1007.0, 31.7333
50.254684386, 96.390, 973.0, 31.1929
50.280944951, 96.390, 991.0, 31.4802
50.307205517, 96.390, 1050.0, 32.4037
50.333466082, 96.390, 1023.0, 31.9844
50.359726647, 96.390, 982.0, 31.3369
50.385987213, 96.390, 996.0, 31.5595
50.412247778, 96.390, 916.0, 30.2655
50.438508344, 96.390, 1023.0, 31.9844
50.464768909, 96.390, 1025.0, 32.0156
50.491029474, 96.390, 1051.0, 32.4191
50.517290040, 96.390, 1029.0, 32.0780
50.543550605, 96.390, 959.0, 30.9677
50.569811170, 96.390, 999.0, 31.6070
50.596071736, 96.390, 947.0, 30.7734
50.622332301, 96.390, 1022.0, 31.9687
50.648592866, 96.390, 1000.0, 31.6228
50.674853432, 96.390, 1009.0, 31.7648
50.701113997, 96.390, 958.0, 30.9516
50.727374562, 96.390, 1008.0, 31.7490
50.753635128, 96.390, 1010.0, 31.7805
50.779895693, 96.390, 1014.0, 31.8434
50.806156258, 96.390, 963.0, 31.0322
50.832416824, 96.390, 962.0, 31.0161
50.858677389, 96.390, 917.0, 30.2820
50.884937955, 96.390, 951.0, 30.8383
50.911198520, 96.390, 996.0, 31.5595
50.937459085, 96.390, 958.0, 30.9516
50.963719651, 96.390, 961.0, 31.0000
50.989980216, 96.390, 965.0, 31.0644
51.016240781, 96.390, 971.0, 31.1609
51.042501347, 96.390, 938.0, 30.6268
51.068761912, 96.390, 970.0, 31.1448
51.095022477, 96.390, 953.0, 30.8707
51.121283043, 96.390, 972.0, 31.1769
51.147543608, 96.390, 1011.0, 31.7962
51.173804173, 96.390, 968.0, 31.1127
51.200064739, 96.390, 998.0, 31.5911
51.226325304, 96.390, 955.0, 30.9031
51.252585870, 96.390, 944.0, 30.7246
51.278846435, 96.390, 956.0, 30.9192
51.305107000, 96.390, 974.0, 31.2090
51.331367566, 96.390, 987.0, 31.4166
51.357628131, 96.390, 935.0, 30.5778
51.383888696, 96.390, 930.0, 30.4959
51.410149262, 96.390, 891.0, 29.8496
51.436409827, 96.390, 956.0, 30.9192
51.462670392, 96.390, 934.0, 30.5614
51.488930958, 96.390, 970.0, 31.1448
51.515191523, 96.390, 935.0, 30.5778
51.541452088, 96.390, 959.0, 30.9677
51.567712654, 96.390, 941.0, 30.6757
51.593973219, 96.390, 1015.0, 31.8591
51.620233784, 96.390, 931.0, 30.5123
51.646494350, 96.390, 921.0, 30.3480
51.672754915, 96.390, 954.0, 30.8869
51.699015481, 96.390, 950.0, 30.8221
51.725276046, 96.390, 936.0, 30.5941
51.751536611, 96.390, 977.0, 31.2570
51.777797177, 96.390, 885.0, 29.7489
51.804057742, 96.390, 943.0, 30.7083
51.830318307, 96.390, 945.0, 30.7409
51.856578873, 96.390, 930.0, 30.4959
51.882839438, 96.390, 925.0, 30.4138
51.909100003, 96.390, 966.0, 31.0805
51.935360569, 96.390, 958.0, 30.9516
51.961621134, 96.390, 895.0, 29.9166
51.987881699, 96.390, 885.0, 29.7489
52.014142265, 96.390, 921.0, 30.3480
52.040402830, 96.390, 975.0, 31.2250
52.066663396, 96.390, 1000.0, 31.6228
52.092923961, 96.390, 938.0, 30.6268
52.119184526, 96.390, 949.0, 30.8058
52.145445092, 96.390, 983.0, 31.3528
52.171705657, 96.390, 925.0, 30.4138
52.197966222, 96.390, 949.0, 30.8058
52.224226788, 96.390, 902.0, 30.0333
52.250487353, 96.390, 907.0, 30.1164
52.276747918, 96.390, 920.0, 30.3315
52.303008484, 96.390, 953.0, 30.8707
52.329269049, 96.390, 962.0, 31.0161
52.355529614, 96.390, 940.0, 30.6594
52.381790180, 96.390, 898.0, 29.9666
52.408050745, 96.390, 926.0, 30.4302
52.434311310, 96.390, 886.0, 29.7658
52.460571876, 96.390, 962.0, 31.0161
52.486832441, 96.390, 969.0, 31.1288
52.513093007, 96.390, 924.0, 30.3974
52.539353572, 96.390, 927.0, 30.4467
52.565614137, 96.390, 951.0, 30.8383
52.591874703, 96.390, 985.0, 31.3847
52.618135268, 96.390, 852.0, 29.1890
52.644395833, 96.390, 971.0, 31.1609
52.670656399, 96.390, 966.0, 31.0805
52.696916964, 96.390, 959.0, 30.9677
52.723177529, 96.390, 910.0, 30.1662
52.749438095, 96.390, 946.0, 30.7571
52.775698660, 96.390, 957.0, 30.9354
52.801959225, 96.390, 927.0, 30.4467
52.828219791, 96.390, 946.0, 30.7571
52.854480356, 96.390, 948.0, 30.7896
52.880740922, 96.390, 917.0, 30.2820
52.907001487, 96.390, 951.0, 30.8383
52.933262052, 96.390, 937.0, 30.6105
52.959522618, 96.390, 918.0, 30.2985
52.985783183, 96.390, 926.0, 30.4302
53.012043748, 96.390, 957.0, 30.9354
53.038304314, 96.390, 927.0, 30.4467
53.064564879, 96.390, 962.0, 31.0161
53.090825444, 96.390, 938.0, 30.6268
53.117086010, 96.390, 977.0, 31.2570
53.143346575, 96.390, 893.0, 29.8831
53.169607140, 96.390, 927.0, 30.4467
53.195867706, 96.390, 896.0, 29.9333
53.222128271, 96.390, 948.0, 30.7896
53.248388836, 96.390, 976.0, 31.2410
53.274649402, 96.390, 938.0, 30.6268
53.300909967, 96.390, 967.0, 31.0966
53.327170533, 96.390, 916.0, 30.2655
53.353431098, 96.390, 899.0, 29.9833
53.379691663, 96.390, 906.0, 30.0998
53.405952229, 96.390, 992.0, 31.4960
53.432212794, 96.390, 958.0, 30.9516
53.458473359, 96.390, 980.0, 31.3050
53.484733925, 96.390, 959.0, 30.9677
53.510994490, 96.390, 880.0, 29.6648
53.537255055, 96.390, 902.0, 30.0333
53.563515621, 96.390, 922.0, 30.3645
53.589776186, 96.390, 846.0, 29.0861
53.616036751, 96.390, 901.0, 30.0167
53.642297317, 96.390, 946.0, 30.7571
53.668557882, 96.390, 894.0, 29.8998
53.694818448, 96.390, 876.0, 29.5973
53.721079013, 96.390, 885.0, 29.7489
53.747339578, 96.390, 908.0, 30.1330
53.773600144, 96.390, 885.0, 29.7489
53.799860709, 96.390, 890.0, 29.8329
53.826121274, 96.390, 931.0, 30.5123
53.852381840, 96.390, 889.0, 29.8161
53.878642405, 96.390, 886.0, 29.7658
53.904902970, 96.390, 849.0, 29.1376
53.931163536, 96.390, 890.0, 29.8329
53.957424101, 96.390, 961.0, 31.0000
53.983684666, 96.390, 916.0, 30.2655
54.009945232, 96.390, 892.0, 29.8664
54.036205797, 96.390, 938.0, 30.6268
54.062466362, 96.390, 883.0, 29.7153
54.088726928, 96.390, 888.0, 29.7993
54.114987493, 96.390, 876.0, 29.5973
54.141248059, 96.390, 867.0, 29.4449
54.167508624, 96.390, 865.0, 29.4109
54.193769189, 96.390, 958.0, 30.9516
54.220029755, 96.390, 892.0, 29.8664
54.246290320, 96.390, 829.0, 28.7924
54.272550885, 96.390, 889.0, 29.8161
54.298811451, 96.390, 878.0, 29.6311
54.325072016, 96.390, 921.0, 30.3480
54.351332581, 96.390, 861.0, 29.3428
54.377593147, 96.390, 882.0, 29.6985
54.403853712, 96.390, 898.0, 29.9666
54.430114277, 96.390, 916.0, 30.2655
54.456374843, 96.390, 899.0, 29.9833
54.482635408, 96.390, 894.0, 29.8998
54.508895973, 96.390, 948.0, 30.7896
54.535156539, 96.390, 802.0, 28.3196
54.561417104, 96.390, 843.0, 29.0345
54.587677670, 96.390, 879.0, 29.6479
54.613938235, 96.390, 821.0, 28.6531
54.640198800, 96.390, 860.0, 29.3258
54.666459366, 96.390, 911.0, 30.1828
54.692719931, 96.390, 868.0, 29.4618
54.718980496, 96.390, 862.0, 29.3598
54.745241062, 96.390, 878.0, 29.6311
54.771501627, 96.390, 886.0, 29.7658
54.797762192, 96.390, 936.0, 30.5941
54.824022758, 96.390, 887.0, 29.7825
54.850283323, 96.390, 850.0, 29.1548
54.876543888, 96.390, 878.0, 29.6311
54.902804454, 96.390, 872.0, 29.5296
54.929065019, 96.390, 799.0, 28.2666
54.955325585, 96.390, 901.0, 30.0167
54.981586150, 96.390, 923.0, 30.3809
55.007846715, 96.390, 863.0, 29.3769
55.034107281, 96.390, 872.0, 29.5296
55.060367846, 96.390, 877.0, 29.6142
55.086628411, 96.390, 860.0, 29.3258
55.112888977, 96.390, 914.0, 30.2324
55.139149542, 96.390, 866.0, 29.4279
55.165410107, 96.390, 862.0, 29.3598
55.191670673, 96.390, 869.0, 29.4788
55.217931238, 96.390, 891.0, 29.8496
55.244191803, 96.390, 855.0, 29.2404
55.270452369, 96.390, 833.0, 28.8617
55.296712934, 96.390, 841.0, 29.0000
55.322973499, 96.390, 906.0, 30.0998
55.349234065, 96.390, 869.0, 29.4788
55.375494630, 96.390, 831.0, 28.8271
55.401755196, 96.390, 853.0, 29.2062
55.428015761, 96.390, 835.0, 28.8964
55.454276326, 96.390, 889.0, 29.8161
55.480536892, 96.390, 868.0, 29.4618
55.506797457, 96.390, 888.0, 29.7993
55.533058022, 96.390, 819.0, 28.6182
55.559318588, 96.390, 885.0, 29.7489
55.585579153, 96.390, 929.0, 30.4795
55.611839718, 96.390, 900.0, 30.0000
55.638100284, 96.390, 930.0, 30.4959
55.664360849, 96.390, 835.0, 28.8964
55.690621414, 96.390, 899.0, 29.9833
55.716881980, 96.390, 899.0, 29.9833
55.743142545, 96.390, 888.0, 29.7993
55.769403111, 96.390, 839.0, 28.9655
55.795663676, 96.390, 832.0, 28.8444
55.821924241, 96.390, 838.0, 28.9482
55.848184807, 96.390, 854.0, 29.2233
55.874445372, 96.390, 860.0, 29.3258
55.900705937, 96.390, 857.0, 29.2746
55.926966503, 96.390, 939.0, 30.6431
55.953227068, 96.390, 881.0, 29.6816
55.979487633, 96.390, 879.0, 29.6479
56.005748199, 96.390, 882.0, 29.6985
56.032008764, 96.390, 856.0, 29.2575
56.058269329, 96.390, 854.0, 29.2233
56.084529895, 96.390, 864.0, 29.3939
56.110790460, 96.390, 882.0, 29.6985
56.137051025, 96.390, 893.0, 29.8831
56.163311591, 96.390, 859.0, 29.3087
56.189572156, 96.390, 866.0, 29.4279
56.215832722, 96.390, 836.0, 28.9137
56.242093287, 96.390, 891.0, 29.8496
56.268353852, 96.390, 879.0, 29.6479
56.294614418, 96.390, 910.0, 30.1662
56.320874983, 96.390, 919.0, 30.3150
56.347135548, 96.390, 839.0, 28.9655
56.373396114, 96.390, 897.0, 29.9500
56.399656679, 96.390, 874.0, 29.5635
56.425917244, 96.390, 821.0, 28.6531
56.452177810, 96.390, 862.0, 29.3598
56.478438375, 96.390, 889.0, 29.8161
56.504698940, 96.390, 896.0, 29.9333
56.530959506, 96.390, 886.0, 29.7658
56.557220071, 96.390, 873.0, 29.5466
56.583480637, 96.390, 910.0, 30.1662
56.609741202, 96.390, 897.0, 29.9500
56.636001767, 96.390, 891.0, 29.8496
56.662262333, 96.390, 841.0, 29.0000
56.688522898, 96.390, 827.0, 28.7576
56.714783463, 96.390, 876.0, 29.5973
56.741044029, 96.390, 924.0, 30.3974
56.767304594, 96.390, 892.0, 29.8664
56.793565159, 96.390, 848.0, 29.1204
56.819825725, 96.390, 856.0, 29.2575
56.846086290, 96.390, 915.0, 30.2490
56.872346855, 96.390, 838.0, 28.9482
56.898607421, 96.390, 920.0, 30.3315
56.924867986, 96.390, 884.0, 29.7321
56.951128551, 96.390, 905.0, 30.0832
56.977389117, 96.390, 849.0, 29.1376
57.003649682, 96.390, 836.0, 28.9137
57.029910248, 96.390, 891.0, 29.8496
57.056170813, 96.390, 872.0, 29.5296
57.082431378, 96.390, 862.0, 29.3598
57.108691944, 96.390, 938.0, 30.6268
57.134952509, 96.390, 854.0, 29.2233
57.161213074, 96.390, 762.0, 27.6043
57.187473640, 96.390, 895.0, 29.9166
57.213734205, 96.390, 823.0, 28.6880
57.239994770, 96.390, 880.0, 29.6648
57.266255336, 96.390, 863.0, 29.3769
57.292515901, 96.390, 865.0, 29.4109
57.318776466, 96.390, 823.0, 28.6880
57.345037032, 96.390, 847.0, 29.1033
57.371297597, 96.390, 829.0, 28.7924
57.397558163, 96.390, 882.0, 29.6985
57.423818728, 96.390, 851.0, 29.1719
57.450079293, 96.390, 873.0, 29.5466
57.476339859, 96.390, 856.0, 29.2575
57.502600424, 96.390, 892.0, 29.8664
57.528860989, 96.390, 906.0, 30.0998
57.555121555, 96.390, 901.0, 30.0167
57.581382120, 96.390, 879.0, 29.6479
57.607642685, 96.390, 829.0, 28.7924
57.633903251, 96.390, 857.0, 29.2746
57.660163816, 96.390, 850.0, 29.1548
57.686424381, 96.390, 873.0, 29.5466
57.712684947, 96.390, 880.0, 29.6648
57.738945512, 96.390, 838.0, 28.9482
57.765206077, 96.390, 861.0, 29.3428
57.791466643, 96.390, 884.0, 29.7321
57.817727208, 96.390, 836.0, 28.9137
57.843987774, 96.390, 909.0, 30.1496
57.870248339, 96.390, 857.0, 29.2746
57.896508904, 96.390, 857.0, 29.2746
57.922769470, 96.390, 854.0, 29.2233
57.949030035, 96.390, 880.0, 29.6648
57.975290600, 96.390, 877.0, 29.6142
58.001551166, 96.390, 901.0, 30.0167
58.027811731, 96.390, 881.0, 29.6816
58.054072296, 96.390, 844.0, 29.0517
58.080332862, 96.390, 830.0, 28.8097
58.106593427, 96.390, 884.0, 29.7321
58.132853992, 96.390, 846.0, 29.0861
58.159114558, 96.390, 869.0, 29.4788
58.185375123, 96.390, 859.0, 29.3087
58.211635689, 96.390, 838.0, 28.9482
58.237896254, 96.390, 855.0, 29.2404
58.264156819, 96.390, 884.0, 29.7321
58.290417385, 96.390, 910.0, 30.1662
58.316677950, 96.390, 857.0, 29.2746
58.342938515, 96.390, 830.0, 28.8097
58.369199081, 96.390, 842.0, 29.0172
58.395459646, 96.390, 854.0, 29.2233
58.421720211, 96.390, 860.0, 29.3258
58.447980777, 96.390, 844.0, 29.0517
58.474241342, 96.390, 874.0, 29.5635
58.500501907, 96.390, 901.0, 30.0167
58.526762473, 96.390, 865.0, 29.4109
58.553023038, 96.390, 862.0, 29.3598
58.579283603, 96.390, 854.0, 29.2233
58.605544169, 96.390, 877.0, 29.6142
58.631804734, 96.390, 917.0, 30.2820
58.658065300, 96.390, 860.0, 29.3258
58.684325865, 96.390, 868.0, 29.4618
58.710586430, 96.390, 906.0, 30.0998
58.736846996, 96.390, 874.0, 29.5635
58.763107561, 96.390, 877.0, 29.6142
58.789368126, 96.390, 885.0, 29.7489
58.815628692, 96.390, 896.0, 29.9333
58.841889257, 96.390, 836.0, 28.9137
58.868149822, 96.390, 935.0, 30.5778
58.894410388, 96.390, 897.0, 29.9500
58.920670953, 96.390, 900.0, 30.0000
58.946931518, 96.390, 859.0, 29.3087
58.973192084, 96.390, 907.0, 30.1164
58.999452649, 96.390, 854.0, 29.2233
59.025713214, 96.390, 920.0, 30.3315
59.051973780, 96.390, 894.0, 29.8998
59.078234345, 96.390, 885.0, 29.7489
59.104494911, 96.390, 899.0, 29.9833
59.130755476, 96.390, 884.0, 29.7321
59.157016041, 96.390, 938.0, 30.6268
59.183276607, 96.390, 919.0, 30.3150
59.209537172, 96.390, 880.0, 29.6648
59.235797737, 96.390, 926.0, 30.4302
59.262058303, 96.390, 860.0, 29.3258
59.288318868, 96.390, 944.0, 30.7246
59.314579433, 96.390, 937.0, 30.6105
59.340839999, 96.390, 915.0, 30.2490
59.367100564, 96.390, 921.0, 30.3480
59.393361129, 96.390, 978.0, 31.2730
59.419621695, 96.390, 954.0, 30.8869
59.445882260, 96.390, 949.0, 30.8058
59.472142826, 96.390, 975.0, 31.2250
59.498403391, 96.390, 939.0, 30.6431
59.524663956, 96.390, 938.0, 30.6268
59.550924522, 96.390, 968.0, 31.1127
59.577185087, 96.390, 975.0, 31.2250
59.603445652, 96.390, 948.0, 30.7896
59.629706218, 96.390, 986.0, 31.4006
59.655966783, 96.390, 980.0, 31.3050
59.682227348, 96.390, 963.0, 31.0322
59.708487914, 96.390, 983.0, 31.3528
59.734748479, 96.390, 930.0, 30.4959
59.761009044, 96.390, 966.0, 31.0805
59.787269610, 96.390, 954.0, 30.8869
59.813530175, 96.390, 916.0, 30.2655
59.839790740, 96.390, 997.0, 31.5753
59.866051306, 96.390, 942.0, 30.6920
59.892311871, 96.390, 975.0, 31.2250
59.918572437, 96.390, 1035.0, 32.1714
59.944833002, 96.390, 986.0, 31.4006
59.971093567, 96.390, 1092.0, 33.0454
59.997354133, 96.390, 961.0, 31.0000
60.023614698, 96.390, 1006.0, 31.7175
60.049875263, 96.390, 1002.0, 31.6544
60.076135829, 96.390, 1085.0, 32.9393
60.102396394, 96.390, 1079.0, 32.8481
60.128656959, 96.390, 1069.0, 32.6956
60.154917525, 96.390, 1023.0, 31.9844
60.181178090, 96.390, 1042.0, 32.2800
60.207438655, 96.390, 1055.0, 32.4808
60.233699221, 96.390, 1123.0, 33.5112
60.259959786, 96.390, 1019.0, 31.9218
60.286220352, 96.390, 1064.0, 32.6190
60.312480917, 96.390, 1022.0, 31.9687
60.338741482, 96.390, 1103.0, 33.2114
60.365002048, 96.390, 1056.0, 32.4962
60.391262613, 96.390, 1153.0, 33.9559
60.417523178, 96.390, 1199.0, 34.6266
60.443783744, 96.390, 1064.0, 32.6190
60.470044309, 96.390, 1126.0, 33.5559
60.496304874, 96.390, 1184.0, 34.4093
60.522565440, 96.390, 1162.0, 34.0881
60.548826005, 96.390, 1213.0, 34.8281
60.575086570, 96.390, 1187.0, 34.4529
60.601347136, 96.390, 1191.0, 34.5109
60.627607701, 96.390, 1241.0, 35.2278
60.653868266, 96.390, 1167.0, 34.1614
60.680128832, 96.390, 1251.0, 35.3695
60.706389397, 96.390, 1218.0, 34.8999
60.732649963, 96.390, 1243.0, 35.2562
60.758910528, 96.390, 1210.0, 34.7851
60.785171093, 96.390, 1267.0, 35.5949
60.811431659, 96.390, 1297.0, 36.0139
60.837692224, 96.390, 1273.0, 35.6791
60.863952789, 96.390, 1341.0, 36.6197
60.890213355, 96.390, 1357.0, 36.8375
60.916473920, 96.390, 1342.0, 36.6333
60.942734485, 96.390, 1418.0, 37.6563
60.968995051, 96.390, 1398.0, 37.3898
60.995255616, 96.390, 1366.0, 36.9594
61.021516181, 96.390, 1355.0, 36.8103
61.047776747, 96.390, 1379.0, 37.1349
61.074037312, 96.390, 1335.0, 36.5377
61.100297878, 96.390, 1392.0, 37.3095
61.126558443, 96.390, 1363.0, 36.9188
61.152819008, 96.390, 1327.0, 36.4280
61.179079574, 96.390, 1298.0, 36.0278
61.205340139, 96.390, 1268.0, 35.6090
61.231600704, 96.390, 1335.0, 36.5377
61.257861270, 96.390, 1292.0, 35.9444
61.284121835, 96.390, 1258.0, 35.4683
61.310382400, 96.390, 1269.0, 35.6230
61.336642966, 96.390, 1308.0, 36.1663
61.362903531, 96.390, 1236.0, 35.1568
61.389164096, 96.390, 1272.0, 35.6651
61.415424662, 96.390, 1290.0, 35.9166
61.441685227, 96.390, 1238.0, 35.1852
61.467945792, 96.390, 1273.0, 35.6791
61.494206358, 96.390, 1195.0, 34.5688
61.520466923, 96.390, 1202.0, 34.6699
61.546727489, 96.390, 1191.0, 34.5109
61.572988054, 96.390, 1138.0, 33.7343
61.599248619, 96.390, 1215.0, 34.8569
61.625509185, 96.390, 1176.0, 34.2929
61.651769750, 96.390, 1209.0, 34.7707
61.678030315, 96.390, 1228.0, 35.0428
61.704290881, 96.390, 1131.0, 33.6303
61.730551446, 96.390, 1185.0, 34.4238
61.756812011, 96.390, 1216.0, 34.8712
61.783072577, 96.390, 1149.0, 33.8969
61.809333142, 96.390, 1132.0, 33.6452
61.835593707, 96.390, 1197.0, 34.5977
61.861854273, 96.390, 1149.0, 33.8969
61.888114838, 96.390, 1168.0, 34.1760
61.914375404, 96.390, 1254.0, 35.4119
61.940635969, 96.390, 1181.0, 34.3657
61.966896534, 96.390, 1131.0, 33.6303
61.993157100, 96.390, 1170.0, 34.2053
62.019417665, 96.390, 1211.0, 34.7994
62.045678230, 96.390, 1190.0, 34.4964
62.071938796, 96.390, 1204.0, 34.6987
62.098199361, 96.390, 1195.0, 34.5688
62.124459926, 96.390, 1239.0, 35.1994
62.150720492, 96.390, 1209.0, 34.7707
62.176981057, 96.390, 1215.0, 34.8569
62.203241622, 96.390, 1184.0, 34.4093
62.229502188, 96.390, 1273.0, 35.6791
62.255762753, 96.390, 1224.0, 34.9857
62.282023318, 96.390, 1202.0, 34.6699
62.308283884, 96.390, 1324.0, 36.3868
62.334544449, 96.390, 1269.0, 35.6230
62.360805015, 96.390, 1239.0, 35.1994
62.387065580, 96.390, 1222.0, 34.9571
62.413326145, 96.390, 1206.0, 34.7275
62.439586711, 96.390, 1260.0, 35.4965
62.465847276, 96.390, 1226.0, 35.0143
62.492107841, 96.390, 1065.0, 32.6343
62.518368407, 96.390, 1112.0, 33.3467
62.544628972, 96.390, 1104.0, 33.2265
62.570889537, 96.390, 1162.0, 34.0881
62.597150103, 96.390, 1094.0, 33.0757
62.623410668, 96.390, 1138.0, 33.7343
62.649671233, 96.390, 1094.0, 33.0757
62.675931799, 96.390, 1077.0, 32.8177
62.702192364, 96.390, 980.0, 31.3050
62.728452930, 96.390, 1068.0, 32.6803
62.754713495, 96.390, 1001.0, 31.6386
62.780974060, 96.390, 1017.0, 31.8904
62.807234626, 96.390, 1033.0, 32.1403
62.833495191, 96.390, 1006.0, 31.7175
62.859755756, 96.390, 1035.0, 32.1714
62.886016322, 96.390, 944.0, 30.7246
62.912276887, 96.390, 1057.0, 32.5115
62.938537452, 96.390, 1023.0, 31.9844
62.964798018, 96.390, 1004.0, 31.6860
62.991058583, 96.390, 993.0, 31.5119
63.017319148, 96.390, 975.0, 31.2250
63.043579714, 96.390, 1024.0, 32.0000
63.069840279, 96.390, 1024.0, 32.0000
63.096100844, 96.390, 924.0, 30.3974
63.122361410, 96.390, 939.0, 30.6431
63.148621975, 96.390, 911.0, 30.1828
63.174882541, 96.390, 1017.0, 31.8904
63.201143106, 96.390, 1027.0, 32.0468
63.227403671, 96.390, 944.0, 30.7246
63.253664237, 96.390, 950.0, 30.8221
63.279924802, 96.390, 974.0, 31.2090
63.306185367, 96.390, 996.0, 31.5595
63.332445933, 96.390, 950.0, 30.8221
63.358706498, 96.390, 941.0, 30.6757
63.384967063, 96.390, 957.0, 30.9354
63.411227629, 96.390, 972.0, 31.1769
63.437488194, 96.390, 981.0, 31.3209
63.463748759, 96.390, 939.0, 30.6431
63.490009325, 96.390, 913.0, 30.2159
63.516269890, 96.390, 930.0, 30.4959
63.542530455, 96.390, 943.0, 30.7083
63.568791021, 96.390, 908.0, 30.1330
63.595051586, 96.390, 939.0, 30.6431
63.621312152, 96.390, 982.0, 31.3369
63.647572717, 96.390, 938.0, 30.6268
63.673833282, 96.390, 903.0, 30.0500
63.700093848, 96.390, 943.0, 30.7083
63.726354413, 96.390, 989.0, 31.4484
63.752614978, 96.390, 990.0, 31.4643
63.778875544, 96.390, 929.0, 30.4795
63.805136109, 96.390, 948.0, 30.7896
63.831396674, 96.390, 950.0, 30.8221
63.857657240, 96.390, 944.0, 30.7246
63.883917805, 96.390, 1001.0, 31.6386
63.910178370, 96.390, 948.0, 30.7896
63.936438936, 96.390, 981.0, 31.3209
63.962699501, 96.390, 930.0, 30.4959
63.988960067, 96.390, 940.0, 30.6594
64.015220632, 96.390, 951.0, 30.8383
64.041481197, 96.390, 924.0, 30.3974
64.067741763, 96.390, 930.0, 30.4959
64.094002328, 96.390, 951.0, 30.8383
64.120262893, 96.390, 861.0, 29.3428
64.146523459, 96.390, 941.0, 30.6757
64.172784024, 96.390, 963.0, 31.0322
64.199044589, 96.390, 903.0, 30.0500
64.225305155, 96.390, 891.0, 29.8496
64.251565720, 96.390, 897.0, 29.9500
64.277826285, 96.390, 900.0, 30.0000
64.304086851, 96.390, 917.0, 30.2820
64.330347416, 96.390, 939.0, 30.6431
64.356607981, 96.390, 927.0, 30.4467
64.382868547, 96.390, 923.0, 30.3809
64.409129112, 96.390, 936.0, 30.5941
64.435389678, 96.390, 960.0, 30.9839
64.461650243, 96.390, 918.0, 30.2985
64.487910808, 96.390, 939.0, 30.6431
64.514171374, 96.390, 916.0, 30.2655
64.540431939, 96.390, 851.0, 29.1719
64.566692504, 96.390, 841.0, 29.0000
64.592953070, 96.390, 921.0, 30.3480
64.619213635, 96.390, 911.0, 30.1828
64.645474200, 96.390, 958.0, 30.9516
64.671734766, 96.390, 912.0, 30.1993
64.697995331, 96.390, 945.0, 30.7409
64.724255896, 96.390, 908.0, 30.1330
64.750516462, 96.390, 880.0, 29.6648
64.776777027, 96.390, 936.0, 30.5941
64.803037593, 96.390, 956.0, 30.9192
64.829298158, 96.390, 894.0, 29.8998
64.855558723, 96.390, 920.0, 30.3315
64.881819289, 96.390, 919.0, 30.3150
64.908079854, 96.390, 950.0, 30.8221
64.934340419, 96.390, 920.0, 30.3315
64.960600985, 96.390, 925.0, 30.4138
64.986861550, 96.390, 876.0, 29.5973
