5.007730280 2403.0
5.033990845 2326.0
5.060251411 2391.0
5.086511976 2396.0
5.112772541 2318.0
5.139033107 2307.0
5.165293672 2313.0
5.191554237 2414.0
5.217814803 2335.0
5.244075368 2433.0
5.270335934 2474.0
5.296596499 2539.0
5.322857064 2425.0
5.349117630 2484.0
5.375378195 2540.0
5.401638760 2676.0
5.427899326 2686.0
5.454159891 2805.0
5.480420456 2881.0
5.506681022 2902.0
5.532941587 2934.0
5.559202152 3026.0
5.585462718 3175.0
5.611723283 3276.0
5.637983849 3498.0
5.664244414 3570.0
5.690504979 3764.0
5.716765545 3958.0
5.743026110 4152.0
5.769286675 4203.0
5.795547241 4183.0
5.821807806 4046.0
5.848068371 3987.0
5.874328937 3982.0
5.900589502 3827.0
5.926850067 3593.0
5.953110633 3556.0
5.979371198 3512.0
6.005631763 3519.0
6.031892329 3615.0
6.058152894 3559.0
6.084413460 3465.0
6.110674025 3420.0
6.136934590 3366.0
6.163195156 3263.0
6.189455721 3200.0
6.215716286 3193.0
6.241976852 3108.0
6.268237417 3010.0
6.294497982 2971.0
6.320758548 2921.0
6.347019113 2895.0
6.373279678 2875.0
6.399540244 2739.0
6.425800809 2773.0
6.452061375 2796.0
6.478321940 2665.0
6.504582505 2631.0
6.530843071 2698.0
6.557103636 2446.0
6.583364201 2484.0
6.609624767 2515.0
6.635885332 2409.0
6.662145897 2339.0
6.688406463 2304.0
6.714667028 2234.0
6.740927593 2205.0
6.767188159 2174.0
6.793448724 2063.0
6.819709289 2108.0
6.845969855 2153.0
6.872230420 2022.0
6.898490986 1910.0
6.924751551 1983.0
6.951012116 1891.0
6.977272682 1856.0
7.003533247 1863.0
7.029793812 1818.0
7.056054378 1870.0
7.082314943 1708.0
7.108575508 1744.0
7.134836074 1823.0
7.161096639 1776.0
7.187357204 1759.0
7.213617770 1766.0
7.239878335 1719.0
7.266138900 1759.0
7.292399466 1682.0
7.318660031 1676.0
7.344920597 1725.0
7.371181162 1671.0
7.397441727 1645.0
7.423702293 1672.0
7.449962858 1639.0
7.476223423 1664.0
7.502483989 1592.0
7.528744554 1641.0
7.555005119 1642.0
7.581265685 1628.0
7.607526250 1536.0
7.633786815 1515.0
7.660047381 1573.0
7.686307946 1568.0
7.712568512 1543.0
7.738829077 1555.0
7.765089642 1468.0
7.791350208 1520.0
7.817610773 1517.0
7.843871338 1425.0
7.870131904 1532.0
7.896392469 1540.0
7.922653034 1500.0
7.948913600 1500.0
7.975174165 1414.0
8.001434730 1526.0
8.027695296 1506.0
8.053955861 1428.0
8.080216426 1475.0
8.106476992 1356.0
8.132737557 1589.0
8.158998123 1362.0
8.185258688 1438.0
8.211519253 1389.0
8.237779819 1416.0
8.264040384 1402.0
8.290300949 1381.0
8.316561515 1310.0
8.342822080 1384.0
8.369082645 1330.0
8.395343211 1303.0
8.421603776 1324.0
8.447864341 1408.0
8.474124907 1380.0
8.500385472 1332.0
8.526646038 1307.0
8.552906603 1375.0
8.579167168 1355.0
8.605427734 1324.0
8.631688299 1294.0
8.657948864 1312.0
8.684209430 1319.0
8.710469995 1285.0
8.736730560 1326.0
8.762991126 1288.0
8.789251691 1320.0
8.815512256 1234.0
8.841772822 1253.0
8.868033387 1261.0
8.894293952 1282.0
8.920554518 1159.0
8.946815083 1209.0
8.973075649 1243.0
8.999336214 1214.0
9.025596779 1235.0
9.051857345 1269.0
9.078117910 1224.0
9.104378475 1263.0
9.130639041 1246.0
9.156899606 1257.0
9.183160171 1230.0
9.209420737 1270.0
9.235681302 1298.0
9.261941867 1226.0
9.288202433 1252.0
9.314462998 1277.0
9.340723564 1286.0
9.366984129 1247.0
9.393244694 1304.0
9.419505260 1260.0
9.445765825 1333.0
9.472026390 1295.0
9.498286956 1304.0
9.524547521 1305.0
9.550808086 1291.0
9.577068652 1379.0
9.603329217 1347.0
9.629589782 1383.0
9.655850348 1378.0
9.682110913 1479.0
9.708371478 1410.0
9.734632044 1471.0
9.760892609 1499.0
9.787153175 1501.0
9.813413740 1716.0
9.839674305 1611.0
9.865934871 1753.0
9.892195436 1872.0
9.918456001 1910.0
9.944716567 2003.0
9.970977132 2015.0
9.997237697 2040.0
10.023498263 1906.0
10.049758828 1915.0
10.076019393 1705.0
10.102279959 1633.0
10.128540524 1596.0
10.154801090 1519.0
10.181061655 1529.0
10.207322220 1488.0
10.233582786 1494.0
10.259843351 1436.0
10.286103916 1508.0
10.312364482 1494.0
10.338625047 1486.0
10.364885612 1434.0
10.391146178 1407.0
10.417406743 1441.0
10.443667308 1447.0
10.469927874 1448.0
10.496188439 1543.0
10.522449004 1531.0
10.548709570 1488.0
10.574970135 1503.0
10.601230701 1453.0
10.627491266 1482.0
10.653751831 1589.0
10.680012397 1566.0
10.706272962 1534.0
10.732533527 1529.0
10.758794093 1575.0
10.785054658 1642.0
10.811315223 1511.0
10.837575789 1493.0
10.863836354 1513.0
10.890096919 1622.0
10.916357485 1547.0
10.942618050 1585.0
10.968878616 1608.0
10.995139181 1584.0
11.021399746 1544.0
11.047660312 1649.0
11.073920877 1612.0
11.100181442 1698.0
11.126442008 1565.0
11.152702573 1597.0
11.178963138 1633.0
11.205223704 1679.0
11.231484269 1714.0
11.257744834 1653.0
11.284005400 1651.0
11.310265965 1692.0
11.336526530 1683.0
11.362787096 1720.0
11.389047661 1770.0
11.415308227 1637.0
11.441568792 1653.0
11.467829357 1769.0
11.494089923 1803.0
11.520350488 1758.0
11.546611053 1754.0
11.572871619 1736.0
11.599132184 1699.0
11.625392749 1732.0
11.651653315 1656.0
11.677913880 1700.0
11.704174445 1704.0
11.730435011 1652.0
11.756695576 1604.0
11.782956141 1640.0
11.809216707 1655.0
11.835477272 1632.0
11.861737838 1661.0
11.887998403 1566.0
11.914258968 1572.0
11.940519534 1565.0
11.966780099 1472.0
11.993040664 1484.0
12.019301230 1522.0
12.045561795 1415.0
12.071822360 1385.0
12.098082926 1470.0
12.124343491 1465.0
12.150604056 1333.0
12.176864622 1350.0
12.203125187 1408.0
12.229385753 1317.0
12.255646318 1296.0
12.281906883 1307.0
12.308167449 1274.0
12.334428014 1316.0
12.360688579 1261.0
12.386949145 1157.0
12.413209710 1215.0
12.439470275 1146.0
12.465730841 1140.0
12.491991406 1074.0
12.518251971 1205.0
12.544512537 1119.0
12.570773102 1097.0
12.597033667 1068.0
12.623294233 1084.0
12.649554798 1073.0
12.675815364 1071.0
12.702075929 993.0
12.728336494 1054.0
12.754597060 1028.0
12.780857625 993.0
12.807118190 976.0
12.833378756 902.0
12.859639321 1019.0
12.885899886 1063.0
12.912160452 932.0
12.938421017 909.0
12.964681582 924.0
12.990942148 946.0
13.017202713 927.0
13.043463279 888.0
13.069723844 894.0
13.095984409 894.0
13.122244975 855.0
13.148505540 934.0
13.174766105 915.0
13.201026671 915.0
13.227287236 890.0
13.253547801 922.0
13.279808367 888.0
13.306068932 871.0
13.332329497 832.0
13.358590063 824.0
13.384850628 825.0
13.411111193 845.0
13.437371759 846.0
13.463632324 828.0
13.489892890 851.0
13.516153455 847.0
13.542414020 832.0
13.568674586 822.0
13.594935151 844.0
13.621195716 847.0
13.647456282 884.0
13.673716847 832.0
13.699977412 885.0
13.726237978 857.0
13.752498543 891.0
13.778759108 918.0
13.805019674 969.0
13.831280239 1075.0
13.857540805 1061.0
13.883801370 1140.0
13.910061935 1244.0
13.936322501 1285.0
13.962583066 1438.0
13.988843631 1501.0
14.015104197 1420.0
14.041364762 1315.0
14.067625327 1204.0
14.093885893 1054.0
14.120146458 918.0
14.146407023 905.0
14.172667589 840.0
14.198928154 866.0
14.225188719 817.0
14.251449285 837.0
14.277709850 776.0
14.303970416 798.0
14.330230981 764.0
14.356491546 759.0
14.382752112 753.0
14.409012677 785.0
14.435273242 748.0
14.461533808 705.0
14.487794373 743.0
14.514054938 746.0
14.540315504 735.0
14.566576069 718.0
14.592836634 734.0
14.619097200 697.0
14.645357765 696.0
14.671618331 682.0
14.697878896 734.0
14.724139461 701.0
14.750400027 734.0
14.776660592 700.0
14.802921157 751.0
14.829181723 787.0
14.855442288 741.0
14.881702853 751.0
14.907963419 714.0
14.934223984 770.0
14.960484549 780.0
14.986745115 775.0
15.013005680 813.0
15.039266245 849.0
15.065526811 783.0
15.091787376 820.0
15.118047942 853.0
15.144308507 909.0
15.170569072 911.0
15.196829638 993.0
15.223090203 1077.0
15.249350768 1083.0
15.275611334 1117.0
15.301871899 1046.0
15.328132464 1084.0
15.354393030 1135.0
15.380653595 1117.0
15.406914160 1059.0
15.433174726 1020.0
15.459435291 1033.0
15.485695857 971.0
15.511956422 893.0
15.538216987 883.0
15.564477553 903.0
15.590738118 885.0
15.616998683 930.0
15.643259249 817.0
15.669519814 809.0
15.695780379 868.0
15.722040945 837.0
15.748301510 762.0
15.774562075 769.0
15.800822641 759.0
15.827083206 739.0
15.853343771 756.0
15.879604337 726.0
15.905864902 725.0
15.932125468 671.0
15.958386033 668.0
15.984646598 717.0
16.010907164 734.0
16.037167729 676.0
16.063428294 760.0
16.089688860 734.0
16.115949425 735.0
16.142209990 684.0
16.168470556 669.0
16.194731121 646.0
16.220991686 708.0
16.247252252 703.0
16.273512817 697.0
16.299773382 693.0
16.326033948 623.0
16.352294513 643.0
16.378555079 659.0
16.404815644 642.0
16.431076209 650.0
16.457336775 676.0
16.483597340 673.0
16.509857905 639.0
16.536118471 633.0
16.562379036 685.0
16.588639601 645.0
16.614900167 578.0
16.641160732 592.0
16.667421297 634.0
16.693681863 601.0
16.719942428 613.0
16.746202994 625.0
16.772463559 629.0
16.798724124 613.0
16.824984690 631.0
16.851245255 593.0
16.877505820 587.0
16.903766386 648.0
16.930026951 636.0
16.956287516 644.0
16.982548082 621.0
17.008808647 610.0
17.035069212 617.0
17.061329778 615.0
17.087590343 671.0
17.113850908 555.0
17.140111474 628.0
17.166372039 622.0
17.192632605 564.0
17.218893170 578.0
17.245153735 604.0
17.271414301 591.0
17.297674866 625.0
17.323935431 599.0
17.350195997 603.0
17.376456562 631.0
17.402717127 595.0
17.428977693 626.0
17.455238258 640.0
17.481498823 620.0
17.507759389 602.0
17.534019954 662.0
17.560280520 572.0
17.586541085 618.0
17.612801650 587.0
17.639062216 626.0
17.665322781 594.0
17.691583346 635.0
17.717843912 591.0
17.744104477 575.0
17.770365042 634.0
17.796625608 614.0
17.822886173 616.0
17.849146738 608.0
17.875407304 578.0
17.901667869 634.0
17.927928434 623.0
17.954189000 605.0
17.980449565 617.0
18.006710131 621.0
18.032970696 610.0
18.059231261 630.0
18.085491827 671.0
18.111752392 623.0
18.138012957 669.0
18.164273523 685.0
18.190534088 700.0
18.216794653 665.0
18.243055219 664.0
18.269315784 631.0
18.295576349 674.0
18.321836915 677.0
18.348097480 692.0
18.374358046 668.0
18.400618611 669.0
18.426879176 688.0
18.453139742 683.0
18.479400307 715.0
18.505660872 668.0
18.531921438 675.0
18.558182003 631.0
18.584442568 663.0
18.610703134 724.0
18.636963699 686.0
18.663224264 671.0
18.689484830 675.0
18.715745395 635.0
18.742005960 687.0
18.768266526 683.0
18.794527091 708.0
18.820787657 730.0
18.847048222 721.0
18.873308787 716.0
18.899569353 715.0
18.925829918 676.0
18.952090483 657.0
18.978351049 645.0
19.004611614 753.0
19.030872179 686.0
19.057132745 724.0
19.083393310 711.0
19.109653875 723.0
19.135914441 715.0
19.162175006 700.0
19.188435572 730.0
19.214696137 704.0
19.240956702 715.0
19.267217268 693.0
19.293477833 672.0
19.319738398 691.0
19.345998964 695.0
19.372259529 713.0
19.398520094 663.0
19.424780660 696.0
19.451041225 688.0
19.477301790 668.0
19.503562356 726.0
19.529822921 669.0
19.556083486 706.0
19.582344052 721.0
19.608604617 705.0
19.634865183 681.0
19.661125748 753.0
19.687386313 746.0
19.713646879 777.0
19.739907444 810.0
19.766168009 794.0
19.792428575 856.0
19.818689140 855.0
19.844949705 892.0
19.871210271 893.0
19.897470836 891.0
19.923731401 890.0
19.949991967 935.0
19.976252532 975.0
20.002513098 979.0
20.028773663 1060.0
20.055034228 979.0
20.081294794 957.0
20.107555359 912.0
20.133815924 859.0
20.160076490 874.0
20.186337055 761.0
20.212597620 760.0
20.238858186 720.0
20.265118751 726.0
20.291379316 734.0
20.317639882 742.0
20.343900447 738.0
20.370161012 739.0
20.396421578 729.0
20.422682143 678.0
20.448942709 714.0
20.475203274 628.0
20.501463839 696.0
20.527724405 711.0
20.553984970 727.0
20.580245535 687.0
20.606506101 675.0
20.632766666 674.0
20.659027231 665.0
20.685287797 673.0
20.711548362 711.0
20.737808927 724.0
20.764069493 686.0
20.790330058 748.0
20.816590623 687.0
20.842851189 686.0
20.869111754 718.0
20.895372320 701.0
20.921632885 715.0
20.947893450 732.0
20.974154016 706.0
21.000414581 744.0
21.026675146 715.0
21.052935712 740.0
21.079196277 728.0
21.105456842 711.0
21.131717408 672.0
21.157977973 731.0
21.184238538 710.0
21.210499104 731.0
21.236759669 726.0
21.263020235 675.0
21.289280800 705.0
21.315541365 739.0
21.341801931 748.0
21.368062496 783.0
21.394323061 730.0
21.420583627 760.0
21.446844192 735.0
21.473104757 719.0
21.499365323 815.0
21.525625888 770.0
21.551886453 784.0
21.578147019 753.0
21.604407584 782.0
21.630668149 781.0
21.656928715 811.0
21.683189280 767.0
21.709449846 846.0
21.735710411 821.0
21.761970976 743.0
21.788231542 821.0
21.814492107 775.0
21.840752672 802.0
21.867013238 786.0
21.893273803 792.0
21.919534368 791.0
21.945794934 819.0
21.972055499 790.0
21.998316064 856.0
22.024576630 847.0
22.050837195 868.0
22.077097761 882.0
22.103358326 876.0
22.129618891 883.0
22.155879457 925.0
22.182140022 863.0
22.208400587 939.0
22.234661153 949.0
22.260921718 910.0
22.287182283 965.0
22.313442849 978.0
22.339703414 932.0
22.365963979 979.0
22.392224545 964.0
22.418485110 959.0
22.444745675 966.0
22.471006241 998.0
22.497266806 963.0
22.523527372 1013.0
22.549787937 998.0
22.576048502 1048.0
22.602309068 979.0
22.628569633 1011.0
22.654830198 1028.0
22.681090764 1082.0
22.707351329 1133.0
22.733611894 1135.0
22.759872460 1039.0
22.786133025 1109.0
22.812393590 1195.0
22.838654156 1145.0
22.864914721 1230.0
22.891175287 1189.0
22.917435852 1265.0
22.943696417 1274.0
22.969956983 1285.0
22.996217548 1338.0
23.022478113 1404.0
23.048738679 1441.0
23.074999244 1467.0
23.101259809 1560.0
23.127520375 1538.0
23.153780940 1661.0
23.180041505 1678.0
23.206302071 1742.0
23.232562636 1699.0
23.258823201 1673.0
23.285083767 1723.0
23.311344332 1610.0
23.337604898 1550.0
23.363865463 1529.0
23.390126028 1540.0
23.416386594 1449.0
23.442647159 1399.0
23.468907724 1388.0
23.495168290 1323.0
23.521428855 1351.0
23.547689420 1282.0
23.573949986 1289.0
23.600210551 1308.0
23.626471116 1291.0
23.652731682 1199.0
23.678992247 1239.0
23.705252813 1191.0
23.731513378 1196.0
23.757773943 1173.0
23.784034509 1189.0
23.810295074 1163.0
23.836555639 1144.0
23.862816205 1111.0
23.889076770 1134.0
23.915337335 1117.0
23.941597901 1093.0
23.967858466 1141.0
23.994119031 1062.0
24.020379597 1019.0
24.046640162 1101.0
24.072900727 1100.0
24.099161293 1120.0
24.125421858 1199.0
24.151682424 1158.0
24.177942989 1215.0
24.204203554 1289.0
24.230464120 1337.0
24.256724685 1542.0
24.282985250 1542.0
24.309245816 1636.0
24.335506381 1747.0
24.361766946 1758.0
24.388027512 1810.0
24.414288077 1701.0
24.440548642 1501.0
24.466809208 1389.0
24.493069773 1321.0
24.519330338 1219.0
24.545590904 1015.0
24.571851469 1047.0
24.598112035 1043.0
24.624372600 911.0
24.650633165 967.0
24.676893731 892.0
24.703154296 900.0
24.729414861 901.0
24.755675427 891.0
24.781935992 823.0
24.808196557 843.0
24.834457123 781.0
24.860717688 817.0
24.886978253 780.0
24.913238819 800.0
24.939499384 721.0
24.965759950 810.0
24.992020515 809.0
25.018281080 787.0
25.044541646 781.0
25.070802211 794.0
25.097062776 733.0
25.123323342 747.0
25.149583907 785.0
25.175844472 721.0
25.202105038 692.0
25.228365603 803.0
25.254626168 735.0
25.280886734 750.0
25.307147299 747.0
25.333407864 762.0
25.359668430 784.0
25.385928995 734.0
25.412189561 751.0
25.438450126 719.0
25.464710691 753.0
25.490971257 725.0
25.517231822 694.0
25.543492387 731.0
25.569752953 713.0
25.596013518 747.0
25.622274083 756.0
25.648534649 705.0
25.674795214 719.0
25.701055779 804.0
25.727316345 797.0
25.753576910 734.0
25.779837476 731.0
25.806098041 770.0
25.832358606 802.0
25.858619172 773.0
25.884879737 758.0
25.911140302 823.0
25.937400868 849.0
25.963661433 780.0
25.989921998 793.0
26.016182564 804.0
26.042443129 831.0
26.068703694 822.0
26.094964260 781.0
26.121224825 902.0
26.147485390 787.0
26.173745956 858.0
26.200006521 814.0
26.226267087 857.0
26.252527652 883.0
26.278788217 928.0
26.305048783 912.0
26.331309348 968.0
26.357569913 959.0
26.383830479 979.0
26.410091044 1029.0
26.436351609 1056.0
26.462612175 1097.0
26.488872740 1172.0
26.515133305 1269.0
26.541393871 1286.0
26.567654436 1285.0
26.593915002 1372.0
26.620175567 1275.0
26.646436132 1330.0
26.672696698 1272.0
26.698957263 1164.0
26.725217828 1091.0
26.751478394 979.0
26.777738959 995.0
26.803999524 935.0
26.830260090 879.0
26.856520655 892.0
26.882781220 849.0
26.909041786 854.0
26.935302351 868.0
26.961562916 780.0
26.987823482 788.0
27.014084047 775.0
27.040344613 755.0
27.066605178 786.0
27.092865743 729.0
27.119126309 760.0
27.145386874 779.0
27.171647439 695.0
27.197908005 718.0
27.224168570 683.0
27.250429135 660.0
27.276689701 707.0
27.302950266 702.0
27.329210831 735.0
27.355471397 737.0
27.381731962 727.0
27.407992528 684.0
27.434253093 643.0
27.460513658 676.0
27.486774224 697.0
27.513034789 677.0
27.539295354 649.0
27.565555920 705.0
27.591816485 710.0
27.618077050 699.0
27.644337616 676.0
27.670598181 667.0
27.696858746 683.0
27.723119312 662.0
27.749379877 677.0
27.775640442 683.0
27.801901008 649.0
27.828161573 701.0
27.854422139 641.0
27.880682704 703.0
27.906943269 665.0
27.933203835 696.0
27.959464400 676.0
27.985724965 669.0
28.011985531 720.0
28.038246096 705.0
28.064506661 742.0
28.090767227 710.0
28.117027792 730.0
28.143288357 737.0
28.169548923 732.0
28.195809488 811.0
28.222070054 756.0
28.248330619 737.0
28.274591184 774.0
28.300851750 754.0
28.327112315 683.0
28.353372880 716.0
28.379633446 740.0
28.405894011 692.0
28.432154576 669.0
28.458415142 669.0
28.484675707 696.0
28.510936272 619.0
28.537196838 736.0
28.563457403 677.0
28.589717968 673.0
28.615978534 707.0
28.642239099 693.0
28.668499665 668.0
28.694760230 687.0
28.721020795 703.0
28.747281361 627.0
28.773541926 676.0
28.799802491 678.0
28.826063057 720.0
28.852323622 707.0
28.878584187 749.0
28.904844753 729.0
28.931105318 726.0
28.957365883 744.0
28.983626449 788.0
29.009887014 806.0
29.036147579 784.0
29.062408145 864.0
29.088668710 833.0
29.114929276 887.0
29.141189841 852.0
29.167450406 836.0
29.193710972 875.0
29.219971537 911.0
29.246232102 815.0
29.272492668 856.0
29.298753233 843.0
29.325013798 796.0
29.351274364 792.0
29.377534929 780.0
29.403795494 803.0
29.430056060 806.0
29.456316625 855.0
29.482577191 839.0
29.508837756 754.0
29.535098321 723.0
29.561358887 766.0
29.587619452 787.0
29.613880017 765.0
29.640140583 781.0
29.666401148 707.0
29.692661713 803.0
29.718922279 755.0
29.745182844 735.0
29.771443409 725.0
29.797703975 671.0
29.823964540 763.0
29.850225105 735.0
29.876485671 723.0
29.902746236 777.0
29.929006802 759.0
29.955267367 730.0
29.981527932 791.0
30.007788498 800.0
30.034049063 760.0
30.060309628 756.0
30.086570194 810.0
30.112830759 767.0
30.139091324 811.0
30.165351890 800.0
30.191612455 885.0
30.217873020 826.0
30.244133586 903.0
30.270394151 863.0
30.296654717 867.0
30.322915282 868.0
30.349175847 858.0
30.375436413 896.0
30.401696978 921.0
30.427957543 942.0
30.454218109 959.0
30.480478674 957.0
30.506739239 973.0
30.532999805 965.0
30.559260370 1008.0
30.585520935 1047.0
30.611781501 1029.0
30.638042066 1037.0
30.664302631 1053.0
30.690563197 1146.0
30.716823762 1162.0
30.743084328 1218.0
30.769344893 1181.0
30.795605458 1184.0
30.821866024 1232.0
30.848126589 1161.0
30.874387154 1232.0
30.900647720 1171.0
30.926908285 1126.0
30.953168850 1196.0
30.979429416 1101.0
31.005689981 1115.0
31.031950546 1127.0
31.058211112 1045.0
31.084471677 1005.0
31.110732243 1005.0
31.136992808 1002.0
31.163253373 1049.0
31.189513939 975.0
31.215774504 919.0
31.242035069 1004.0
31.268295635 987.0
31.294556200 983.0
31.320816765 968.0
31.347077331 960.0
31.373337896 978.0
31.399598461 1015.0
31.425859027 1018.0
31.452119592 963.0
31.478380157 996.0
31.504640723 1126.0
31.530901288 1097.0
31.557161854 1123.0
31.583422419 1189.0
31.609682984 1162.0
31.635943550 1140.0
31.662204115 1144.0
31.688464680 1163.0
31.714725246 1150.0
31.740985811 1058.0
31.767246376 1062.0
31.793506942 1028.0
31.819767507 1007.0
31.846028072 917.0
31.872288638 927.0
31.898549203 926.0
31.924809769 874.0
31.951070334 909.0
31.977330899 858.0
32.003591465 810.0
32.029852030 766.0
32.056112595 816.0
32.082373161 762.0
32.108633726 750.0
32.134894291 745.0
32.161154857 743.0
32.187415422 709.0
32.213675987 672.0
32.239936553 704.0
32.266197118 631.0
32.292457683 655.0
32.318718249 686.0
32.344978814 682.0
32.371239380 691.0
32.397499945 697.0
32.423760510 671.0
32.450021076 728.0
32.476281641 700.0
32.502542206 635.0
32.528802772 680.0
32.555063337 704.0
32.581323902 693.0
32.607584468 683.0
32.633845033 702.0
32.660105598 704.0
32.686366164 663.0
32.712626729 702.0
32.738887295 683.0
32.765147860 662.0
32.791408425 683.0
32.817668991 688.0
32.843929556 706.0
32.870190121 679.0
32.896450687 699.0
32.922711252 686.0
32.948971817 661.0
32.975232383 645.0
33.001492948 685.0
33.027753513 686.0
33.054014079 673.0
33.080274644 708.0
33.106535209 697.0
33.132795775 686.0
33.159056340 678.0
33.185316906 709.0
33.211577471 669.0
33.237838036 751.0
33.264098602 761.0
33.290359167 746.0
33.316619732 750.0
33.342880298 782.0
33.369140863 755.0
33.395401428 799.0
33.421661994 782.0
33.447922559 751.0
33.474183124 781.0
33.500443690 784.0
33.526704255 820.0
33.552964820 818.0
33.579225386 778.0
33.605485951 795.0
33.631746517 813.0
33.658007082 753.0
33.684267647 759.0
33.710528213 759.0
33.736788778 796.0
33.763049343 753.0
33.789309909 828.0
33.815570474 760.0
33.841831039 782.0
33.868091605 851.0
33.894352170 749.0
33.920612735 742.0
33.946873301 825.0
33.973133866 799.0
33.999394432 897.0
34.025654997 854.0
34.051915562 823.0
34.078176128 872.0
34.104436693 902.0
34.130697258 939.0
34.156957824 949.0
34.183218389 953.0
34.209478954 917.0
34.235739520 948.0
34.262000085 978.0
34.288260650 963.0
34.314521216 933.0
34.340781781 974.0
34.367042346 1080.0
34.393302912 1085.0
34.419563477 1083.0
34.445824043 1080.0
34.472084608 1052.0
34.498345173 1165.0
34.524605739 1146.0
34.550866304 1222.0
34.577126869 1215.0
34.603387435 1230.0
34.629648000 1335.0
34.655908565 1393.0
34.682169131 1418.0
34.708429696 1379.0
34.734690261 1440.0
34.760950827 1466.0
34.787211392 1364.0
34.813471958 1253.0
34.839732523 1219.0
34.865993088 1217.0
34.892253654 1106.0
34.918514219 1199.0
34.944774784 1087.0
34.971035350 1094.0
34.997295915 1034.0
35.023556480 1043.0
35.049817046 1023.0
35.076077611 1032.0
35.102338176 1013.0
35.128598742 938.0
35.154859307 927.0
35.181119872 932.0
35.207380438 940.0
35.233641003 933.0
35.259901569 881.0
35.286162134 872.0
35.312422699 865.0
35.338683265 888.0
35.364943830 817.0
35.391204395 797.0
35.417464961 881.0
35.443725526 810.0
35.469986091 810.0
35.496246657 762.0
35.522507222 760.0
35.548767787 814.0
35.575028353 768.0
35.601288918 763.0
35.627549484 814.0
35.653810049 820.0
35.680070614 716.0
35.706331180 787.0
35.732591745 734.0
35.758852310 750.0
35.785112876 740.0
35.811373441 755.0
35.837634006 773.0
35.863894572 783.0
35.890155137 782.0
35.916415702 710.0
35.942676268 756.0
35.968936833 717.0
35.995197398 744.0
36.021457964 735.0
36.047718529 685.0
36.073979095 676.0
36.100239660 703.0
36.126500225 735.0
36.152760791 691.0
36.179021356 686.0
36.205281921 693.0
36.231542487 807.0
36.257803052 711.0
36.284063617 690.0
36.310324183 695.0
36.336584748 732.0
36.362845313 707.0
36.389105879 676.0
36.415366444 704.0
36.441627010 759.0
36.467887575 696.0
36.494148140 751.0
36.520408706 703.0
36.546669271 693.0
36.572929836 673.0
36.599190402 664.0
36.625450967 649.0
36.651711532 679.0
36.677972098 735.0
36.704232663 688.0
36.730493228 634.0
36.756753794 725.0
36.783014359 647.0
36.809274924 645.0
36.835535490 724.0
36.861796055 688.0
36.888056621 728.0
36.914317186 652.0
36.940577751 655.0
36.966838317 714.0
36.993098882 623.0
37.019359447 707.0
37.045620013 747.0
37.071880578 733.0
37.098141143 704.0
37.124401709 745.0
37.150662274 697.0
37.176922839 687.0
37.203183405 738.0
37.229443970 719.0
37.255704535 724.0
37.281965101 714.0
37.308225666 655.0
37.334486232 703.0
37.360746797 659.0
37.387007362 704.0
37.413267928 677.0
37.439528493 696.0
37.465789058 659.0
37.492049624 695.0
37.518310189 687.0
37.544570754 722.0
37.570831320 728.0
37.597091885 694.0
37.623352450 713.0
37.649613016 745.0
37.675873581 748.0
37.702134147 654.0
37.728394712 729.0
37.754655277 742.0
37.780915843 632.0
37.807176408 644.0
37.833436973 637.0
37.859697539 667.0
37.885958104 655.0
37.912218669 639.0
37.938479235 651.0
37.964739800 658.0
37.991000365 640.0
38.017260931 663.0
38.043521496 636.0
38.069782061 658.0
38.096042627 690.0
38.122303192 620.0
38.148563758 636.0
38.174824323 611.0
38.201084888 677.0
38.227345454 645.0
38.253606019 597.0
38.279866584 602.0
38.306127150 618.0
38.332387715 603.0
38.358648280 668.0
38.384908846 622.0
38.411169411 605.0
38.437429976 625.0
38.463690542 607.0
38.489951107 607.0
38.516211673 600.0
38.542472238 629.0
38.568732803 605.0
38.594993369 633.0
38.621253934 619.0
38.647514499 614.0
38.673775065 633.0
38.700035630 651.0
38.726296195 583.0
38.752556761 636.0
38.778817326 590.0
38.805077891 569.0
38.831338457 643.0
38.857599022 671.0
38.883859587 583.0
38.910120153 611.0
38.936380718 631.0
38.962641284 564.0
38.988901849 619.0
39.015162414 635.0
39.041422980 560.0
39.067683545 619.0
39.093944110 611.0
39.120204676 565.0
39.146465241 605.0
39.172725806 642.0
39.198986372 592.0
39.225246937 633.0
39.251507502 575.0
39.277768068 638.0
39.304028633 601.0
39.330289199 585.0
39.356549764 617.0
39.382810329 607.0
39.409070895 560.0
39.435331460 623.0
39.461592025 569.0
39.487852591 551.0
39.514113156 586.0
39.540373721 579.0
39.566634287 587.0
39.592894852 549.0
39.619155417 598.0
39.645415983 591.0
39.671676548 576.0
39.697937113 598.0
39.724197679 568.0
39.750458244 564.0
39.776718810 578.0
39.802979375 674.0
39.829239940 604.0
39.855500506 583.0
39.881761071 609.0
39.908021636 540.0
39.934282202 607.0
39.960542767 598.0
39.986803332 556.0
40.013063898 584.0
40.039324463 571.0
40.065585028 565.0
40.091845594 573.0
40.118106159 576.0
40.144366725 555.0
40.170627290 557.0
40.196887855 567.0
40.223148421 579.0
40.249408986 547.0
40.275669551 526.0
40.301930117 593.0
40.328190682 562.0
40.354451247 584.0
40.380711813 555.0
40.406972378 558.0
40.433232943 580.0
40.459493509 607.0
40.485754074 604.0
40.512014639 619.0
40.538275205 601.0
40.564535770 638.0
40.590796336 635.0
40.617056901 645.0
40.643317466 652.0
40.669578032 639.0
40.695838597 632.0
40.722099162 626.0
40.748359728 670.0
40.774620293 691.0
40.800880858 653.0
40.827141424 619.0
40.853401989 621.0
40.879662554 611.0
40.905923120 602.0
40.932183685 610.0
40.958444251 625.0
40.984704816 577.0
41.010965381 584.0
41.037225947 610.0
41.063486512 619.0
41.089747077 624.0
41.116007643 619.0
41.142268208 619.0
41.168528773 601.0
41.194789339 613.0
41.221049904 596.0
41.247310469 605.0
41.273571035 593.0
41.299831600 564.0
41.326092165 650.0
41.352352731 579.0
41.378613296 594.0
41.404873862 570.0
41.431134427 595.0
41.457394992 556.0
41.483655558 590.0
41.509916123 558.0
41.536176688 552.0
41.562437254 548.0
41.588697819 564.0
41.614958384 547.0
41.641218950 560.0
41.667479515 552.0
41.693740080 577.0
41.720000646 575.0
41.746261211 551.0
41.772521776 558.0
41.798782342 535.0
41.825042907 517.0
41.851303473 527.0
41.877564038 473.0
41.903824603 555.0
41.930085169 534.0
41.956345734 506.0
41.982606299 524.0
42.008866865 534.0
42.035127430 496.0
42.061387995 501.0
42.087648561 518.0
42.113909126 588.0
42.140169691 532.0
42.166430257 544.0
42.192690822 527.0
42.218951388 545.0
42.245211953 505.0
42.271472518 518.0
42.297733084 557.0
42.323993649 542.0
42.350254214 545.0
42.376514780 510.0
42.402775345 528.0
42.429035910 488.0
42.455296476 509.0
42.481557041 513.0
42.507817606 542.0
42.534078172 589.0
42.560338737 564.0
42.586599302 552.0
42.612859868 588.0
42.639120433 583.0
42.665380999 596.0
42.691641564 611.0
42.717902129 673.0
42.744162695 704.0
42.770423260 686.0
42.796683825 726.0
42.822944391 698.0
42.849204956 704.0
42.875465521 712.0
42.901726087 741.0
42.927986652 739.0
42.954247217 691.0
42.980507783 670.0
43.006768348 619.0
43.033028914 614.0
43.059289479 614.0
43.085550044 578.0
43.111810610 558.0
43.138071175 525.0
43.164331740 587.0
43.190592306 555.0
43.216852871 482.0
43.243113436 473.0
43.269374002 525.0
43.295634567 467.0
43.321895132 510.0
43.348155698 506.0
43.374416263 491.0
43.400676828 480.0
43.426937394 476.0
43.453197959 451.0
43.479458525 457.0
43.505719090 388.0
43.531979655 426.0
43.558240221 434.0
43.584500786 452.0
43.610761351 389.0
43.637021917 436.0
43.663282482 425.0
43.689543047 411.0
43.715803613 430.0
43.742064178 436.0
43.768324743 414.0
43.794585309 440.0
43.820845874 460.0
43.847106440 451.0
43.873367005 436.0
43.899627570 428.0
43.925888136 422.0
43.952148701 462.0
43.978409266 428.0
44.004669832 438.0
44.030930397 438.0
44.057190962 395.0
44.083451528 396.0
44.109712093 421.0
44.135972658 448.0
44.162233224 402.0
44.188493789 426.0
44.214754354 421.0
44.241014920 430.0
44.267275485 455.0
44.293536051 416.0
44.319796616 426.0
44.346057181 437.0
44.372317747 483.0
44.398578312 421.0
44.424838877 369.0
44.451099443 481.0
44.477360008 416.0
44.503620573 415.0
44.529881139 457.0
44.556141704 401.0
44.582402269 388.0
44.608662835 439.0
44.634923400 409.0
44.661183966 442.0
44.687444531 457.0
44.713705096 464.0
44.739965662 464.0
44.766226227 440.0
44.792486792 477.0
44.818747358 416.0
44.845007923 459.0
44.871268488 478.0
44.897529054 477.0
44.923789619 431.0
44.950050184 447.0
44.976310750 457.0
45.002571315 421.0
45.028831880 437.0
45.055092446 421.0
45.081353011 469.0
45.107613577 455.0
45.133874142 429.0
45.160134707 458.0
45.186395273 463.0
45.212655838 438.0
45.238916403 466.0
45.265176969 487.0
45.291437534 470.0
45.317698099 463.0
45.343958665 460.0
45.370219230 462.0
45.396479795 459.0
45.422740361 446.0
45.449000926 434.0
45.475261492 467.0
45.501522057 428.0
45.527782622 497.0
45.554043188 507.0
45.580303753 461.0
45.606564318 480.0
45.632824884 455.0
45.659085449 464.0
45.685346014 459.0
45.711606580 489.0
45.737867145 464.0
45.764127710 526.0
45.790388276 451.0
45.816648841 456.0
45.842909406 474.0
45.869169972 454.0
45.895430537 448.0
45.921691103 470.0
45.947951668 481.0
45.974212233 447.0
46.000472799 434.0
46.026733364 438.0
46.052993929 488.0
46.079254495 508.0
46.105515060 448.0
46.131775625 489.0
46.158036191 479.0
46.184296756 470.0
46.210557321 526.0
46.236817887 471.0
46.263078452 491.0
46.289339017 496.0
46.315599583 478.0
46.341860148 479.0
46.368120714 522.0
46.394381279 438.0
46.420641844 477.0
46.446902410 499.0
46.473162975 476.0
46.499423540 438.0
46.525684106 454.0
46.551944671 495.0
46.578205236 466.0
46.604465802 482.0
46.630726367 499.0
46.656986932 448.0
46.683247498 467.0
46.709508063 447.0
46.735768629 466.0
46.762029194 434.0
46.788289759 466.0
46.814550325 439.0
46.840810890 521.0
46.867071455 441.0
46.893332021 451.0
46.919592586 510.0
46.945853151 464.0
46.972113717 448.0
46.998374282 489.0
47.024634847 458.0
47.050895413 451.0
47.077155978 440.0
47.103416543 477.0
47.129677109 444.0
47.155937674 461.0
47.182198240 461.0
47.208458805 461.0
47.234719370 431.0
47.260979936 432.0
47.287240501 420.0
47.313501066 428.0
47.339761632 415.0
47.366022197 417.0
47.392282762 393.0
47.418543328 424.0
47.444803893 429.0
47.471064458 436.0
47.497325024 409.0
47.523585589 421.0
47.549846155 445.0
47.576106720 448.0
47.602367285 410.0
47.628627851 389.0
47.654888416 461.0
47.681148981 393.0
47.707409547 419.0
47.733670112 430.0
47.759930677 417.0
47.786191243 424.0
47.812451808 401.0
47.838712373 425.0
47.864972939 397.0
47.891233504 430.0
47.917494069 359.0
47.943754635 376.0
47.970015200 367.0
47.996275766 399.0
48.022536331 403.0
48.048796896 379.0
48.075057462 374.0
48.101318027 418.0
48.127578592 402.0
48.153839158 365.0
48.180099723 437.0
48.206360288 360.0
48.232620854 376.0
48.258881419 352.0
48.285141984 358.0
48.311402550 381.0
48.337663115 357.0
48.363923681 400.0
48.390184246 400.0
48.416444811 401.0
48.442705377 333.0
48.468965942 373.0
48.495226507 382.0
48.521487073 384.0
48.547747638 378.0
48.574008203 368.0
48.600268769 363.0
48.626529334 366.0
48.652789899 375.0
48.679050465 364.0
48.705311030 349.0
48.731571595 403.0
48.757832161 342.0
48.784092726 357.0
48.810353292 403.0
48.836613857 378.0
48.862874422 408.0
48.889134988 389.0
48.915395553 345.0
48.941656118 356.0
48.967916684 332.0
48.994177249 339.0
49.020437814 346.0
49.046698380 369.0
49.072958945 291.0
49.099219510 337.0
49.125480076 342.0
49.151740641 336.0
49.178001207 352.0
49.204261772 365.0
49.230522337 374.0
49.256782903 327.0
49.283043468 364.0
49.309304033 372.0
49.335564599 373.0
49.361825164 349.0
49.388085729 346.0
49.414346295 329.0
49.440606860 343.0
49.466867425 322.0
49.493127991 309.0
49.519388556 360.0
49.545649121 349.0
49.571909687 351.0
49.598170252 366.0
49.624430818 371.0
49.650691383 358.0
49.676951948 332.0
49.703212514 362.0
49.729473079 360.0
49.755733644 406.0
49.781994210 393.0
49.808254775 372.0
49.834515340 320.0
49.860775906 356.0
49.887036471 373.0
49.913297036 408.0
49.939557602 368.0
49.965818167 341.0
49.992078733 396.0
50.018339298 360.0
50.044599863 377.0
50.070860429 392.0
50.097120994 347.0
50.123381559 343.0
50.149642125 352.0
50.175902690 346.0
50.202163255 344.0
50.228423821 340.0
50.254684386 335.0
50.280944951 348.0
50.307205517 365.0
50.333466082 351.0
50.359726647 321.0
50.385987213 375.0
50.412247778 356.0
50.438508344 313.0
50.464768909 319.0
50.491029474 391.0
50.517290040 392.0
50.543550605 348.0
50.569811170 338.0
50.596071736 340.0
50.622332301 358.0
50.648592866 337.0
50.674853432 345.0
50.701113997 358.0
50.727374562 339.0
50.753635128 341.0
50.779895693 344.0
50.806156258 387.0
50.832416824 377.0
50.858677389 320.0
50.884937955 336.0
50.911198520 356.0
50.937459085 358.0
50.963719651 355.0
50.989980216 376.0
51.016240781 363.0
51.042501347 350.0
51.068761912 374.0
51.095022477 350.0
51.121283043 359.0
51.147543608 365.0
51.173804173 317.0
51.200064739 369.0
51.226325304 387.0
51.252585870 366.0
51.278846435 380.0
51.305107000 391.0
51.331367566 372.0
51.357628131 330.0
51.383888696 381.0
51.410149262 384.0
51.436409827 356.0
51.462670392 413.0
51.488930958 403.0
51.515191523 403.0
51.541452088 371.0
51.567712654 380.0
51.593973219 371.0
51.620233784 430.0
51.646494350 375.0
51.672754915 387.0
51.699015481 371.0
51.725276046 380.0
51.751536611 358.0
51.777797177 375.0
51.804057742 357.0
51.830318307 374.0
51.856578873 354.0
51.882839438 356.0
51.909100003 374.0
51.935360569 399.0
51.961621134 390.0
51.987881699 421.0
52.014142265 443.0
52.040402830 424.0
52.066663396 420.0
52.092923961 392.0
52.119184526 391.0
52.145445092 401.0
52.171705657 405.0
52.197966222 350.0
52.224226788 360.0
52.250487353 393.0
52.276747918 364.0
52.303008484 345.0
52.329269049 394.0
52.355529614 340.0
52.381790180 370.0
52.408050745 385.0
52.434311310 357.0
52.460571876 346.0
52.486832441 336.0
52.513093007 340.0
52.539353572 363.0
52.565614137 369.0
52.591874703 378.0
52.618135268 396.0
52.644395833 376.0
52.670656399 350.0
52.696916964 370.0
52.723177529 355.0
52.749438095 335.0
52.775698660 354.0
52.801959225 341.0
52.828219791 363.0
52.854480356 358.0
52.880740922 360.0
52.907001487 350.0
52.933262052 362.0
52.959522618 370.0
52.985783183 339.0
53.012043748 383.0
53.038304314 387.0
53.064564879 382.0
53.090825444 412.0
53.117086010 356.0
53.143346575 405.0
53.169607140 381.0
53.195867706 377.0
53.222128271 339.0
53.248388836 371.0
53.274649402 332.0
53.300909967 345.0
53.327170533 308.0
53.353431098 327.0
53.379691663 346.0
53.405952229 315.0
53.432212794 351.0
53.458473359 331.0
53.484733925 332.0
53.510994490 323.0
53.537255055 325.0
53.563515621 319.0
53.589776186 291.0
53.616036751 299.0
53.642297317 283.0
53.668557882 313.0
53.694818448 331.0
53.721079013 309.0
53.747339578 290.0
53.773600144 281.0
53.799860709 276.0
53.826121274 289.0
53.852381840 262.0
53.878642405 290.0
53.904902970 298.0
53.931163536 285.0
53.957424101 288.0
53.983684666 285.0
54.009945232 328.0
54.036205797 261.0
54.062466362 278.0
54.088726928 287.0
54.114987493 294.0
54.141248059 278.0
54.167508624 281.0
54.193769189 278.0
54.220029755 285.0
54.246290320 274.0
54.272550885 308.0
54.298811451 294.0
54.325072016 293.0
54.351332581 269.0
54.377593147 303.0
54.403853712 266.0
54.430114277 304.0
54.456374843 263.0
54.482635408 275.0
54.508895973 313.0
54.535156539 247.0
54.561417104 315.0
54.587677670 303.0
54.613938235 294.0
54.640198800 322.0
54.666459366 262.0
54.692719931 309.0
54.718980496 295.0
54.745241062 291.0
54.771501627 278.0
54.797762192 317.0
54.824022758 277.0
54.850283323 277.0
54.876543888 290.0
54.902804454 290.0
54.929065019 306.0
54.955325585 300.0
54.981586150 268.0
55.007846715 302.0
55.034107281 283.0
55.060367846 272.0
55.086628411 276.0
55.112888977 292.0
55.139149542 286.0
55.165410107 295.0
55.191670673 287.0
55.217931238 298.0
55.244191803 269.0
55.270452369 256.0
55.296712934 279.0
55.322973499 302.0
55.349234065 250.0
55.375494630 303.0
55.401755196 299.0
55.428015761 259.0
55.454276326 287.0
55.480536892 283.0
55.506797457 253.0
55.533058022 272.0
55.559318588 272.0
55.585579153 287.0
55.611839718 281.0
55.638100284 273.0
55.664360849 238.0
55.690621414 284.0
55.716881980 304.0
55.743142545 301.0
55.769403111 280.0
55.795663676 266.0
55.821924241 262.0
55.848184807 270.0
55.874445372 256.0
55.900705937 288.0
55.926966503 253.0
55.953227068 293.0
55.979487633 270.0
56.005748199 295.0
56.032008764 282.0
56.058269329 312.0
56.084529895 270.0
56.110790460 289.0
56.137051025 296.0
56.163311591 283.0
56.189572156 320.0
56.215832722 309.0
56.242093287 292.0
56.268353852 297.0
56.294614418 311.0
56.320874983 345.0
56.347135548 308.0
56.373396114 287.0
56.399656679 307.0
56.425917244 324.0
56.452177810 329.0
56.478438375 287.0
56.504698940 332.0
56.530959506 282.0
56.557220071 287.0
56.583480637 345.0
56.609741202 302.0
56.636001767 318.0
56.662262333 278.0
56.688522898 303.0
56.714783463 313.0
56.741044029 266.0
56.767304594 293.0
56.793565159 313.0
56.819825725 295.0
56.846086290 304.0
56.872346855 316.0
56.898607421 256.0
56.924867986 288.0
56.951128551 341.0
56.977389117 311.0
57.003649682 333.0
57.029910248 308.0
57.056170813 318.0
57.082431378 348.0
57.108691944 336.0
57.134952509 339.0
57.161213074 349.0
57.187473640 295.0
57.213734205 392.0
57.239994770 327.0
57.266255336 387.0
57.292515901 349.0
57.318776466 345.0
57.345037032 346.0
57.371297597 341.0
57.397558163 333.0
57.423818728 344.0
57.450079293 328.0
57.476339859 346.0
57.502600424 324.0
57.528860989 312.0
57.555121555 323.0
57.581382120 324.0
57.607642685 304.0
57.633903251 327.0
57.660163816 350.0
57.686424381 321.0
57.712684947 333.0
57.738945512 352.0
57.765206077 331.0
57.791466643 345.0
57.817727208 326.0
57.843987774 321.0
57.870248339 294.0
57.896508904 293.0
57.922769470 304.0
57.949030035 323.0
57.975290600 343.0
58.001551166 342.0
58.027811731 311.0
58.054072296 340.0
58.080332862 342.0
58.106593427 357.0
58.132853992 348.0
58.159114558 348.0
58.185375123 354.0
58.211635689 400.0
58.237896254 397.0
58.264156819 419.0
58.290417385 383.0
58.316677950 425.0
58.342938515 370.0
58.369199081 397.0
58.395459646 378.0
58.421720211 380.0
58.447980777 390.0
58.474241342 426.0
58.500501907 395.0
58.526762473 403.0
58.553023038 387.0
58.579283603 378.0
58.605544169 326.0
58.631804734 377.0
58.658065300 370.0
58.684325865 357.0
58.710586430 345.0
58.736846996 363.0
58.763107561 364.0
58.789368126 374.0
58.815628692 340.0
58.841889257 358.0
58.868149822 353.0
58.894410388 354.0
58.920670953 385.0
58.946931518 354.0
58.973192084 342.0
58.999452649 330.0
59.025713214 380.0
59.051973780 329.0
59.078234345 347.0
59.104494911 358.0
59.130755476 327.0
59.157016041 348.0
59.183276607 345.0
59.209537172 347.0
59.235797737 358.0
59.262058303 371.0
59.288318868 359.0
59.314579433 356.0
59.340839999 373.0
59.367100564 368.0
59.393361129 402.0
59.419621695 424.0
59.445882260 387.0
59.472142826 412.0
59.498403391 376.0
59.524663956 424.0
59.550924522 421.0
59.577185087 396.0
59.603445652 382.0
59.629706218 457.0
59.655966783 423.0
59.682227348 417.0
59.708487914 410.0
59.734748479 455.0
59.761009044 435.0
59.787269610 415.0
59.813530175 505.0
59.839790740 458.0
59.866051306 490.0
59.892311871 475.0
59.918572437 499.0
59.944833002 468.0
59.971093567 486.0
59.997354133 492.0
60.023614698 441.0
60.049875263 524.0
60.076135829 477.0
60.102396394 509.0
60.128656959 545.0
60.154917525 522.0
60.181178090 564.0
60.207438655 591.0
60.233699221 585.0
60.259959786 612.0
60.286220352 594.0
60.312480917 624.0
60.338741482 633.0
60.365002048 699.0
60.391262613 665.0
60.417523178 684.0
60.443783744 682.0
60.470044309 687.0
60.496304874 655.0
60.522565440 674.0
60.548826005 684.0
60.575086570 656.0
60.601347136 698.0
60.627607701 655.0
60.653868266 614.0
60.680128832 671.0
60.706389397 640.0
60.732649963 614.0
60.758910528 573.0
60.785171093 615.0
60.811431659 622.0
60.837692224 620.0
60.863952789 594.0
60.890213355 592.0
60.916473920 605.0
60.942734485 604.0
60.968995051 551.0
60.995255616 552.0
61.021516181 537.0
61.047776747 494.0
61.074037312 534.0
61.100297878 510.0
61.126558443 496.0
61.152819008 495.0
61.179079574 447.0
61.205340139 458.0
61.231600704 465.0
61.257861270 456.0
61.284121835 463.0
61.310382400 448.0
61.336642966 450.0
61.362903531 434.0
61.389164096 456.0
61.415424662 463.0
61.441685227 455.0
61.467945792 448.0
61.494206358 434.0
61.520466923 457.0
61.546727489 457.0
61.572988054 439.0
61.599248619 478.0
61.625509185 463.0
61.651769750 373.0
61.678030315 468.0
61.704290881 442.0
61.730551446 490.0
61.756812011 471.0
61.783072577 468.0
61.809333142 416.0
61.835593707 519.0
61.861854273 505.0
61.888114838 466.0
61.914375404 462.0
61.940635969 533.0
61.966896534 460.0
61.993157100 472.0
62.019417665 462.0
62.045678230 420.0
62.071938796 458.0
62.098199361 443.0
62.124459926 428.0
62.150720492 507.0
62.176981057 443.0
62.203241622 434.0
62.229502188 444.0
62.255762753 415.0
62.282023318 405.0
62.308283884 433.0
62.334544449 403.0
62.360805015 439.0
62.387065580 414.0
62.413326145 399.0
62.439586711 331.0
62.465847276 382.0
62.492107841 363.0
62.518368407 368.0
62.544628972 342.0
62.570889537 362.0
62.597150103 371.0
62.623410668 366.0
62.649671233 344.0
62.675931799 384.0
62.702192364 366.0
62.728452930 364.0
62.754713495 347.0
62.780974060 317.0
62.807234626 328.0
62.833495191 371.0
62.859755756 335.0
62.886016322 368.0
62.912276887 300.0
62.938537452 351.0
62.964798018 341.0
62.991058583 357.0
63.017319148 338.0
63.043579714 351.0
63.069840279 353.0
63.096100844 341.0
63.122361410 316.0
63.148621975 339.0
63.174882541 324.0
63.201143106 354.0
63.227403671 308.0
63.253664237 308.0
63.279924802 318.0
63.306185367 289.0
63.332445933 329.0
63.358706498 322.0
63.384967063 277.0
63.411227629 287.0
63.437488194 266.0
63.463748759 273.0
63.490009325 294.0
63.516269890 287.0
63.542530455 266.0
63.568791021 247.0
63.595051586 281.0
63.621312152 300.0
63.647572717 285.0
63.673833282 267.0
63.700093848 314.0
63.726354413 284.0
63.752614978 277.0
63.778875544 264.0
63.805136109 296.0
63.831396674 300.0
63.857657240 324.0
63.883917805 306.0
63.910178370 271.0
63.936438936 278.0
63.962699501 306.0
63.988960067 296.0
64.015220632 305.0
64.041481197 291.0
64.067741763 285.0
64.094002328 270.0
64.120262893 311.0
64.146523459 281.0
64.172784024 277.0
64.199044589 289.0
64.225305155 271.0
64.251565720 294.0
64.277826285 276.0
64.304086851 257.0
64.330347416 286.0
64.356607981 285.0
64.382868547 290.0
64.409129112 290.0
64.435389678 258.0
64.461650243 245.0
64.487910808 268.0
64.514171374 309.0
64.540431939 263.0
64.566692504 255.0
64.592953070 232.0
64.619213635 256.0
64.645474200 244.0
64.671734766 254.0
64.697995331 240.0
64.724255896 234.0
64.750516462 255.0
64.776777027 239.0
64.803037593 257.0
64.829298158 232.0
64.855558723 236.0
64.881819289 206.0
64.908079854 247.0
64.934340419 256.0
64.960600985 231.0
64.986861550 197.0
