5.007730280 1478.0
5.033990845 1391.0
5.060251411 1424.0
5.086511976 1504.0
5.112772541 1450.0
5.139033107 1388.0
5.165293672 1352.0
5.191554237 1413.0
5.217814803 1432.0
5.244075368 1386.0
5.270335934 1398.0
5.296596499 1366.0
5.322857064 1369.0
5.349117630 1379.0
5.375378195 1323.0
5.401638760 1315.0
5.427899326 1319.0
5.454159891 1315.0
5.480420456 1321.0
5.506681022 1425.0
5.532941587 1297.0
5.559202152 1310.0
5.585462718 1329.0
5.611723283 1318.0
5.637983849 1350.0
5.664244414 1296.0
5.690504979 1358.0
5.716765545 1349.0
5.743026110 1325.0
5.769286675 1374.0
5.795547241 1326.0
5.821807806 1309.0
5.848068371 1291.0
5.874328937 1299.0
5.900589502 1297.0
5.926850067 1386.0
5.953110633 1324.0
5.979371198 1251.0
6.005631763 1295.0
6.031892329 1320.0
6.058152894 1268.0
6.084413460 1325.0
6.110674025 1342.0
6.136934590 1373.0
6.163195156 1358.0
6.189455721 1352.0
6.215716286 1365.0
6.241976852 1286.0
6.268237417 1294.0
6.294497982 1304.0
6.320758548 1310.0
6.347019113 1306.0
6.373279678 1293.0
6.399540244 1319.0
6.425800809 1297.0
6.452061375 1280.0
6.478321940 1335.0
6.504582505 1399.0
6.530843071 1325.0
6.557103636 1328.0
6.583364201 1365.0
6.609624767 1311.0
6.635885332 1342.0
6.662145897 1390.0
6.688406463 1393.0
6.714667028 1357.0
6.740927593 1403.0
6.767188159 1530.0
6.793448724 1522.0
6.819709289 1536.0
6.845969855 1635.0
6.872230420 1633.0
6.898490986 1726.0
6.924751551 1734.0
6.951012116 1865.0
6.977272682 1961.0
7.003533247 2155.0
7.029793812 2220.0
7.056054378 2460.0
7.082314943 2790.0
7.108575508 3016.0
7.134836074 3379.0
7.161096639 3778.0
7.187357204 4246.0
7.213617770 4601.0
7.239878335 4208.0
7.266138900 3240.0
7.292399466 2516.0
7.318660031 1963.0
7.344920597 1617.0
7.371181162 1453.0
7.397441727 1417.0
7.423702293 1244.0
7.449962858 1272.0
7.476223423 1214.0
7.502483989 1187.0
7.528744554 1219.0
7.555005119 1189.0
7.581265685 1164.0
7.607526250 1104.0
7.633786815 1137.0
7.660047381 1096.0
7.686307946 1126.0
7.712568512 1083.0
7.738829077 1074.0
7.765089642 1041.0
7.791350208 1066.0
7.817610773 1040.0
7.843871338 999.0
7.870131904 995.0
7.896392469 1010.0
7.922653034 1019.0
7.948913600 994.0
7.975174165 1019.0
8.001434730 1017.0
8.027695296 1077.0
8.053955861 1016.0
8.080216426 1004.0
8.106476992 986.0
8.132737557 973.0
8.158998123 983.0
8.185258688 962.0
8.211519253 1064.0
8.237779819 970.0
8.264040384 1006.0
8.290300949 996.0
8.316561515 1027.0
8.342822080 972.0
8.369082645 951.0
8.395343211 952.0
8.421603776 1020.0
8.447864341 944.0
8.474124907 951.0
8.500385472 934.0
8.526646038 954.0
8.552906603 899.0
8.579167168 953.0
8.605427734 910.0
8.631688299 906.0
8.657948864 926.0
8.684209430 1002.0
8.710469995 932.0
8.736730560 965.0
8.762991126 939.0
8.789251691 976.0
8.815512256 955.0
8.841772822 903.0
8.868033387 1010.0
8.894293952 952.0
8.920554518 913.0
8.946815083 922.0
8.973075649 959.0
8.999336214 919.0
9.025596779 982.0
9.051857345 925.0
9.078117910 998.0
9.104378475 834.0
9.130639041 938.0
9.156899606 959.0
9.183160171 954.0
9.209420737 920.0
9.235681302 978.0
9.261941867 937.0
9.288202433 967.0
9.314462998 1027.0
9.340723564 926.0
9.366984129 1006.0
9.393244694 932.0
9.419505260 978.0
9.445765825 985.0
9.472026390 1006.0
9.498286956 1014.0
9.524547521 997.0
9.550808086 983.0
9.577068652 1003.0
9.603329217 1107.0
9.629589782 1040.0
9.655850348 1033.0
9.682110913 1053.0
9.708371478 1042.0
9.734632044 1164.0
9.760892609 1161.0
9.787153175 1136.0
9.813413740 1292.0
9.839674305 1234.0
9.865934871 1350.0
9.892195436 1330.0
9.918456001 1349.0
9.944716567 1493.0
9.970977132 1476.0
9.997237697 1679.0
10.023498263 1820.0
10.049758828 1877.0
10.076019393 2021.0
10.102279959 2320.0
10.128540524 2508.0
10.154801090 2968.0
10.181061655 3234.0
10.207322220 3326.0
10.233582786 3068.0
10.259843351 2494.0
10.286103916 1977.0
10.312364482 1666.0
10.338625047 1463.0
10.364885612 1383.0
10.391146178 1358.0
10.417406743 1338.0
10.443667308 1245.0
10.469927874 1236.0
10.496188439 1324.0
10.522449004 1316.0
10.548709570 1246.0
10.574970135 1311.0
10.601230701 1284.0
10.627491266 1351.0
10.653751831 1281.0
10.680012397 1344.0
10.706272962 1281.0
10.732533527 1292.0
10.758794093 1271.0
10.785054658 1352.0
10.811315223 1369.0
10.837575789 1347.0
10.863836354 1360.0
10.890096919 1374.0
10.916357485 1445.0
10.942618050 1397.0
10.968878616 1391.0
10.995139181 1432.0
11.021399746 1446.0
11.047660312 1451.0
11.073920877 1442.0
11.100181442 1447.0
11.126442008 1554.0
11.152702573 1571.0
11.178963138 1491.0
11.205223704 1583.0
11.231484269 1637.0
11.257744834 1616.0
11.284005400 1598.0
11.310265965 1585.0
11.336526530 1675.0
11.362787096 1609.0
11.389047661 1739.0
11.415308227 1680.0
11.441568792 1647.0
11.467829357 1674.0
11.494089923 1671.0
11.520350488 1658.0
11.546611053 1705.0
11.572871619 1709.0
11.599132184 1671.0
11.625392749 1656.0
11.651653315 1550.0
11.677913880 1667.0
11.704174445 1701.0
11.730435011 1589.0
11.756695576 1605.0
11.782956141 1578.0
11.809216707 1544.0
11.835477272 1597.0
11.861737838 1569.0
11.887998403 1546.0
11.914258968 1499.0
11.940519534 1517.0
11.966780099 1469.0
11.993040664 1430.0
12.019301230 1454.0
12.045561795 1428.0
12.071822360 1409.0
12.098082926 1458.0
12.124343491 1454.0
12.150604056 1428.0
12.176864622 1438.0
12.203125187 1484.0
12.229385753 1448.0
12.255646318 1431.0
12.281906883 1487.0
12.308167449 1546.0
12.334428014 1612.0
12.360688579 1799.0
12.386949145 1798.0
12.413209710 1953.0
12.439470275 2101.0
12.465730841 2328.0
12.491991406 2492.0
12.518251971 2227.0
12.544512537 2010.0
12.570773102 1587.0
12.597033667 1462.0
12.623294233 1231.0
12.649554798 1115.0
12.675815364 1173.0
12.702075929 1021.0
12.728336494 1053.0
12.754597060 982.0
12.780857625 986.0
12.807118190 975.0
12.833378756 924.0
12.859639321 962.0
12.885899886 883.0
12.912160452 888.0
12.938421017 844.0
12.964681582 843.0
12.990942148 847.0
13.017202713 852.0
13.043463279 831.0
13.069723844 810.0
13.095984409 841.0
13.122244975 796.0
13.148505540 824.0
13.174766105 748.0
13.201026671 801.0
13.227287236 789.0
13.253547801 774.0
13.279808367 788.0
13.306068932 697.0
13.332329497 766.0
13.358590063 739.0
13.384850628 708.0
13.411111193 780.0
13.437371759 717.0
13.463632324 724.0
13.489892890 766.0
13.516153455 729.0
13.542414020 706.0
13.568674586 764.0
13.594935151 718.0
13.621195716 672.0
13.647456282 707.0
13.673716847 713.0
13.699977412 679.0
13.726237978 695.0
13.752498543 675.0
13.778759108 699.0
13.805019674 665.0
13.831280239 643.0
13.857540805 631.0
13.883801370 670.0
13.910061935 621.0
13.936322501 684.0
13.962583066 646.0
13.988843631 623.0
14.015104197 611.0
14.041364762 676.0
14.067625327 602.0
14.093885893 622.0
14.120146458 625.0
14.146407023 575.0
14.172667589 615.0
14.198928154 564.0
14.225188719 641.0
14.251449285 638.0
14.277709850 616.0
14.303970416 614.0
14.330230981 657.0
14.356491546 597.0
14.382752112 592.0
14.409012677 570.0
14.435273242 591.0
14.461533808 627.0
14.487794373 604.0
14.514054938 581.0
14.540315504 571.0
14.566576069 607.0
14.592836634 652.0
14.619097200 594.0
14.645357765 572.0
14.671618331 530.0
14.697878896 604.0
14.724139461 600.0
14.750400027 569.0
14.776660592 554.0
14.802921157 584.0
14.829181723 563.0
14.855442288 634.0
14.881702853 570.0
14.907963419 587.0
14.934223984 564.0
14.960484549 558.0
14.986745115 560.0
15.013005680 570.0
15.039266245 542.0
15.065526811 590.0
15.091787376 548.0
15.118047942 562.0
15.144308507 607.0
15.170569072 631.0
15.196829638 586.0
15.223090203 588.0
15.249350768 634.0
15.275611334 606.0
15.301871899 585.0
15.328132464 566.0
15.354393030 587.0
15.380653595 554.0
15.406914160 591.0
15.433174726 551.0
15.459435291 599.0
15.485695857 637.0
15.511956422 612.0
15.538216987 580.0
15.564477553 588.0
15.590738118 598.0
15.616998683 586.0
15.643259249 586.0
15.669519814 583.0
15.695780379 596.0
15.722040945 593.0
15.748301510 626.0
15.774562075 599.0
15.800822641 624.0
15.827083206 674.0
15.853343771 648.0
15.879604337 710.0
15.905864902 773.0
15.932125468 760.0
15.958386033 805.0
15.984646598 895.0
16.010907164 908.0
16.037167729 1013.0
16.063428294 1143.0
16.089688860 1229.0
16.115949425 1318.0
16.142209990 1386.0
16.168470556 1360.0
16.194731121 1154.0
16.220991686 1052.0
16.247252252 908.0
16.273512817 740.0
16.299773382 719.0
16.326033948 668.0
16.352294513 661.0
16.378555079 652.0
16.404815644 571.0
16.431076209 593.0
16.457336775 587.0
16.483597340 571.0
16.509857905 629.0
16.536118471 598.0
16.562379036 562.0
16.588639601 569.0
16.614900167 541.0
16.641160732 526.0
16.667421297 544.0
16.693681863 540.0
16.719942428 514.0
16.746202994 515.0
16.772463559 564.0
16.798724124 550.0
16.824984690 538.0
16.851245255 544.0
16.877505820 541.0
16.903766386 529.0
16.930026951 494.0
16.956287516 517.0
16.982548082 553.0
17.008808647 536.0
17.035069212 544.0
17.061329778 552.0
17.087590343 558.0
17.113850908 553.0
17.140111474 560.0
17.166372039 587.0
17.192632605 526.0
17.218893170 541.0
17.245153735 492.0
17.271414301 530.0
17.297674866 534.0
17.323935431 553.0
17.350195997 557.0
17.376456562 543.0
17.402717127 550.0
17.428977693 513.0
17.455238258 538.0
17.481498823 507.0
17.507759389 613.0
17.534019954 576.0
17.560280520 574.0
17.586541085 552.0
17.612801650 632.0
17.639062216 607.0
17.665322781 642.0
17.691583346 659.0
17.717843912 659.0
17.744104477 645.0
17.770365042 627.0
17.796625608 632.0
17.822886173 606.0
17.849146738 606.0
17.875407304 600.0
17.901667869 645.0
17.927928434 687.0
17.954189000 658.0
17.980449565 719.0
18.006710131 731.0
18.032970696 705.0
18.059231261 792.0
18.085491827 823.0
18.111752392 822.0
18.138012957 970.0
18.164273523 982.0
18.190534088 1091.0
18.216794653 1157.0
18.243055219 1254.0
18.269315784 1358.0
18.295576349 1560.0
18.321836915 1827.0
18.348097480 2028.0
18.374358046 2255.0
18.400618611 2542.0
18.426879176 2693.0
18.453139742 2920.0
18.479400307 3198.0
18.505660872 3343.0
18.531921438 3371.0
18.558182003 3436.0
18.584442568 3439.0
18.610703134 3434.0
18.636963699 3326.0
18.663224264 3298.0
18.689484830 3218.0
18.715745395 3318.0
18.742005960 3383.0
18.768266526 3155.0
18.794527091 2881.0
18.820787657 2392.0
18.847048222 1930.0
18.873308787 1671.0
18.899569353 1395.0
18.925829918 1127.0
18.952090483 1001.0
18.978351049 914.0
19.004611614 847.0
19.030872179 793.0
19.057132745 762.0
19.083393310 712.0
19.109653875 663.0
19.135914441 604.0
19.162175006 635.0
19.188435572 622.0
19.214696137 552.0
19.240956702 596.0
19.267217268 592.0
19.293477833 573.0
19.319738398 594.0
19.345998964 568.0
19.372259529 564.0
19.398520094 583.0
19.424780660 537.0
19.451041225 568.0
19.477301790 583.0
19.503562356 579.0
19.529822921 582.0
19.556083486 579.0
19.582344052 565.0
19.608604617 598.0
19.634865183 609.0
19.661125748 557.0
19.687386313 573.0
19.713646879 548.0
19.739907444 632.0
19.766168009 622.0
19.792428575 626.0
19.818689140 589.0
19.844949705 604.0
19.871210271 636.0
19.897470836 569.0
19.923731401 628.0
19.949991967 692.0
19.976252532 663.0
20.002513098 722.0
20.028773663 786.0
20.055034228 790.0
20.081294794 905.0
20.107555359 1040.0
20.133815924 1116.0
20.160076490 1347.0
20.186337055 1619.0
20.212597620 2033.0
20.238858186 2443.0
20.265118751 2887.0
20.291379316 3442.0
20.317639882 3664.0
20.343900447 3720.0
20.370161012 3666.0
20.396421578 3369.0
20.422682143 3078.0
20.448942709 2862.0
20.475203274 2713.0
20.501463839 2330.0
20.527724405 1950.0
20.553984970 1640.0
20.580245535 1384.0
20.606506101 1144.0
20.632766666 1029.0
20.659027231 903.0
20.685287797 861.0
20.711548362 809.0
20.737808927 769.0
20.764069493 738.0
20.790330058 664.0
20.816590623 650.0
20.842851189 656.0
20.869111754 664.0
20.895372320 642.0
20.921632885 601.0
20.947893450 613.0
20.974154016 634.0
21.000414581 582.0
21.026675146 607.0
21.052935712 557.0
21.079196277 585.0
21.105456842 605.0
21.131717408 566.0
21.157977973 600.0
21.184238538 606.0
21.210499104 584.0
21.236759669 605.0
21.263020235 620.0
21.289280800 617.0
21.315541365 660.0
21.341801931 695.0
21.368062496 742.0
21.394323061 764.0
21.420583627 764.0
21.446844192 799.0
21.473104757 843.0
21.499365323 879.0
21.525625888 914.0
21.551886453 952.0
21.578147019 1074.0
21.604407584 1201.0
21.630668149 1448.0
21.656928715 1470.0
21.683189280 1714.0
21.709449846 1839.0
21.735710411 1666.0
21.761970976 1472.0
21.788231542 1261.0
21.814492107 1048.0
21.840752672 934.0
21.867013238 825.0
21.893273803 773.0
21.919534368 689.0
21.945794934 654.0
21.972055499 621.0
21.998316064 614.0
22.024576630 614.0
22.050837195 650.0
22.077097761 586.0
22.103358326 608.0
22.129618891 552.0
22.155879457 568.0
22.182140022 634.0
22.208400587 570.0
22.234661153 549.0
22.260921718 570.0
22.287182283 598.0
22.313442849 605.0
22.339703414 556.0
22.365963979 602.0
22.392224545 569.0
22.418485110 606.0
22.444745675 607.0
22.471006241 624.0
22.497266806 662.0
22.523527372 652.0
22.549787937 628.0
22.576048502 682.0
22.602309068 633.0
22.628569633 672.0
22.654830198 676.0
22.681090764 652.0
22.707351329 688.0
22.733611894 713.0
22.759872460 719.0
22.786133025 733.0
22.812393590 768.0
22.838654156 783.0
22.864914721 780.0
22.891175287 831.0
22.917435852 817.0
22.943696417 843.0
22.969956983 811.0
22.996217548 850.0
23.022478113 840.0
23.048738679 826.0
23.074999244 826.0
23.101259809 801.0
23.127520375 827.0
23.153780940 874.0
23.180041505 831.0
23.206302071 876.0
23.232562636 887.0
23.258823201 898.0
23.285083767 863.0
23.311344332 890.0
23.337604898 905.0
23.363865463 921.0
23.390126028 906.0
23.416386594 945.0
23.442647159 924.0
23.468907724 995.0
23.495168290 981.0
23.521428855 988.0
23.547689420 1015.0
23.573949986 1004.0
23.600210551 985.0
23.626471116 977.0
23.652731682 1087.0
23.678992247 1019.0
23.705252813 1050.0
23.731513378 1069.0
23.757773943 1149.0
23.784034509 1185.0
23.810295074 1268.0
23.836555639 1371.0
23.862816205 1414.0
23.889076770 1582.0
23.915337335 1799.0
23.941597901 1964.0
23.967858466 2162.0
23.994119031 2526.0
24.020379597 2587.0
24.046640162 2540.0
24.072900727 2347.0
24.099161293 1928.0
24.125421858 1704.0
24.151682424 1446.0
24.177942989 1198.0
24.204203554 1058.0
24.230464120 936.0
24.256724685 884.0
24.282985250 782.0
24.309245816 755.0
24.335506381 720.0
24.361766946 669.0
24.388027512 650.0
24.414288077 677.0
24.440548642 623.0
24.466809208 617.0
24.493069773 604.0
24.519330338 566.0
24.545590904 577.0
24.571851469 567.0
24.598112035 560.0
24.624372600 555.0
24.650633165 561.0
24.676893731 555.0
24.703154296 550.0
24.729414861 527.0
24.755675427 528.0
24.781935992 482.0
24.808196557 496.0
24.834457123 440.0
24.860717688 467.0
24.886978253 480.0
24.913238819 496.0
24.939499384 432.0
24.965759950 482.0
24.992020515 503.0
25.018281080 510.0
25.044541646 439.0
25.070802211 545.0
25.097062776 521.0
25.123323342 489.0
25.149583907 522.0
25.175844472 471.0
25.202105038 457.0
25.228365603 446.0
25.254626168 505.0
25.280886734 447.0
25.307147299 485.0
25.333407864 473.0
25.359668430 472.0
25.385928995 424.0
25.412189561 461.0
25.438450126 503.0
25.464710691 430.0
25.490971257 435.0
25.517231822 425.0
25.543492387 494.0
25.569752953 518.0
25.596013518 439.0
25.622274083 412.0
25.648534649 462.0
25.674795214 466.0
25.701055779 501.0
25.727316345 448.0
25.753576910 464.0
25.779837476 507.0
25.806098041 533.0
25.832358606 523.0
25.858619172 494.0
25.884879737 517.0
25.911140302 559.0
25.937400868 610.0
25.963661433 637.0
25.989921998 638.0
26.016182564 692.0
26.042443129 772.0
26.068703694 825.0
26.094964260 878.0
26.121224825 959.0
26.147485390 1060.0
26.173745956 1035.0
26.200006521 1007.0
26.226267087 843.0
26.252527652 808.0
26.278788217 712.0
26.305048783 684.0
26.331309348 629.0
26.357569913 593.0
26.383830479 556.0
26.410091044 559.0
26.436351609 572.0
26.462612175 543.0
26.488872740 597.0
26.515133305 569.0
26.541393871 579.0
26.567654436 555.0
26.593915002 592.0
26.620175567 600.0
26.646436132 607.0
26.672696698 579.0
26.698957263 621.0
26.725217828 676.0
26.751478394 662.0
26.777738959 674.0
26.803999524 722.0
26.830260090 717.0
26.856520655 747.0
26.882781220 838.0
26.909041786 811.0
26.935302351 901.0
26.961562916 964.0
26.987823482 1101.0
27.014084047 1237.0
27.040344613 1482.0
27.066605178 1587.0
27.092865743 1855.0
27.119126309 2067.0
27.145386874 2211.0
27.171647439 2147.0
27.197908005 2025.0
27.224168570 1816.0
27.250429135 1641.0
27.276689701 1408.0
27.302950266 1181.0
27.329210831 1058.0
27.355471397 1026.0
27.381731962 885.0
27.407992528 828.0
27.434253093 774.0
27.460513658 808.0
27.486774224 785.0
27.513034789 765.0
27.539295354 826.0
27.565555920 826.0
27.591816485 814.0
27.618077050 847.0
27.644337616 879.0
27.670598181 855.0
27.696858746 989.0
27.723119312 1005.0
27.749379877 1013.0
27.775640442 1078.0
27.801901008 1111.0
27.828161573 978.0
27.854422139 1016.0
27.880682704 1004.0
27.906943269 923.0
27.933203835 881.0
27.959464400 851.0
27.985724965 787.0
28.011985531 699.0
28.038246096 704.0
28.064506661 698.0
28.090767227 672.0
28.117027792 637.0
28.143288357 637.0
28.169548923 619.0
28.195809488 597.0
28.222070054 592.0
28.248330619 559.0
28.274591184 556.0
28.300851750 549.0
28.327112315 525.0
28.353372880 517.0
28.379633446 569.0
28.405894011 523.0
28.432154576 521.0
28.458415142 539.0
28.484675707 520.0
28.510936272 450.0
28.537196838 528.0
28.563457403 565.0
28.589717968 434.0
28.615978534 499.0
28.642239099 465.0
28.668499665 500.0
28.694760230 496.0
28.721020795 487.0
28.747281361 532.0
28.773541926 532.0
28.799802491 511.0
28.826063057 487.0
28.852323622 517.0
28.878584187 507.0
28.904844753 509.0
28.931105318 534.0
28.957365883 516.0
28.983626449 541.0
29.009887014 505.0
29.036147579 515.0
29.062408145 560.0
29.088668710 540.0
29.114929276 518.0
29.141189841 515.0
29.167450406 546.0
29.193710972 531.0
29.219971537 501.0
29.246232102 552.0
29.272492668 547.0
29.298753233 503.0
29.325013798 521.0
29.351274364 533.0
29.377534929 538.0
29.403795494 476.0
29.430056060 550.0
29.456316625 516.0
29.482577191 583.0
29.508837756 547.0
29.535098321 619.0
29.561358887 567.0
29.587619452 591.0
29.613880017 641.0
29.640140583 648.0
29.666401148 686.0
29.692661713 752.0
29.718922279 804.0
29.745182844 896.0
29.771443409 974.0
29.797703975 1118.0
29.823964540 1213.0
29.850225105 1449.0
29.876485671 1574.0
29.902746236 1924.0
29.929006802 2169.0
29.955267367 2465.0
29.981527932 2425.0
30.007788498 2405.0
30.034049063 2137.0
30.060309628 1885.0
30.086570194 1638.0
30.112830759 1450.0
30.139091324 1157.0
30.165351890 977.0
30.191612455 886.0
30.217873020 774.0
30.244133586 758.0
30.270394151 654.0
30.296654717 620.0
30.322915282 584.0
30.349175847 571.0
30.375436413 583.0
30.401696978 579.0
30.427957543 556.0
30.454218109 530.0
30.480478674 498.0
30.506739239 548.0
30.532999805 540.0
30.559260370 517.0
30.585520935 513.0
30.611781501 523.0
30.638042066 570.0
30.664302631 557.0
30.690563197 590.0
30.716823762 584.0
30.743084328 623.0
30.769344893 652.0
30.795605458 699.0
30.821866024 760.0
30.848126589 750.0
30.874387154 782.0
30.900647720 712.0
30.926908285 710.0
30.953168850 660.0
30.979429416 590.0
31.005689981 558.0
31.031950546 552.0
31.058211112 530.0
31.084471677 502.0
31.110732243 485.0
31.136992808 440.0
31.163253373 472.0
31.189513939 437.0
31.215774504 443.0
31.242035069 464.0
31.268295635 416.0
31.294556200 436.0
31.320816765 455.0
31.347077331 426.0
31.373337896 397.0
31.399598461 436.0
31.425859027 422.0
31.452119592 411.0
31.478380157 401.0
31.504640723 435.0
31.530901288 434.0
31.557161854 426.0
31.583422419 393.0
31.609682984 459.0
31.635943550 423.0
31.662204115 410.0
31.688464680 402.0
31.714725246 396.0
31.740985811 418.0
31.767246376 425.0
31.793506942 401.0
31.819767507 405.0
31.846028072 420.0
31.872288638 414.0
31.898549203 433.0
31.924809769 401.0
31.951070334 439.0
31.977330899 413.0
32.003591465 387.0
32.029852030 415.0
32.056112595 397.0
32.082373161 385.0
32.108633726 424.0
32.134894291 414.0
32.161154857 389.0
32.187415422 427.0
32.213675987 460.0
32.239936553 411.0
32.266197118 497.0
32.292457683 429.0
32.318718249 458.0
32.344978814 437.0
32.371239380 473.0
32.397499945 557.0
32.423760510 551.0
32.450021076 579.0
32.476281641 645.0
32.502542206 624.0
32.528802772 726.0
32.555063337 744.0
32.581323902 717.0
32.607584468 748.0
32.633845033 682.0
32.660105598 654.0
32.686366164 625.0
32.712626729 554.0
32.738887295 565.0
32.765147860 546.0
32.791408425 480.0
32.817668991 441.0
32.843929556 434.0
32.870190121 445.0
32.896450687 428.0
32.922711252 430.0
32.948971817 423.0
32.975232383 446.0
33.001492948 448.0
33.027753513 447.0
33.054014079 458.0
33.080274644 441.0
33.106535209 438.0
33.132795775 461.0
33.159056340 434.0
33.185316906 464.0
33.211577471 470.0
33.237838036 478.0
33.264098602 477.0
33.290359167 477.0
33.316619732 509.0
33.342880298 482.0
33.369140863 554.0
33.395401428 565.0
33.421661994 534.0
33.447922559 505.0
33.474183124 471.0
33.500443690 514.0
33.526704255 484.0
33.552964820 470.0
33.579225386 478.0
33.605485951 434.0
33.631746517 455.0
33.658007082 411.0
33.684267647 453.0
33.710528213 436.0
33.736788778 404.0
33.763049343 479.0
33.789309909 461.0
33.815570474 461.0
33.841831039 527.0
33.868091605 528.0
33.894352170 544.0
33.920612735 598.0
33.946873301 561.0
33.973133866 651.0
33.999394432 738.0
34.025654997 750.0
34.051915562 886.0
34.078176128 1000.0
34.104436693 1096.0
34.130697258 1234.0
34.156957824 1401.0
34.183218389 1578.0
34.209478954 1650.0
34.235739520 1659.0
34.262000085 1618.0
34.288260650 1437.0
34.314521216 1432.0
34.340781781 1200.0
34.367042346 1101.0
34.393302912 1037.0
34.419563477 992.0
34.445824043 984.0
34.472084608 914.0
34.498345173 894.0
34.524605739 894.0
34.550866304 894.0
34.577126869 879.0
34.603387435 881.0
34.629648000 926.0
34.655908565 817.0
34.682169131 891.0
34.708429696 845.0
34.734690261 876.0
34.760950827 767.0
34.787211392 807.0
34.813471958 848.0
34.839732523 816.0
34.865993088 796.0
34.892253654 816.0
34.918514219 804.0
34.944774784 779.0
34.971035350 769.0
34.997295915 738.0
35.023556480 735.0
35.049817046 735.0
35.076077611 754.0
35.102338176 715.0
35.128598742 709.0
35.154859307 696.0
35.181119872 697.0
35.207380438 608.0
35.233641003 668.0
35.259901569 615.0
35.286162134 607.0
35.312422699 649.0
35.338683265 664.0
35.364943830 576.0
35.391204395 595.0
35.417464961 564.0
35.443725526 584.0
35.469986091 578.0
35.496246657 616.0
35.522507222 586.0
35.548767787 605.0
35.575028353 607.0
35.601288918 591.0
35.627549484 621.0
35.653810049 623.0
35.680070614 650.0
35.706331180 693.0
35.732591745 677.0
35.758852310 689.0
35.785112876 750.0
35.811373441 717.0
35.837634006 717.0
35.863894572 691.0
35.890155137 637.0
35.916415702 626.0
35.942676268 618.0
35.968936833 597.0
35.995197398 622.0
36.021457964 586.0
36.047718529 583.0
36.073979095 556.0
36.100239660 581.0
36.126500225 591.0
36.152760791 590.0
36.179021356 567.0
36.205281921 575.0
36.231542487 541.0
36.257803052 608.0
36.284063617 606.0
36.310324183 606.0
36.336584748 601.0
36.362845313 651.0
36.389105879 623.0
36.415366444 637.0
36.441627010 650.0
36.467887575 624.0
36.494148140 662.0
36.520408706 647.0
36.546669271 685.0
36.572929836 679.0
36.599190402 641.0
36.625450967 623.0
36.651711532 607.0
36.677972098 580.0
36.704232663 547.0
36.730493228 518.0
36.756753794 552.0
36.783014359 479.0
36.809274924 516.0
36.835535490 516.0
36.861796055 469.0
36.888056621 460.0
36.914317186 433.0
36.940577751 475.0
36.966838317 476.0
36.993098882 467.0
37.019359447 470.0
37.045620013 505.0
37.071880578 502.0
37.098141143 479.0
37.124401709 484.0
37.150662274 516.0
37.176922839 539.0
37.203183405 477.0
37.229443970 465.0
37.255704535 482.0
37.281965101 538.0
37.308225666 545.0
37.334486232 574.0
37.360746797 544.0
37.387007362 546.0
37.413267928 588.0
37.439528493 555.0
37.465789058 569.0
37.492049624 592.0
37.518310189 594.0
37.544570754 605.0
37.570831320 645.0
37.597091885 601.0
37.623352450 643.0
37.649613016 630.0
37.675873581 594.0
37.702134147 643.0
37.728394712 592.0
37.754655277 606.0
37.780915843 642.0
37.807176408 599.0
37.833436973 565.0
37.859697539 620.0
37.885958104 654.0
37.912218669 680.0
37.938479235 641.0
37.964739800 690.0
37.991000365 684.0
38.017260931 726.0
38.043521496 683.0
38.069782061 720.0
38.096042627 695.0
38.122303192 723.0
38.148563758 684.0
38.174824323 651.0
38.201084888 631.0
38.227345454 609.0
38.253606019 588.0
38.279866584 554.0
38.306127150 601.0
38.332387715 553.0
38.358648280 579.0
38.384908846 557.0
38.411169411 580.0
38.437429976 595.0
38.463690542 569.0
38.489951107 605.0
38.516211673 600.0
38.542472238 596.0
38.568732803 596.0
38.594993369 629.0
38.621253934 576.0
38.647514499 632.0
38.673775065 614.0
38.700035630 611.0
38.726296195 638.0
38.752556761 595.0
38.778817326 562.0
38.805077891 608.0
38.831338457 615.0
38.857599022 606.0
38.883859587 619.0
38.910120153 612.0
38.936380718 658.0
38.962641284 613.0
38.988901849 609.0
39.015162414 646.0
39.041422980 617.0
39.067683545 632.0
39.093944110 634.0
39.120204676 616.0
39.146465241 624.0
39.172725806 651.0
39.198986372 704.0
39.225246937 638.0
39.251507502 620.0
39.277768068 604.0
39.304028633 669.0
39.330289199 694.0
39.356549764 695.0
39.382810329 672.0
39.409070895 683.0
39.435331460 687.0
39.461592025 623.0
39.487852591 710.0
39.514113156 667.0
39.540373721 690.0
39.566634287 689.0
39.592894852 695.0
39.619155417 748.0
39.645415983 672.0
39.671676548 667.0
39.697937113 691.0
39.724197679 713.0
39.750458244 610.0
39.776718810 670.0
39.802979375 727.0
39.829239940 779.0
39.855500506 728.0
39.881761071 776.0
39.908021636 713.0
39.934282202 748.0
39.960542767 722.0
39.986803332 788.0
40.013063898 811.0
40.039324463 810.0
40.065585028 827.0
40.091845594 859.0
40.118106159 912.0
40.144366725 938.0
40.170627290 915.0
40.196887855 975.0
40.223148421 1029.0
40.249408986 1022.0
40.275669551 1119.0
40.301930117 1126.0
40.328190682 1181.0
40.354451247 1209.0
40.380711813 1279.0
40.406972378 1357.0
40.433232943 1394.0
40.459493509 1540.0
40.485754074 1652.0
40.512014639 1695.0
40.538275205 1636.0
40.564535770 1746.0
40.590796336 1767.0
40.617056901 1702.0
40.643317466 1638.0
40.669578032 1553.0
40.695838597 1407.0
40.722099162 1341.0
40.748359728 1289.0
40.774620293 1115.0
40.800880858 1037.0
40.827141424 940.0
40.853401989 862.0
40.879662554 807.0
40.905923120 819.0
40.932183685 790.0
40.958444251 729.0
40.984704816 671.0
41.010965381 702.0
41.037225947 669.0
41.063486512 650.0
41.089747077 714.0
41.116007643 640.0
41.142268208 650.0
41.168528773 624.0
41.194789339 603.0
41.221049904 598.0
41.247310469 565.0
41.273571035 639.0
41.299831600 603.0
41.326092165 637.0
41.352352731 663.0
41.378613296 621.0
41.404873862 638.0
41.431134427 678.0
41.457394992 668.0
41.483655558 705.0
41.509916123 712.0
41.536176688 713.0
41.562437254 708.0
41.588697819 769.0
41.614958384 728.0
41.641218950 660.0
41.667479515 682.0
41.693740080 620.0
41.720000646 658.0
41.746261211 608.0
41.772521776 637.0
41.798782342 590.0
41.825042907 536.0
41.851303473 547.0
41.877564038 568.0
41.903824603 562.0
41.930085169 541.0
41.956345734 505.0
41.982606299 526.0
42.008866865 526.0
42.035127430 561.0
42.061387995 603.0
42.087648561 547.0
42.113909126 570.0
42.140169691 584.0
42.166430257 571.0
42.192690822 581.0
42.218951388 639.0
42.245211953 614.0
42.271472518 578.0
42.297733084 578.0
42.323993649 601.0
42.350254214 537.0
42.376514780 495.0
42.402775345 503.0
42.429035910 473.0
42.455296476 458.0
42.481557041 495.0
42.507817606 458.0
42.534078172 466.0
42.560338737 412.0
42.586599302 438.0
42.612859868 470.0
42.639120433 463.0
42.665380999 460.0
42.691641564 435.0
42.717902129 490.0
42.744162695 460.0
42.770423260 493.0
42.796683825 448.0
42.822944391 472.0
42.849204956 489.0
42.875465521 535.0
42.901726087 535.0
42.927986652 488.0
42.954247217 514.0
42.980507783 510.0
43.006768348 436.0
43.033028914 485.0
43.059289479 437.0
43.085550044 424.0
43.111810610 445.0
43.138071175 421.0
43.164331740 408.0
43.190592306 466.0
43.216852871 409.0
43.243113436 466.0
43.269374002 432.0
43.295634567 458.0
43.321895132 456.0
43.348155698 442.0
43.374416263 483.0
43.400676828 481.0
43.426937394 473.0
43.453197959 492.0
43.479458525 533.0
43.505719090 488.0
43.531979655 525.0
43.558240221 509.0
43.584500786 510.0
43.610761351 507.0
43.637021917 488.0
43.663282482 459.0
43.689543047 512.0
43.715803613 475.0
43.742064178 479.0
43.768324743 458.0
43.794585309 475.0
43.820845874 422.0
43.847106440 483.0
43.873367005 451.0
43.899627570 438.0
43.925888136 461.0
43.952148701 474.0
43.978409266 462.0
44.004669832 491.0
44.030930397 454.0
44.057190962 518.0
44.083451528 551.0
44.109712093 558.0
44.135972658 607.0
44.162233224 616.0
44.188493789 629.0
44.214754354 604.0
44.241014920 606.0
44.267275485 626.0
44.293536051 569.0
44.319796616 552.0
44.346057181 523.0
44.372317747 487.0
44.398578312 467.0
44.424838877 492.0
44.451099443 455.0
44.477360008 454.0
44.503620573 465.0
44.529881139 473.0
44.556141704 394.0
44.582402269 416.0
44.608662835 404.0
44.634923400 411.0
44.661183966 431.0
44.687444531 378.0
44.713705096 404.0
44.739965662 394.0
44.766226227 441.0
44.792486792 387.0
44.818747358 430.0
44.845007923 465.0
44.871268488 427.0
44.897529054 425.0
44.923789619 437.0
44.950050184 427.0
44.976310750 352.0
45.002571315 393.0
45.028831880 384.0
45.055092446 427.0
45.081353011 408.0
45.107613577 450.0
45.133874142 439.0
45.160134707 416.0
45.186395273 416.0
45.212655838 427.0
45.238916403 420.0
45.265176969 446.0
45.291437534 405.0
45.317698099 430.0
45.343958665 396.0
45.370219230 448.0
45.396479795 427.0
45.422740361 404.0
45.449000926 458.0
45.475261492 464.0
45.501522057 453.0
45.527782622 470.0
45.554043188 428.0
45.580303753 463.0
45.606564318 464.0
45.632824884 495.0
45.659085449 503.0
45.685346014 508.0
45.711606580 488.0
45.737867145 540.0
45.764127710 511.0
45.790388276 512.0
45.816648841 532.0
45.842909406 472.0
45.869169972 481.0
45.895430537 494.0
45.921691103 460.0
45.947951668 463.0
45.974212233 512.0
46.000472799 477.0
46.026733364 474.0
46.052993929 481.0
46.079254495 460.0
46.105515060 429.0
46.131775625 425.0
46.158036191 524.0
46.184296756 468.0
46.210557321 418.0
46.236817887 479.0
46.263078452 456.0
46.289339017 446.0
46.315599583 440.0
46.341860148 452.0
46.368120714 436.0
46.394381279 434.0
46.420641844 466.0
46.446902410 419.0
46.473162975 456.0
46.499423540 412.0
46.525684106 471.0
46.551944671 427.0
46.578205236 434.0
46.604465802 504.0
46.630726367 423.0
46.656986932 439.0
46.683247498 467.0
46.709508063 405.0
46.735768629 469.0
46.762029194 446.0
46.788289759 398.0
46.814550325 445.0
46.840810890 380.0
46.867071455 426.0
46.893332021 386.0
46.919592586 455.0
46.945853151 419.0
46.972113717 443.0
46.998374282 468.0
47.024634847 460.0
47.050895413 448.0
47.077155978 432.0
47.103416543 467.0
47.129677109 467.0
47.155937674 488.0
47.182198240 532.0
47.208458805 530.0
47.234719370 528.0
47.260979936 575.0
47.287240501 608.0
47.313501066 603.0
47.339761632 619.0
47.366022197 571.0
47.392282762 550.0
47.418543328 570.0
47.444803893 567.0
47.471064458 573.0
47.497325024 508.0
47.523585589 476.0
47.549846155 482.0
47.576106720 446.0
47.602367285 465.0
47.628627851 433.0
47.654888416 483.0
47.681148981 426.0
47.707409547 428.0
47.733670112 410.0
47.759930677 434.0
47.786191243 450.0
47.812451808 459.0
47.838712373 425.0
47.864972939 458.0
47.891233504 419.0
47.917494069 544.0
47.943754635 523.0
47.970015200 493.0
47.996275766 526.0
48.022536331 515.0
48.048796896 438.0
48.075057462 443.0
48.101318027 413.0
48.127578592 444.0
48.153839158 426.0
48.180099723 377.0
48.206360288 390.0
48.232620854 396.0
48.258881419 376.0
48.285141984 371.0
48.311402550 393.0
48.337663115 363.0
48.363923681 361.0
48.390184246 347.0
48.416444811 372.0
48.442705377 361.0
48.468965942 370.0
48.495226507 354.0
48.521487073 370.0
48.547747638 381.0
48.574008203 388.0
48.600268769 369.0
48.626529334 341.0
48.652789899 368.0
48.679050465 378.0
48.705311030 356.0
48.731571595 324.0
48.757832161 344.0
48.784092726 348.0
48.810353292 356.0
48.836613857 349.0
48.862874422 331.0
48.889134988 383.0
48.915395553 333.0
48.941656118 356.0
48.967916684 357.0
48.994177249 363.0
49.020437814 362.0
49.046698380 363.0
49.072958945 347.0
49.099219510 367.0
49.125480076 345.0
49.151740641 382.0
49.178001207 398.0
49.204261772 382.0
49.230522337 384.0
49.256782903 341.0
49.283043468 351.0
49.309304033 330.0
49.335564599 398.0
49.361825164 355.0
49.388085729 327.0
49.414346295 356.0
49.440606860 378.0
49.466867425 356.0
49.493127991 359.0
49.519388556 367.0
49.545649121 386.0
49.571909687 379.0
49.598170252 402.0
49.624430818 397.0
49.650691383 416.0
49.676951948 384.0
49.703212514 399.0
49.729473079 390.0
49.755733644 386.0
49.781994210 418.0
49.808254775 378.0
49.834515340 398.0
49.860775906 375.0
49.887036471 369.0
49.913297036 361.0
49.939557602 388.0
49.965818167 342.0
49.992078733 358.0
50.018339298 359.0
50.044599863 355.0
50.070860429 348.0
50.097120994 304.0
50.123381559 352.0
50.149642125 371.0
50.175902690 351.0
50.202163255 372.0
50.228423821 329.0
50.254684386 305.0
50.280944951 336.0
50.307205517 326.0
50.333466082 337.0
50.359726647 309.0
50.385987213 333.0
50.412247778 322.0
50.438508344 312.0
50.464768909 356.0
50.491029474 334.0
50.517290040 336.0
50.543550605 315.0
50.569811170 328.0
50.596071736 332.0
50.622332301 318.0
50.648592866 352.0
50.674853432 340.0
50.701113997 315.0
50.727374562 292.0
50.753635128 351.0
50.779895693 356.0
50.806156258 361.0
50.832416824 334.0
50.858677389 327.0
50.884937955 318.0
50.911198520 346.0
50.937459085 362.0
50.963719651 340.0
50.989980216 331.0
51.016240781 330.0
51.042501347 364.0
51.068761912 334.0
51.095022477 346.0
51.121283043 340.0
51.147543608 335.0
51.173804173 336.0
51.200064739 327.0
51.226325304 359.0
51.252585870 331.0
51.278846435 355.0
51.305107000 328.0
51.331367566 371.0
51.357628131 338.0
51.383888696 345.0
51.410149262 360.0
51.436409827 355.0
51.462670392 413.0
51.488930958 330.0
51.515191523 359.0
51.541452088 376.0
51.567712654 362.0
51.593973219 380.0
51.620233784 380.0
51.646494350 386.0
51.672754915 371.0
51.699015481 356.0
51.725276046 376.0
51.751536611 354.0
51.777797177 391.0
51.804057742 388.0
51.830318307 434.0
51.856578873 375.0
51.882839438 401.0
51.909100003 416.0
51.935360569 422.0
51.961621134 443.0
51.987881699 424.0
52.014142265 412.0
52.040402830 417.0
52.066663396 440.0
52.092923961 448.0
52.119184526 475.0
52.145445092 463.0
52.171705657 414.0
52.197966222 472.0
52.224226788 505.0
52.250487353 497.0
52.276747918 452.0
52.303008484 487.0
52.329269049 512.0
52.355529614 525.0
52.381790180 519.0
52.408050745 584.0
52.434311310 618.0
52.460571876 627.0
52.486832441 657.0
52.513093007 646.0
52.539353572 733.0
52.565614137 743.0
52.591874703 776.0
52.618135268 812.0
52.644395833 794.0
52.670656399 802.0
52.696916964 802.0
52.723177529 793.0
52.749438095 778.0
52.775698660 855.0
52.801959225 772.0
52.828219791 739.0
52.854480356 702.0
52.880740922 726.0
52.907001487 698.0
52.933262052 746.0
52.959522618 758.0
52.985783183 759.0
53.012043748 836.0
53.038304314 780.0
53.064564879 857.0
53.090825444 854.0
53.117086010 863.0
53.143346575 870.0
53.169607140 828.0
53.195867706 784.0
53.222128271 805.0
53.248388836 772.0
53.274649402 673.0
53.300909967 694.0
53.327170533 643.0
53.353431098 582.0
53.379691663 599.0
53.405952229 553.0
53.432212794 520.0
53.458473359 510.0
53.484733925 476.0
53.510994490 503.0
53.537255055 461.0
53.563515621 457.0
53.589776186 422.0
53.616036751 438.0
53.642297317 438.0
53.668557882 410.0
53.694818448 437.0
53.721079013 364.0
53.747339578 392.0
53.773600144 412.0
53.799860709 400.0
53.826121274 416.0
53.852381840 357.0
53.878642405 361.0
53.904902970 375.0
53.931163536 363.0
53.957424101 365.0
53.983684666 371.0
54.009945232 347.0
54.036205797 396.0
54.062466362 420.0
54.088726928 359.0
54.114987493 412.0
54.141248059 393.0
54.167508624 411.0
54.193769189 419.0
54.220029755 451.0
54.246290320 446.0
54.272550885 470.0
54.298811451 490.0
54.325072016 466.0
54.351332581 439.0
54.377593147 439.0
54.403853712 441.0
54.430114277 432.0
54.456374843 396.0
54.482635408 367.0
54.508895973 375.0
54.535156539 378.0
54.561417104 331.0
54.587677670 332.0
54.613938235 327.0
54.640198800 339.0
54.666459366 319.0
54.692719931 345.0
54.718980496 328.0
54.745241062 319.0
54.771501627 289.0
54.797762192 317.0
54.824022758 343.0
54.850283323 297.0
54.876543888 363.0
54.902804454 326.0
54.929065019 320.0
54.955325585 347.0
54.981586150 325.0
55.007846715 309.0
55.034107281 309.0
55.060367846 299.0
55.086628411 271.0
55.112888977 260.0
55.139149542 291.0
55.165410107 292.0
55.191670673 279.0
55.217931238 280.0
55.244191803 281.0
55.270452369 274.0
55.296712934 263.0
55.322973499 253.0
55.349234065 300.0
55.375494630 265.0
55.401755196 281.0
55.428015761 289.0
55.454276326 303.0
55.480536892 275.0
55.506797457 283.0
55.533058022 288.0
55.559318588 296.0
55.585579153 323.0
55.611839718 297.0
55.638100284 292.0
55.664360849 322.0
55.690621414 285.0
55.716881980 307.0
55.743142545 309.0
55.769403111 316.0
55.795663676 333.0
55.821924241 349.0
55.848184807 290.0
55.874445372 326.0
55.900705937 328.0
55.926966503 325.0
55.953227068 322.0
55.979487633 357.0
56.005748199 360.0
56.032008764 336.0
56.058269329 311.0
56.084529895 285.0
56.110790460 292.0
56.137051025 297.0
56.163311591 295.0
56.189572156 287.0
56.215832722 297.0
56.242093287 305.0
56.268353852 326.0
56.294614418 327.0
56.320874983 313.0
56.347135548 307.0
56.373396114 326.0
56.399656679 299.0
56.425917244 350.0
56.452177810 349.0
56.478438375 331.0
56.504698940 322.0
56.530959506 334.0
56.557220071 321.0
56.583480637 326.0
56.609741202 322.0
56.636001767 338.0
56.662262333 300.0
56.688522898 298.0
56.714783463 287.0
56.741044029 314.0
56.767304594 304.0
56.793565159 296.0
56.819825725 282.0
56.846086290 282.0
56.872346855 299.0
56.898607421 315.0
56.924867986 276.0
56.951128551 308.0
56.977389117 309.0
57.003649682 285.0
57.029910248 308.0
57.056170813 310.0
57.082431378 277.0
57.108691944 314.0
57.134952509 346.0
57.161213074 311.0
57.187473640 350.0
57.213734205 294.0
57.239994770 362.0
57.266255336 330.0
57.292515901 368.0
57.318776466 361.0
57.345037032 377.0
57.371297597 409.0
57.397558163 405.0
57.423818728 433.0
57.450079293 434.0
57.476339859 453.0
57.502600424 431.0
57.528860989 430.0
57.555121555 450.0
57.581382120 461.0
57.607642685 467.0
57.633903251 414.0
57.660163816 449.0
57.686424381 417.0
57.712684947 395.0
57.738945512 369.0
57.765206077 369.0
57.791466643 357.0
57.817727208 340.0
57.843987774 297.0
57.870248339 337.0
57.896508904 296.0
57.922769470 319.0
57.949030035 299.0
57.975290600 259.0
58.001551166 243.0
58.027811731 278.0
58.054072296 280.0
58.080332862 295.0
58.106593427 287.0
58.132853992 264.0
58.159114558 254.0
58.185375123 242.0
58.211635689 293.0
58.237896254 274.0
58.264156819 310.0
58.290417385 301.0
58.316677950 327.0
58.342938515 305.0
58.369199081 294.0
58.395459646 287.0
58.421720211 342.0
58.447980777 273.0
58.474241342 348.0
58.500501907 329.0
58.526762473 391.0
58.553023038 417.0
58.579283603 428.0
58.605544169 448.0
58.631804734 431.0
58.658065300 414.0
58.684325865 401.0
58.710586430 420.0
58.736846996 403.0
58.763107561 384.0
58.789368126 400.0
58.815628692 370.0
58.841889257 367.0
58.868149822 369.0
58.894410388 375.0
58.920670953 368.0
58.946931518 303.0
58.973192084 358.0
58.999452649 327.0
59.025713214 368.0
59.051973780 314.0
59.078234345 337.0
59.104494911 324.0
59.130755476 330.0
59.157016041 333.0
59.183276607 336.0
59.209537172 328.0
59.235797737 317.0
59.262058303 335.0
59.288318868 310.0
59.314579433 318.0
59.340839999 351.0
59.367100564 292.0
59.393361129 345.0
59.419621695 304.0
59.445882260 309.0
59.472142826 297.0
59.498403391 299.0
59.524663956 308.0
59.550924522 284.0
59.577185087 277.0
59.603445652 294.0
59.629706218 288.0
59.655966783 275.0
59.682227348 297.0
59.708487914 299.0
59.734748479 277.0
59.761009044 294.0
59.787269610 228.0
59.813530175 265.0
59.839790740 269.0
59.866051306 251.0
59.892311871 257.0
59.918572437 263.0
59.944833002 255.0
59.971093567 242.0
59.997354133 248.0
60.023614698 251.0
60.049875263 275.0
60.076135829 287.0
60.102396394 281.0
60.128656959 275.0
60.154917525 283.0
60.181178090 302.0
60.207438655 284.0
60.233699221 283.0
60.259959786 282.0
60.286220352 261.0
60.312480917 266.0
60.338741482 297.0
60.365002048 300.0
60.391262613 287.0
60.417523178 298.0
60.443783744 306.0
60.470044309 301.0
60.496304874 319.0
60.522565440 341.0
60.548826005 357.0
60.575086570 341.0
60.601347136 351.0
60.627607701 384.0
60.653868266 439.0
60.680128832 427.0
60.706389397 462.0
60.732649963 505.0
60.758910528 533.0
60.785171093 538.0
60.811431659 574.0
60.837692224 588.0
60.863952789 593.0
60.890213355 604.0
60.916473920 623.0
60.942734485 617.0
60.968995051 606.0
60.995255616 564.0
61.021516181 500.0
61.047776747 523.0
61.074037312 498.0
61.100297878 476.0
61.126558443 406.0
61.152819008 390.0
61.179079574 384.0
61.205340139 356.0
61.231600704 369.0
61.257861270 350.0
61.284121835 357.0
61.310382400 335.0
61.336642966 373.0
61.362903531 323.0
61.389164096 306.0
61.415424662 326.0
61.441685227 329.0
61.467945792 291.0
61.494206358 333.0
61.520466923 283.0
61.546727489 311.0
61.572988054 316.0
61.599248619 303.0
61.625509185 312.0
61.651769750 308.0
61.678030315 333.0
61.704290881 284.0
61.730551446 346.0
61.756812011 340.0
61.783072577 283.0
61.809333142 325.0
61.835593707 332.0
61.861854273 347.0
61.888114838 334.0
61.914375404 350.0
61.940635969 370.0
61.966896534 402.0
61.993157100 429.0
62.019417665 436.0
62.045678230 468.0
62.071938796 490.0
62.098199361 473.0
62.124459926 472.0
62.150720492 493.0
62.176981057 467.0
62.203241622 492.0
62.229502188 508.0
62.255762753 500.0
62.282023318 510.0
62.308283884 492.0
62.334544449 501.0
62.360805015 478.0
62.387065580 468.0
62.413326145 414.0
62.439586711 435.0
62.465847276 404.0
62.492107841 389.0
62.518368407 386.0
62.544628972 394.0
62.570889537 385.0
62.597150103 344.0
62.623410668 370.0
62.649671233 364.0
62.675931799 346.0
62.702192364 350.0
62.728452930 374.0
62.754713495 358.0
62.780974060 301.0
62.807234626 323.0
62.833495191 289.0
62.859755756 297.0
62.886016322 289.0
62.912276887 294.0
62.938537452 262.0
62.964798018 320.0
62.991058583 291.0
63.017319148 252.0
63.043579714 252.0
63.069840279 268.0
63.096100844 279.0
63.122361410 262.0
63.148621975 257.0
63.174882541 282.0
63.201143106 243.0
63.227403671 264.0
63.253664237 267.0
63.279924802 305.0
63.306185367 304.0
63.332445933 277.0
63.358706498 319.0
63.384967063 298.0
63.411227629 290.0
63.437488194 276.0
63.463748759 316.0
63.490009325 336.0
63.516269890 321.0
63.542530455 301.0
63.568791021 312.0
63.595051586 341.0
63.621312152 358.0
63.647572717 440.0
63.673833282 404.0
63.700093848 428.0
63.726354413 507.0
63.752614978 512.0
63.778875544 554.0
63.805136109 570.0
63.831396674 539.0
63.857657240 540.0
63.883917805 518.0
63.910178370 483.0
63.936438936 521.0
63.962699501 477.0
63.988960067 507.0
64.015220632 492.0
64.041481197 455.0
64.067741763 462.0
64.094002328 457.0
64.120262893 451.0
64.146523459 458.0
64.172784024 406.0
64.199044589 436.0
64.225305155 425.0
64.251565720 376.0
64.277826285 417.0
64.304086851 389.0
64.330347416 421.0
64.356607981 430.0
64.382868547 389.0
64.409129112 390.0
64.435389678 421.0
64.461650243 390.0
64.487910808 389.0
64.514171374 397.0
64.540431939 338.0
64.566692504 364.0
64.592953070 376.0
64.619213635 351.0
64.645474200 324.0
64.671734766 334.0
64.697995331 335.0
64.724255896 323.0
64.750516462 299.0
64.776777027 294.0
64.803037593 302.0
64.829298158 332.0
64.855558723 280.0
64.881819289 288.0
64.908079854 278.0
64.934340419 291.0
64.960600985 289.0
64.986861550 260.0
