5.007730280 1978.0
5.033990845 1882.0
5.060251411 1912.0
5.086511976 1948.0
5.112772541 1855.0
5.139033107 1935.0
5.165293672 1906.0
5.191554237 1928.0
5.217814803 1869.0
5.244075368 1809.0
5.270335934 1857.0
5.296596499 1858.0
5.322857064 1855.0
5.349117630 1876.0
5.375378195 1879.0
5.401638760 1801.0
5.427899326 1889.0
5.454159891 1792.0
5.480420456 1871.0
5.506681022 1813.0
5.532941587 1794.0
5.559202152 1765.0
5.585462718 1764.0
5.611723283 1758.0
5.637983849 1697.0
5.664244414 1777.0
5.690504979 1782.0
5.716765545 1698.0
5.743026110 1699.0
5.769286675 1756.0
5.795547241 1745.0
5.821807806 1720.0
5.848068371 1716.0
5.874328937 1769.0
5.900589502 1734.0
5.926850067 1750.0
5.953110633 1713.0
5.979371198 1664.0
6.005631763 1679.0
6.031892329 1690.0
6.058152894 1639.0
6.084413460 1661.0
6.110674025 1671.0
6.136934590 1741.0
6.163195156 1628.0
6.189455721 1621.0
6.215716286 1676.0
6.241976852 1620.0
6.268237417 1649.0
6.294497982 1548.0
6.320758548 1548.0
6.347019113 1552.0
6.373279678 1603.0
6.399540244 1565.0
6.425800809 1515.0
6.452061375 1584.0
6.478321940 1581.0
6.504582505 1638.0
6.530843071 1563.0
6.557103636 1570.0
6.583364201 1606.0
6.609624767 1574.0
6.635885332 1536.0
6.662145897 1578.0
6.688406463 1528.0
6.714667028 1517.0
6.740927593 1497.0
6.767188159 1507.0
6.793448724 1550.0
6.819709289 1613.0
6.845969855 1524.0
6.872230420 1618.0
6.898490986 1560.0
6.924751551 1553.0
6.951012116 1484.0
6.977272682 1526.0
7.003533247 1508.0
7.029793812 1534.0
7.056054378 1488.0
7.082314943 1484.0
7.108575508 1454.0
7.134836074 1525.0
7.161096639 1536.0
7.187357204 1452.0
7.213617770 1537.0
7.239878335 1435.0
7.266138900 1484.0
7.292399466 1426.0
7.318660031 1520.0
7.344920597 1459.0
7.371181162 1468.0
7.397441727 1453.0
7.423702293 1468.0
7.449962858 1459.0
7.476223423 1488.0
7.502483989 1453.0
7.528744554 1458.0
7.555005119 1407.0
7.581265685 1416.0
7.607526250 1456.0
7.633786815 1518.0
7.660047381 1389.0
7.686307946 1467.0
7.712568512 1437.0
7.738829077 1380.0
7.765089642 1467.0
7.791350208 1487.0
7.817610773 1424.0
7.843871338 1566.0
7.870131904 1436.0
7.896392469 1496.0
7.922653034 1507.0
7.948913600 1426.0
7.975174165 1465.0
8.001434730 1449.0
8.027695296 1445.0
8.053955861 1451.0
8.080216426 1458.0
8.106476992 1430.0
8.132737557 1475.0
8.158998123 1521.0
8.185258688 1468.0
8.211519253 1420.0
8.237779819 1391.0
8.264040384 1441.0
8.290300949 1456.0
8.316561515 1455.0
8.342822080 1416.0
8.369082645 1407.0
8.395343211 1450.0
8.421603776 1439.0
8.447864341 1385.0
8.474124907 1452.0
8.500385472 1407.0
8.526646038 1449.0
8.552906603 1497.0
8.579167168 1428.0
8.605427734 1480.0
8.631688299 1444.0
8.657948864 1509.0
8.684209430 1432.0
8.710469995 1482.0
8.736730560 1450.0
8.762991126 1440.0
8.789251691 1509.0
8.815512256 1417.0
8.841772822 1544.0
8.868033387 1446.0
8.894293952 1514.0
8.920554518 1489.0
8.946815083 1448.0
8.973075649 1475.0
8.999336214 1509.0
9.025596779 1518.0
9.051857345 1560.0
9.078117910 1491.0
9.104378475 1493.0
9.130639041 1529.0
9.156899606 1549.0
9.183160171 1566.0
9.209420737 1537.0
9.235681302 1555.0
9.261941867 1622.0
9.288202433 1500.0
9.314462998 1531.0
9.340723564 1583.0
9.366984129 1568.0
9.393244694 1549.0
9.419505260 1517.0
9.445765825 1653.0
9.472026390 1551.0
9.498286956 1582.0
9.524547521 1637.0
9.550808086 1665.0
9.577068652 1638.0
9.603329217 1604.0
9.629589782 1604.0
9.655850348 1672.0
9.682110913 1564.0
9.708371478 1596.0
9.734632044 1717.0
9.760892609 1683.0
9.787153175 1678.0
9.813413740 1753.0
9.839674305 1632.0
9.865934871 1728.0
9.892195436 1725.0
9.918456001 1672.0
9.944716567 1725.0
9.970977132 1717.0
9.997237697 1718.0
10.023498263 1713.0
10.049758828 1783.0
10.076019393 1816.0
10.102279959 1851.0
10.128540524 1823.0
10.154801090 1909.0
10.181061655 1853.0
10.207322220 1935.0
10.233582786 1929.0
10.259843351 1911.0
10.286103916 1917.0
10.312364482 1912.0
10.338625047 1930.0
10.364885612 1926.0
10.391146178 1919.0
10.417406743 1926.0
10.443667308 1971.0
10.469927874 2016.0
10.496188439 1971.0
10.522449004 2031.0
10.548709570 1975.0
10.574970135 2122.0
10.601230701 1973.0
10.627491266 2028.0
10.653751831 2030.0
10.680012397 2022.0
10.706272962 2080.0
10.732533527 2086.0
10.758794093 2052.0
10.785054658 2050.0
10.811315223 2068.0
10.837575789 2070.0
10.863836354 2102.0
10.890096919 2115.0
10.916357485 2102.0
10.942618050 2154.0
10.968878616 2175.0
10.995139181 2196.0
11.021399746 2039.0
11.047660312 2188.0
11.073920877 2202.0
11.100181442 2109.0
11.126442008 2230.0
11.152702573 2109.0
11.178963138 2191.0
11.205223704 2077.0
11.231484269 2121.0
11.257744834 2088.0
11.284005400 2104.0
11.310265965 2190.0
11.336526530 2180.0
11.362787096 2089.0
11.389047661 2102.0
11.415308227 2070.0
11.441568792 2127.0
11.467829357 2071.0
11.494089923 2165.0
11.520350488 2126.0
11.546611053 2115.0
11.572871619 1969.0
11.599132184 1992.0
11.625392749 1998.0
11.651653315 1983.0
11.677913880 1995.0
11.704174445 1976.0
11.730435011 1897.0
11.756695576 1901.0
11.782956141 1905.0
11.809216707 1859.0
11.835477272 1816.0
11.861737838 1784.0
11.887998403 1841.0
11.914258968 1856.0
11.940519534 1810.0
11.966780099 1843.0
11.993040664 1792.0
12.019301230 1794.0
12.045561795 1679.0
12.071822360 1737.0
12.098082926 1585.0
12.124343491 1667.0
12.150604056 1650.0
12.176864622 1601.0
12.203125187 1675.0
12.229385753 1598.0
12.255646318 1563.0
12.281906883 1581.0
12.308167449 1486.0
12.334428014 1508.0
12.360688579 1525.0
12.386949145 1549.0
12.413209710 1489.0
12.439470275 1555.0
12.465730841 1440.0
12.491991406 1466.0
12.518251971 1414.0
12.544512537 1326.0
12.570773102 1441.0
12.597033667 1425.0
12.623294233 1375.0
12.649554798 1330.0
12.675815364 1422.0
12.702075929 1314.0
12.728336494 1358.0
12.754597060 1399.0
12.780857625 1338.0
12.807118190 1300.0
12.833378756 1242.0
12.859639321 1236.0
12.885899886 1259.0
12.912160452 1246.0
12.938421017 1237.0
12.964681582 1215.0
12.990942148 1239.0
13.017202713 1191.0
13.043463279 1189.0
13.069723844 1262.0
13.095984409 1171.0
13.122244975 1123.0
13.148505540 1162.0
13.174766105 1142.0
13.201026671 1189.0
13.227287236 1103.0
13.253547801 1141.0
13.279808367 1118.0
13.306068932 1078.0
13.332329497 1113.0
13.358590063 1084.0
13.384850628 1092.0
13.411111193 1072.0
13.437371759 1056.0
13.463632324 1100.0
13.489892890 1041.0
13.516153455 1042.0
13.542414020 1084.0
13.568674586 1032.0
13.594935151 987.0
13.621195716 992.0
13.647456282 1014.0
13.673716847 948.0
13.699977412 991.0
13.726237978 983.0
13.752498543 957.0
13.778759108 992.0
13.805019674 1008.0
13.831280239 1006.0
13.857540805 1015.0
13.883801370 939.0
13.910061935 941.0
13.936322501 954.0
13.962583066 942.0
13.988843631 938.0
14.015104197 914.0
14.041364762 964.0
14.067625327 908.0
14.093885893 888.0
14.120146458 912.0
14.146407023 876.0
14.172667589 969.0
14.198928154 835.0
14.225188719 964.0
14.251449285 874.0
14.277709850 934.0
14.303970416 914.0
14.330230981 893.0
14.356491546 882.0
14.382752112 876.0
14.409012677 893.0
14.435273242 864.0
14.461533808 857.0
14.487794373 851.0
14.514054938 875.0
14.540315504 870.0
14.566576069 878.0
14.592836634 852.0
14.619097200 827.0
14.645357765 846.0
14.671618331 899.0
14.697878896 906.0
14.724139461 839.0
14.750400027 846.0
14.776660592 797.0
14.802921157 802.0
14.829181723 874.0
14.855442288 825.0
14.881702853 864.0
14.907963419 851.0
14.934223984 852.0
14.960484549 836.0
14.986745115 827.0
15.013005680 842.0
15.039266245 826.0
15.065526811 776.0
15.091787376 767.0
15.118047942 811.0
15.144308507 823.0
15.170569072 819.0
15.196829638 811.0
15.223090203 782.0
15.249350768 824.0
15.275611334 807.0
15.301871899 799.0
15.328132464 772.0
15.354393030 856.0
15.380653595 839.0
15.406914160 786.0
15.433174726 805.0
15.459435291 793.0
15.485695857 762.0
15.511956422 813.0
15.538216987 851.0
15.564477553 753.0
15.590738118 794.0
15.616998683 799.0
15.643259249 807.0
15.669519814 778.0
15.695780379 753.0
15.722040945 783.0
15.748301510 737.0
15.774562075 778.0
15.800822641 800.0
15.827083206 762.0
15.853343771 755.0
15.879604337 793.0
15.905864902 722.0
15.932125468 766.0
15.958386033 796.0
15.984646598 763.0
16.010907164 757.0
16.037167729 732.0
16.063428294 786.0
16.089688860 811.0
16.115949425 728.0
16.142209990 776.0
16.168470556 766.0
16.194731121 789.0
16.220991686 783.0
16.247252252 773.0
16.273512817 743.0
16.299773382 737.0
16.326033948 718.0
16.352294513 743.0
16.378555079 762.0
16.404815644 735.0
16.431076209 816.0
16.457336775 792.0
16.483597340 731.0
16.509857905 769.0
16.536118471 751.0
16.562379036 754.0
16.588639601 747.0
16.614900167 746.0
16.641160732 735.0
16.667421297 738.0
16.693681863 726.0
16.719942428 759.0
16.746202994 762.0
16.772463559 738.0
16.798724124 718.0
16.824984690 727.0
16.851245255 754.0
16.877505820 732.0
16.903766386 796.0
16.930026951 748.0
16.956287516 715.0
16.982548082 720.0
17.008808647 729.0
17.035069212 758.0
17.061329778 717.0
17.087590343 722.0
17.113850908 754.0
17.140111474 753.0
17.166372039 712.0
17.192632605 741.0
17.218893170 808.0
17.245153735 771.0
17.271414301 762.0
17.297674866 710.0
17.323935431 762.0
17.350195997 781.0
17.376456562 727.0
17.402717127 725.0
17.428977693 746.0
17.455238258 771.0
17.481498823 692.0
17.507759389 678.0
17.534019954 739.0
17.560280520 713.0
17.586541085 747.0
17.612801650 732.0
17.639062216 748.0
17.665322781 739.0
17.691583346 699.0
17.717843912 703.0
17.744104477 754.0
17.770365042 712.0
17.796625608 741.0
17.822886173 754.0
17.849146738 718.0
17.875407304 734.0
17.901667869 757.0
17.927928434 710.0
17.954189000 751.0
17.980449565 718.0
18.006710131 708.0
18.032970696 735.0
18.059231261 764.0
18.085491827 730.0
18.111752392 778.0
18.138012957 716.0
18.164273523 735.0
18.190534088 762.0
18.216794653 727.0
18.243055219 746.0
18.269315784 716.0
18.295576349 767.0
18.321836915 719.0
18.348097480 757.0
18.374358046 734.0
18.400618611 712.0
18.426879176 754.0
18.453139742 726.0
18.479400307 730.0
18.505660872 706.0
18.531921438 766.0
18.558182003 673.0
18.584442568 744.0
18.610703134 738.0
18.636963699 727.0
18.663224264 758.0
18.689484830 735.0
18.715745395 750.0
18.742005960 754.0
18.768266526 724.0
18.794527091 718.0
18.820787657 794.0
18.847048222 793.0
18.873308787 748.0
18.899569353 766.0
18.925829918 742.0
18.952090483 746.0
18.978351049 752.0
19.004611614 713.0
19.030872179 769.0
19.057132745 740.0
19.083393310 755.0
19.109653875 796.0
19.135914441 720.0
19.162175006 778.0
19.188435572 788.0
19.214696137 732.0
19.240956702 805.0
19.267217268 790.0
19.293477833 730.0
19.319738398 785.0
19.345998964 798.0
19.372259529 790.0
19.398520094 799.0
19.424780660 720.0
19.451041225 789.0
19.477301790 854.0
19.503562356 764.0
19.529822921 750.0
19.556083486 786.0
19.582344052 751.0
19.608604617 777.0
19.634865183 805.0
19.661125748 802.0
19.687386313 790.0
19.713646879 854.0
19.739907444 765.0
19.766168009 794.0
19.792428575 852.0
19.818689140 765.0
19.844949705 827.0
19.871210271 779.0
19.897470836 792.0
19.923731401 790.0
19.949991967 789.0
19.976252532 830.0
20.002513098 748.0
20.028773663 838.0
20.055034228 810.0
20.081294794 812.0
20.107555359 795.0
20.133815924 854.0
20.160076490 815.0
20.186337055 882.0
20.212597620 844.0
20.238858186 784.0
20.265118751 859.0
20.291379316 809.0
20.317639882 809.0
20.343900447 825.0
20.370161012 878.0
20.396421578 878.0
20.422682143 912.0
20.448942709 898.0
20.475203274 878.0
20.501463839 868.0
20.527724405 869.0
20.553984970 867.0
20.580245535 877.0
20.606506101 851.0
20.632766666 926.0
20.659027231 905.0
20.685287797 859.0
20.711548362 861.0
20.737808927 902.0
20.764069493 871.0
20.790330058 895.0
20.816590623 902.0
20.842851189 911.0
20.869111754 906.0
20.895372320 909.0
20.921632885 893.0
20.947893450 878.0
20.974154016 916.0
21.000414581 931.0
21.026675146 863.0
21.052935712 896.0
21.079196277 915.0
21.105456842 976.0
21.131717408 947.0
21.157977973 876.0
21.184238538 947.0
21.210499104 947.0
21.236759669 928.0
21.263020235 953.0
21.289280800 934.0
21.315541365 940.0
21.341801931 972.0
21.368062496 1019.0
21.394323061 1036.0
21.420583627 969.0
21.446844192 1013.0
21.473104757 955.0
21.499365323 981.0
21.525625888 1017.0
21.551886453 1060.0
21.578147019 1048.0
21.604407584 1075.0
21.630668149 1033.0
21.656928715 1056.0
21.683189280 1054.0
21.709449846 1014.0
21.735710411 1050.0
21.761970976 1112.0
21.788231542 1070.0
21.814492107 1084.0
21.840752672 1084.0
21.867013238 1114.0
21.893273803 1068.0
21.919534368 1108.0
21.945794934 1166.0
21.972055499 1026.0
21.998316064 1074.0
22.024576630 1126.0
22.050837195 1100.0
22.077097761 1117.0
22.103358326 1141.0
22.129618891 1148.0
22.155879457 1180.0
22.182140022 1209.0
22.208400587 1160.0
22.234661153 1123.0
22.260921718 1206.0
22.287182283 1206.0
22.313442849 1256.0
22.339703414 1132.0
22.365963979 1221.0
22.392224545 1252.0
22.418485110 1246.0
22.444745675 1246.0
22.471006241 1212.0
22.497266806 1143.0
22.523527372 1226.0
22.549787937 1245.0
22.576048502 1186.0
22.602309068 1217.0
22.628569633 1281.0
22.654830198 1212.0
22.681090764 1168.0
22.707351329 1196.0
22.733611894 1254.0
22.759872460 1214.0
22.786133025 1154.0
22.812393590 1236.0
22.838654156 1207.0
22.864914721 1195.0
22.891175287 1250.0
22.917435852 1235.0
22.943696417 1222.0
22.969956983 1230.0
22.996217548 1207.0
23.022478113 1187.0
23.048738679 1174.0
23.074999244 1159.0
23.101259809 1200.0
23.127520375 1186.0
23.153780940 1137.0
23.180041505 1135.0
23.206302071 1121.0
23.232562636 1224.0
23.258823201 1185.0
23.285083767 1167.0
23.311344332 1153.0
23.337604898 1066.0
23.363865463 1129.0
23.390126028 1166.0
23.416386594 1140.0
23.442647159 1059.0
23.468907724 1135.0
23.495168290 1084.0
23.521428855 1057.0
23.547689420 1137.0
23.573949986 1104.0
23.600210551 1050.0
23.626471116 1063.0
23.652731682 1056.0
23.678992247 1063.0
23.705252813 1052.0
23.731513378 1004.0
23.757773943 998.0
23.784034509 1034.0
23.810295074 1017.0
23.836555639 1035.0
23.862816205 1012.0
23.889076770 1010.0
23.915337335 966.0
23.941597901 931.0
23.967858466 952.0
23.994119031 950.0
24.020379597 972.0
24.046640162 936.0
24.072900727 990.0
24.099161293 972.0
24.125421858 1006.0
24.151682424 1043.0
24.177942989 901.0
24.204203554 975.0
24.230464120 868.0
24.256724685 903.0
24.282985250 975.0
24.309245816 887.0
24.335506381 945.0
24.361766946 907.0
24.388027512 914.0
24.414288077 893.0
24.440548642 856.0
24.466809208 944.0
24.493069773 860.0
24.519330338 884.0
24.545590904 854.0
24.571851469 828.0
24.598112035 842.0
24.624372600 879.0
24.650633165 923.0
24.676893731 786.0
24.703154296 848.0
24.729414861 858.0
24.755675427 885.0
24.781935992 850.0
24.808196557 901.0
24.834457123 941.0
24.860717688 876.0
24.886978253 849.0
24.913238819 816.0
24.939499384 842.0
24.965759950 834.0
24.992020515 806.0
25.018281080 817.0
25.044541646 805.0
25.070802211 845.0
25.097062776 780.0
25.123323342 841.0
25.149583907 803.0
25.175844472 783.0
25.202105038 806.0
25.228365603 849.0
25.254626168 816.0
25.280886734 831.0
25.307147299 835.0
25.333407864 847.0
25.359668430 789.0
25.385928995 761.0
25.412189561 800.0
25.438450126 848.0
25.464710691 744.0
25.490971257 852.0
25.517231822 778.0
25.543492387 817.0
25.569752953 787.0
25.596013518 800.0
25.622274083 787.0
25.648534649 807.0
25.674795214 807.0
25.701055779 808.0
25.727316345 776.0
25.753576910 834.0
25.779837476 786.0
25.806098041 807.0
25.832358606 827.0
25.858619172 770.0
25.884879737 795.0
25.911140302 832.0
25.937400868 816.0
25.963661433 724.0
25.989921998 829.0
26.016182564 836.0
26.042443129 808.0
26.068703694 790.0
26.094964260 770.0
26.121224825 784.0
26.147485390 762.0
26.173745956 784.0
26.200006521 895.0
26.226267087 770.0
26.252527652 765.0
26.278788217 797.0
26.305048783 794.0
26.331309348 792.0
26.357569913 833.0
26.383830479 814.0
26.410091044 785.0
26.436351609 773.0
26.462612175 798.0
26.488872740 795.0
26.515133305 733.0
26.541393871 768.0
26.567654436 730.0
26.593915002 788.0
26.620175567 863.0
26.646436132 851.0
26.672696698 767.0
26.698957263 836.0
26.725217828 808.0
26.751478394 784.0
26.777738959 790.0
26.803999524 814.0
26.830260090 821.0
26.856520655 767.0
26.882781220 776.0
26.909041786 782.0
26.935302351 787.0
26.961562916 750.0
26.987823482 779.0
27.014084047 787.0
27.040344613 761.0
27.066605178 753.0
27.092865743 789.0
27.119126309 804.0
27.145386874 813.0
27.171647439 746.0
27.197908005 724.0
27.224168570 758.0
27.250429135 766.0
27.276689701 799.0
27.302950266 816.0
27.329210831 724.0
27.355471397 813.0
27.381731962 815.0
27.407992528 798.0
27.434253093 807.0
27.460513658 784.0
27.486774224 780.0
27.513034789 752.0
27.539295354 808.0
27.565555920 750.0
27.591816485 770.0
27.618077050 736.0
27.644337616 781.0
27.670598181 788.0
27.696858746 777.0
27.723119312 806.0
27.749379877 768.0
27.775640442 789.0
27.801901008 755.0
27.828161573 765.0
27.854422139 796.0
27.880682704 750.0
27.906943269 776.0
27.933203835 748.0
27.959464400 726.0
27.985724965 756.0
28.011985531 748.0
28.038246096 791.0
28.064506661 777.0
28.090767227 719.0
28.117027792 781.0
28.143288357 774.0
28.169548923 749.0
28.195809488 771.0
28.222070054 802.0
28.248330619 784.0
28.274591184 863.0
28.300851750 762.0
28.327112315 793.0
28.353372880 791.0
28.379633446 755.0
28.405894011 761.0
28.432154576 788.0
28.458415142 746.0
28.484675707 790.0
28.510936272 788.0
28.537196838 757.0
28.563457403 742.0
28.589717968 800.0
28.615978534 751.0
28.642239099 751.0
28.668499665 764.0
28.694760230 761.0
28.721020795 759.0
28.747281361 768.0
28.773541926 765.0
28.799802491 742.0
28.826063057 761.0
28.852323622 770.0
28.878584187 761.0
28.904844753 760.0
28.931105318 787.0
28.957365883 723.0
28.983626449 737.0
29.009887014 812.0
29.036147579 773.0
29.062408145 737.0
29.088668710 755.0
29.114929276 765.0
29.141189841 755.0
29.167450406 747.0
29.193710972 756.0
29.219971537 775.0
29.246232102 778.0
29.272492668 717.0
29.298753233 746.0
29.325013798 782.0
29.351274364 710.0
29.377534929 802.0
29.403795494 708.0
29.430056060 730.0
29.456316625 800.0
29.482577191 705.0
29.508837756 697.0
29.535098321 729.0
29.561358887 737.0
29.587619452 749.0
29.613880017 702.0
29.640140583 700.0
29.666401148 807.0
29.692661713 717.0
29.718922279 747.0
29.745182844 783.0
29.771443409 684.0
29.797703975 758.0
29.823964540 670.0
29.850225105 696.0
29.876485671 736.0
29.902746236 717.0
29.929006802 710.0
29.955267367 692.0
29.981527932 721.0
30.007788498 683.0
30.034049063 739.0
30.060309628 707.0
30.086570194 718.0
30.112830759 755.0
30.139091324 686.0
30.165351890 729.0
30.191612455 697.0
30.217873020 710.0
30.244133586 686.0
30.270394151 679.0
30.296654717 712.0
30.322915282 705.0
30.349175847 720.0
30.375436413 697.0
30.401696978 697.0
30.427957543 668.0
30.454218109 712.0
30.480478674 672.0
30.506739239 629.0
30.532999805 705.0
30.559260370 694.0
30.585520935 649.0
30.611781501 677.0
30.638042066 695.0
30.664302631 688.0
30.690563197 701.0
30.716823762 661.0
30.743084328 688.0
30.769344893 655.0
30.795605458 645.0
30.821866024 664.0
30.848126589 637.0
30.874387154 633.0
30.900647720 697.0
30.926908285 641.0
30.953168850 659.0
30.979429416 652.0
31.005689981 667.0
31.031950546 671.0
31.058211112 639.0
31.084471677 665.0
31.110732243 652.0
31.136992808 677.0
31.163253373 626.0
31.189513939 700.0
31.215774504 682.0
31.242035069 642.0
31.268295635 642.0
31.294556200 609.0
31.320816765 650.0
31.347077331 621.0
31.373337896 646.0
31.399598461 637.0
31.425859027 633.0
31.452119592 599.0
31.478380157 649.0
31.504640723 587.0
31.530901288 609.0
31.557161854 652.0
31.583422419 617.0
31.609682984 617.0
31.635943550 632.0
31.662204115 664.0
31.688464680 628.0
31.714725246 655.0
31.740985811 656.0
31.767246376 655.0
31.793506942 640.0
31.819767507 650.0
31.846028072 660.0
31.872288638 594.0
31.898549203 595.0
31.924809769 596.0
31.951070334 619.0
31.977330899 659.0
32.003591465 619.0
32.029852030 602.0
32.056112595 588.0
32.082373161 608.0
32.108633726 642.0
32.134894291 606.0
32.161154857 676.0
32.187415422 641.0
32.213675987 671.0
32.239936553 586.0
32.266197118 675.0
32.292457683 609.0
32.318718249 635.0
32.344978814 620.0
32.371239380 613.0
32.397499945 622.0
32.423760510 616.0
32.450021076 616.0
32.476281641 647.0
32.502542206 569.0
32.528802772 626.0
32.555063337 578.0
32.581323902 631.0
32.607584468 620.0
32.633845033 575.0
32.660105598 616.0
32.686366164 616.0
32.712626729 579.0
32.738887295 573.0
32.765147860 610.0
32.791408425 613.0
32.817668991 551.0
32.843929556 597.0
32.870190121 624.0
32.896450687 655.0
32.922711252 593.0
32.948971817 612.0
32.975232383 623.0
33.001492948 602.0
33.027753513 662.0
33.054014079 596.0
33.080274644 603.0
33.106535209 636.0
33.132795775 625.0
33.159056340 624.0
33.185316906 654.0
33.211577471 620.0
33.237838036 634.0
33.264098602 640.0
33.290359167 638.0
33.316619732 624.0
33.342880298 613.0
33.369140863 625.0
33.395401428 637.0
33.421661994 649.0
33.447922559 616.0
33.474183124 653.0
33.500443690 634.0
33.526704255 696.0
33.552964820 682.0
33.579225386 680.0
33.605485951 622.0
33.631746517 652.0
33.658007082 713.0
33.684267647 665.0
33.710528213 710.0
33.736788778 795.0
33.763049343 683.0
33.789309909 726.0
33.815570474 731.0
33.841831039 738.0
33.868091605 724.0
33.894352170 783.0
33.920612735 803.0
33.946873301 779.0
33.973133866 810.0
33.999394432 806.0
34.025654997 778.0
34.051915562 812.0
34.078176128 861.0
34.104436693 855.0
34.130697258 895.0
34.156957824 886.0
34.183218389 925.0
34.209478954 939.0
34.235739520 978.0
34.262000085 957.0
34.288260650 1031.0
34.314521216 1011.0
34.340781781 965.0
34.367042346 988.0
34.393302912 996.0
34.419563477 1037.0
34.445824043 1043.0
34.472084608 1054.0
34.498345173 1065.0
34.524605739 1120.0
34.550866304 999.0
34.577126869 1093.0
34.603387435 1088.0
34.629648000 1101.0
34.655908565 1054.0
34.682169131 1054.0
34.708429696 1104.0
34.734690261 1081.0
34.760950827 1072.0
34.787211392 1124.0
34.813471958 1094.0
34.839732523 1090.0
34.865993088 1043.0
34.892253654 999.0
34.918514219 1115.0
34.944774784 996.0
34.971035350 1077.0
34.997295915 1059.0
35.023556480 1010.0
35.049817046 999.0
35.076077611 993.0
35.102338176 985.0
35.128598742 1062.0
35.154859307 989.0
35.181119872 1031.0
35.207380438 1026.0
35.233641003 929.0
35.259901569 953.0
35.286162134 980.0
35.312422699 938.0
35.338683265 943.0
35.364943830 926.0
35.391204395 914.0
35.417464961 942.0
35.443725526 887.0
35.469986091 922.0
35.496246657 882.0
35.522507222 905.0
35.548767787 940.0
35.575028353 865.0
35.601288918 925.0
35.627549484 883.0
35.653810049 885.0
35.680070614 849.0
35.706331180 877.0
35.732591745 864.0
35.758852310 879.0
35.785112876 814.0
35.811373441 838.0
35.837634006 796.0
35.863894572 780.0
35.890155137 795.0
35.916415702 824.0
35.942676268 784.0
35.968936833 787.0
35.995197398 800.0
36.021457964 820.0
36.047718529 775.0
36.073979095 785.0
36.100239660 800.0
36.126500225 784.0
36.152760791 805.0
36.179021356 775.0
36.205281921 779.0
36.231542487 800.0
36.257803052 757.0
36.284063617 760.0
36.310324183 710.0
36.336584748 801.0
36.362845313 720.0
36.389105879 735.0
36.415366444 703.0
36.441627010 720.0
36.467887575 662.0
36.494148140 702.0
36.520408706 807.0
36.546669271 758.0
36.572929836 728.0
36.599190402 720.0
36.625450967 684.0
36.651711532 757.0
36.677972098 738.0
36.704232663 700.0
36.730493228 706.0
36.756753794 715.0
36.783014359 685.0
36.809274924 684.0
36.835535490 677.0
36.861796055 757.0
36.888056621 696.0
36.914317186 680.0
36.940577751 659.0
36.966838317 683.0
36.993098882 715.0
37.019359447 712.0
37.045620013 720.0
37.071880578 693.0
37.098141143 702.0
37.124401709 689.0
37.150662274 721.0
37.176922839 703.0
37.203183405 714.0
37.229443970 639.0
37.255704535 710.0
37.281965101 639.0
37.308225666 672.0
37.334486232 712.0
37.360746797 710.0
37.387007362 670.0
37.413267928 675.0
37.439528493 638.0
37.465789058 696.0
37.492049624 686.0
37.518310189 701.0
37.544570754 664.0
37.570831320 711.0
37.597091885 684.0
37.623352450 707.0
37.649613016 667.0
37.675873581 703.0
37.702134147 711.0
37.728394712 714.0
37.754655277 689.0
37.780915843 732.0
37.807176408 727.0
37.833436973 674.0
37.859697539 751.0
37.885958104 689.0
37.912218669 725.0
37.938479235 706.0
37.964739800 642.0
37.991000365 697.0
38.017260931 719.0
38.043521496 687.0
38.069782061 701.0
38.096042627 720.0
38.122303192 699.0
38.148563758 669.0
38.174824323 683.0
38.201084888 738.0
38.227345454 722.0
38.253606019 749.0
38.279866584 716.0
38.306127150 744.0
38.332387715 704.0
38.358648280 736.0
38.384908846 704.0
38.411169411 719.0
38.437429976 772.0
38.463690542 723.0
38.489951107 740.0
38.516211673 713.0
38.542472238 695.0
38.568732803 693.0
38.594993369 709.0
38.621253934 729.0
38.647514499 753.0
38.673775065 741.0
38.700035630 719.0
38.726296195 722.0
38.752556761 717.0
38.778817326 687.0
38.805077891 738.0
38.831338457 744.0
38.857599022 686.0
38.883859587 678.0
38.910120153 712.0
38.936380718 690.0
38.962641284 721.0
38.988901849 711.0
39.015162414 674.0
39.041422980 699.0
39.067683545 642.0
39.093944110 682.0
39.120204676 724.0
39.146465241 697.0
39.172725806 713.0
39.198986372 709.0
39.225246937 665.0
39.251507502 673.0
39.277768068 723.0
39.304028633 718.0
39.330289199 621.0
39.356549764 707.0
39.382810329 633.0
39.409070895 709.0
39.435331460 670.0
39.461592025 610.0
39.487852591 702.0
39.514113156 649.0
39.540373721 681.0
39.566634287 626.0
39.592894852 686.0
39.619155417 655.0
39.645415983 678.0
39.671676548 619.0
39.697937113 627.0
39.724197679 592.0
39.750458244 673.0
39.776718810 625.0
39.802979375 645.0
39.829239940 669.0
39.855500506 643.0
39.881761071 602.0
39.908021636 622.0
39.934282202 611.0
39.960542767 599.0
39.986803332 632.0
40.013063898 625.0
40.039324463 623.0
40.065585028 574.0
40.091845594 618.0
40.118106159 627.0
40.144366725 597.0
40.170627290 597.0
40.196887855 612.0
40.223148421 606.0
40.249408986 605.0
40.275669551 573.0
40.301930117 567.0
40.328190682 638.0
40.354451247 591.0
40.380711813 590.0
40.406972378 608.0
40.433232943 568.0
40.459493509 534.0
40.485754074 606.0
40.512014639 579.0
40.538275205 567.0
40.564535770 583.0
40.590796336 620.0
40.617056901 623.0
40.643317466 566.0
40.669578032 558.0
40.695838597 580.0
40.722099162 531.0
40.748359728 559.0
40.774620293 549.0
40.800880858 557.0
40.827141424 568.0
40.853401989 552.0
40.879662554 538.0
40.905923120 574.0
40.932183685 554.0
40.958444251 542.0
40.984704816 506.0
41.010965381 564.0
41.037225947 504.0
41.063486512 531.0
41.089747077 550.0
41.116007643 550.0
41.142268208 507.0
41.168528773 519.0
41.194789339 548.0
41.221049904 490.0
41.247310469 508.0
41.273571035 550.0
41.299831600 534.0
41.326092165 501.0
41.352352731 530.0
41.378613296 526.0
41.404873862 562.0
41.431134427 573.0
41.457394992 544.0
41.483655558 545.0
41.509916123 511.0
41.536176688 518.0
41.562437254 493.0
41.588697819 497.0
41.614958384 496.0
41.641218950 500.0
41.667479515 484.0
41.693740080 488.0
41.720000646 486.0
41.746261211 531.0
41.772521776 499.0
41.798782342 483.0
41.825042907 486.0
41.851303473 493.0
41.877564038 481.0
41.903824603 458.0
41.930085169 515.0
41.956345734 486.0
41.982606299 537.0
42.008866865 486.0
42.035127430 476.0
42.061387995 523.0
42.087648561 474.0
42.113909126 450.0
42.140169691 486.0
42.166430257 469.0
42.192690822 469.0
42.218951388 511.0
42.245211953 462.0
42.271472518 492.0
42.297733084 475.0
42.323993649 492.0
42.350254214 452.0
42.376514780 544.0
42.402775345 477.0
42.429035910 498.0
42.455296476 474.0
42.481557041 498.0
42.507817606 500.0
42.534078172 491.0
42.560338737 481.0
42.586599302 439.0
42.612859868 468.0
42.639120433 453.0
42.665380999 492.0
42.691641564 469.0
42.717902129 467.0
42.744162695 539.0
42.770423260 477.0
42.796683825 479.0
42.822944391 449.0
42.849204956 551.0
42.875465521 474.0
42.901726087 471.0
42.927986652 542.0
42.954247217 457.0
42.980507783 495.0
43.006768348 474.0
43.033028914 507.0
43.059289479 461.0
43.085550044 489.0
43.111810610 461.0
43.138071175 481.0
43.164331740 505.0
43.190592306 435.0
43.216852871 524.0
43.243113436 493.0
43.269374002 464.0
43.295634567 467.0
43.321895132 452.0
43.348155698 449.0
43.374416263 479.0
43.400676828 453.0
43.426937394 463.0
43.453197959 443.0
43.479458525 458.0
43.505719090 489.0
43.531979655 456.0
43.558240221 489.0
43.584500786 447.0
43.610761351 503.0
43.637021917 477.0
43.663282482 486.0
43.689543047 478.0
43.715803613 484.0
43.742064178 440.0
43.768324743 467.0
43.794585309 492.0
43.820845874 410.0
43.847106440 423.0
43.873367005 500.0
43.899627570 477.0
43.925888136 475.0
43.952148701 449.0
43.978409266 529.0
44.004669832 472.0
44.030930397 533.0
44.057190962 507.0
44.083451528 471.0
44.109712093 441.0
44.135972658 521.0
44.162233224 467.0
44.188493789 474.0
44.214754354 486.0
44.241014920 478.0
44.267275485 532.0
44.293536051 539.0
44.319796616 476.0
44.346057181 484.0
44.372317747 488.0
44.398578312 507.0
44.424838877 473.0
44.451099443 468.0
44.477360008 479.0
44.503620573 494.0
44.529881139 536.0
44.556141704 544.0
44.582402269 494.0
44.608662835 500.0
44.634923400 488.0
44.661183966 491.0
44.687444531 520.0
44.713705096 467.0
44.739965662 537.0
44.766226227 492.0
44.792486792 504.0
44.818747358 511.0
44.845007923 507.0
44.871268488 501.0
44.897529054 495.0
44.923789619 515.0
44.950050184 522.0
44.976310750 512.0
45.002571315 552.0
45.028831880 536.0
45.055092446 525.0
45.081353011 482.0
45.107613577 492.0
45.133874142 503.0
45.160134707 508.0
45.186395273 473.0
45.212655838 534.0
45.238916403 526.0
45.265176969 523.0
45.291437534 512.0
45.317698099 526.0
45.343958665 528.0
45.370219230 508.0
45.396479795 533.0
45.422740361 536.0
45.449000926 499.0
45.475261492 468.0
45.501522057 542.0
45.527782622 558.0
45.554043188 511.0
45.580303753 576.0
45.606564318 504.0
45.632824884 501.0
45.659085449 505.0
45.685346014 491.0
45.711606580 538.0
45.737867145 538.0
45.764127710 540.0
45.790388276 512.0
45.816648841 520.0
45.842909406 519.0
45.869169972 521.0
45.895430537 527.0
45.921691103 532.0
45.947951668 480.0
45.974212233 509.0
46.000472799 518.0
46.026733364 518.0
46.052993929 499.0
46.079254495 495.0
46.105515060 514.0
46.131775625 530.0
46.158036191 497.0
46.184296756 552.0
46.210557321 561.0
46.236817887 471.0
46.263078452 530.0
46.289339017 544.0
46.315599583 483.0
46.341860148 522.0
46.368120714 504.0
46.394381279 507.0
46.420641844 477.0
46.446902410 506.0
46.473162975 483.0
46.499423540 513.0
46.525684106 460.0
46.551944671 501.0
46.578205236 533.0
46.604465802 547.0
46.630726367 512.0
46.656986932 499.0
46.683247498 480.0
46.709508063 513.0
46.735768629 518.0
46.762029194 470.0
46.788289759 472.0
46.814550325 477.0
46.840810890 524.0
46.867071455 493.0
46.893332021 493.0
46.919592586 483.0
46.945853151 497.0
46.972113717 426.0
46.998374282 448.0
47.024634847 421.0
47.050895413 486.0
47.077155978 478.0
47.103416543 441.0
47.129677109 492.0
47.155937674 478.0
47.182198240 488.0
47.208458805 474.0
47.234719370 480.0
47.260979936 499.0
47.287240501 474.0
47.313501066 484.0
47.339761632 449.0
47.366022197 470.0
47.392282762 470.0
47.418543328 455.0
47.444803893 491.0
47.471064458 436.0
47.497325024 445.0
47.523585589 452.0
47.549846155 446.0
47.576106720 454.0
47.602367285 452.0
47.628627851 445.0
47.654888416 514.0
47.681148981 416.0
47.707409547 436.0
47.733670112 461.0
47.759930677 437.0
47.786191243 445.0
47.812451808 427.0
47.838712373 449.0
47.864972939 429.0
47.891233504 438.0
47.917494069 438.0
47.943754635 419.0
47.970015200 457.0
47.996275766 437.0
48.022536331 478.0
48.048796896 427.0
48.075057462 450.0
48.101318027 458.0
48.127578592 461.0
48.153839158 423.0
48.180099723 408.0
48.206360288 399.0
48.232620854 436.0
48.258881419 433.0
48.285141984 416.0
48.311402550 429.0
48.337663115 457.0
48.363923681 461.0
48.390184246 415.0
48.416444811 401.0
48.442705377 397.0
48.468965942 416.0
48.495226507 447.0
48.521487073 428.0
48.547747638 424.0
48.574008203 395.0
48.600268769 398.0
48.626529334 426.0
48.652789899 445.0
48.679050465 450.0
48.705311030 381.0
48.731571595 395.0
48.757832161 399.0
48.784092726 403.0
48.810353292 370.0
48.836613857 377.0
48.862874422 420.0
48.889134988 396.0
48.915395553 398.0
48.941656118 343.0
48.967916684 411.0
48.994177249 428.0
49.020437814 407.0
49.046698380 406.0
49.072958945 405.0
49.099219510 389.0
49.125480076 394.0
49.151740641 374.0
49.178001207 397.0
49.204261772 393.0
49.230522337 425.0
49.256782903 374.0
49.283043468 359.0
49.309304033 406.0
49.335564599 419.0
49.361825164 420.0
49.388085729 429.0
49.414346295 421.0
49.440606860 344.0
49.466867425 395.0
49.493127991 427.0
49.519388556 392.0
49.545649121 346.0
49.571909687 335.0
49.598170252 380.0
49.624430818 348.0
49.650691383 360.0
49.676951948 374.0
49.703212514 370.0
49.729473079 377.0
49.755733644 339.0
49.781994210 362.0
49.808254775 388.0
49.834515340 332.0
49.860775906 354.0
49.887036471 341.0
49.913297036 371.0
49.939557602 378.0
49.965818167 390.0
49.992078733 379.0
50.018339298 377.0
50.044599863 400.0
50.070860429 385.0
50.097120994 350.0
50.123381559 361.0
50.149642125 384.0
50.175902690 372.0
50.202163255 364.0
50.228423821 400.0
50.254684386 364.0
50.280944951 370.0
50.307205517 367.0
50.333466082 333.0
50.359726647 346.0
50.385987213 349.0
50.412247778 373.0
50.438508344 358.0
50.464768909 347.0
50.491029474 358.0
50.517290040 343.0
50.543550605 374.0
50.569811170 323.0
50.596071736 362.0
50.622332301 332.0
50.648592866 318.0
50.674853432 367.0
50.701113997 352.0
50.727374562 400.0
50.753635128 336.0
50.779895693 327.0
50.806156258 372.0
50.832416824 350.0
50.858677389 306.0
50.884937955 351.0
50.911198520 307.0
50.937459085 339.0
50.963719651 354.0
50.989980216 367.0
51.016240781 317.0
51.042501347 316.0
51.068761912 342.0
51.095022477 335.0
51.121283043 351.0
51.147543608 361.0
51.173804173 340.0
51.200064739 360.0
51.226325304 342.0
51.252585870 339.0
51.278846435 312.0
51.305107000 338.0
51.331367566 306.0
51.357628131 368.0
51.383888696 329.0
51.410149262 357.0
51.436409827 322.0
51.462670392 362.0
51.488930958 353.0
51.515191523 369.0
51.541452088 329.0
51.567712654 308.0
51.593973219 325.0
51.620233784 339.0
51.646494350 316.0
51.672754915 341.0
51.699015481 326.0
51.725276046 330.0
51.751536611 349.0
51.777797177 340.0
51.804057742 326.0
51.830318307 323.0
51.856578873 335.0
51.882839438 343.0
51.909100003 356.0
51.935360569 317.0
51.961621134 326.0
51.987881699 327.0
52.014142265 378.0
52.040402830 317.0
52.066663396 300.0
52.092923961 317.0
52.119184526 367.0
52.145445092 326.0
52.171705657 319.0
52.197966222 337.0
52.224226788 349.0
52.250487353 324.0
52.276747918 294.0
52.303008484 313.0
52.329269049 309.0
52.355529614 342.0
52.381790180 287.0
52.408050745 321.0
52.434311310 332.0
52.460571876 335.0
52.486832441 291.0
52.513093007 346.0
52.539353572 295.0
52.565614137 318.0
52.591874703 349.0
52.618135268 347.0
52.644395833 319.0
52.670656399 374.0
52.696916964 297.0
52.723177529 290.0
52.749438095 323.0
52.775698660 315.0
52.801959225 312.0
52.828219791 321.0
52.854480356 293.0
52.880740922 330.0
52.907001487 326.0
52.933262052 324.0
52.959522618 326.0
52.985783183 280.0
53.012043748 304.0
53.038304314 303.0
53.064564879 312.0
53.090825444 336.0
53.117086010 324.0
53.143346575 310.0
53.169607140 313.0
53.195867706 308.0
53.222128271 323.0
53.248388836 280.0
53.274649402 299.0
53.300909967 300.0
53.327170533 319.0
53.353431098 298.0
53.379691663 315.0
53.405952229 283.0
53.432212794 296.0
53.458473359 325.0
53.484733925 317.0
53.510994490 317.0
53.537255055 318.0
53.563515621 313.0
53.589776186 282.0
53.616036751 297.0
53.642297317 290.0
53.668557882 282.0
53.694818448 302.0
53.721079013 321.0
53.747339578 285.0
53.773600144 332.0
53.799860709 290.0
53.826121274 300.0
53.852381840 325.0
53.878642405 306.0
53.904902970 300.0
53.931163536 288.0
53.957424101 273.0
53.983684666 315.0
54.009945232 326.0
54.036205797 293.0
54.062466362 289.0
54.088726928 274.0
54.114987493 334.0
54.141248059 292.0
54.167508624 298.0
54.193769189 290.0
54.220029755 288.0
54.246290320 326.0
54.272550885 288.0
54.298811451 328.0
54.325072016 301.0
54.351332581 278.0
54.377593147 281.0
54.403853712 323.0
54.430114277 305.0
54.456374843 273.0
54.482635408 269.0
54.508895973 299.0
54.535156539 261.0
54.561417104 323.0
54.587677670 312.0
54.613938235 282.0
54.640198800 296.0
54.666459366 297.0
54.692719931 320.0
54.718980496 287.0
54.745241062 317.0
54.771501627 297.0
54.797762192 319.0
54.824022758 275.0
54.850283323 322.0
54.876543888 281.0
54.902804454 304.0
54.929065019 274.0
54.955325585 299.0
54.981586150 284.0
55.007846715 305.0
55.034107281 297.0
55.060367846 277.0
55.086628411 285.0
55.112888977 280.0
55.139149542 263.0
55.165410107 291.0
55.191670673 282.0
55.217931238 302.0
55.244191803 281.0
55.270452369 300.0
55.296712934 275.0
55.322973499 282.0
55.349234065 315.0
55.375494630 274.0
55.401755196 257.0
55.428015761 301.0
55.454276326 283.0
55.480536892 292.0
55.506797457 273.0
55.533058022 286.0
55.559318588 282.0
55.585579153 284.0
55.611839718 295.0
55.638100284 296.0
55.664360849 308.0
55.690621414 304.0
55.716881980 341.0
55.743142545 282.0
55.769403111 280.0
55.795663676 300.0
55.821924241 271.0
55.848184807 290.0
55.874445372 249.0
55.900705937 283.0
55.926966503 298.0
55.953227068 259.0
55.979487633 261.0
56.005748199 311.0
56.032008764 275.0
56.058269329 286.0
56.084529895 292.0
56.110790460 266.0
56.137051025 279.0
56.163311591 270.0
56.189572156 315.0
56.215832722 287.0
56.242093287 312.0
56.268353852 288.0
56.294614418 303.0
56.320874983 306.0
56.347135548 288.0
56.373396114 294.0
56.399656679 286.0
56.425917244 285.0
56.452177810 291.0
56.478438375 284.0
56.504698940 303.0
56.530959506 285.0
56.557220071 273.0
56.583480637 286.0
56.609741202 291.0
56.636001767 316.0
56.662262333 266.0
56.688522898 264.0
56.714783463 270.0
56.741044029 274.0
56.767304594 303.0
56.793565159 304.0
56.819825725 307.0
56.846086290 248.0
56.872346855 322.0
56.898607421 293.0
56.924867986 287.0
56.951128551 314.0
56.977389117 277.0
57.003649682 298.0
57.029910248 247.0
57.056170813 291.0
57.082431378 268.0
57.108691944 295.0
57.134952509 309.0
57.161213074 303.0
57.187473640 315.0
57.213734205 298.0
57.239994770 282.0
57.266255336 297.0
57.292515901 313.0
57.318776466 311.0
57.345037032 285.0
57.371297597 271.0
57.397558163 309.0
57.423818728 280.0
57.450079293 275.0
57.476339859 289.0
57.502600424 280.0
57.528860989 288.0
57.555121555 292.0
57.581382120 280.0
57.607642685 295.0
57.633903251 288.0
57.660163816 305.0
57.686424381 261.0
57.712684947 288.0
57.738945512 300.0
57.765206077 291.0
57.791466643 312.0
57.817727208 300.0
57.843987774 314.0
57.870248339 301.0
57.896508904 284.0
57.922769470 293.0
57.949030035 308.0
57.975290600 274.0
58.001551166 295.0
58.027811731 317.0
58.054072296 294.0
58.080332862 294.0
58.106593427 296.0
58.132853992 307.0
58.159114558 293.0
58.185375123 302.0
58.211635689 300.0
58.237896254 275.0
58.264156819 307.0
58.290417385 278.0
58.316677950 273.0
58.342938515 306.0
58.369199081 281.0
58.395459646 282.0
58.421720211 306.0
58.447980777 308.0
58.474241342 301.0
58.500501907 276.0
58.526762473 311.0
58.553023038 321.0
58.579283603 314.0
58.605544169 344.0
58.631804734 294.0
58.658065300 305.0
58.684325865 301.0
58.710586430 293.0
58.736846996 281.0
58.763107561 296.0
58.789368126 311.0
58.815628692 299.0
58.841889257 309.0
58.868149822 289.0
58.894410388 319.0
58.920670953 324.0
58.946931518 337.0
58.973192084 329.0
58.999452649 321.0
59.025713214 294.0
59.051973780 305.0
59.078234345 297.0
59.104494911 332.0
59.130755476 308.0
59.157016041 314.0
59.183276607 342.0
59.209537172 334.0
59.235797737 330.0
59.262058303 354.0
59.288318868 339.0
59.314579433 338.0
59.340839999 327.0
59.367100564 312.0
59.393361129 329.0
59.419621695 326.0
59.445882260 363.0
59.472142826 371.0
59.498403391 348.0
59.524663956 342.0
59.550924522 336.0
59.577185087 352.0
59.603445652 369.0
59.629706218 354.0
59.655966783 375.0
59.682227348 404.0
59.708487914 356.0
59.734748479 382.0
59.761009044 374.0
59.787269610 364.0
59.813530175 401.0
59.839790740 383.0
59.866051306 390.0
59.892311871 413.0
59.918572437 429.0
59.944833002 428.0
59.971093567 438.0
59.997354133 429.0
60.023614698 445.0
60.049875263 479.0
60.076135829 471.0
60.102396394 469.0
60.128656959 489.0
60.154917525 516.0
60.181178090 465.0
60.207438655 506.0
60.233699221 543.0
60.259959786 527.0
60.286220352 547.0
60.312480917 511.0
60.338741482 548.0
60.365002048 517.0
60.391262613 559.0
60.417523178 566.0
60.443783744 633.0
60.470044309 595.0
60.496304874 621.0
60.522565440 610.0
60.548826005 628.0
60.575086570 621.0
60.601347136 592.0
60.627607701 618.0
60.653868266 663.0
60.680128832 639.0
60.706389397 680.0
60.732649963 662.0
60.758910528 624.0
60.785171093 606.0
60.811431659 622.0
60.837692224 648.0
60.863952789 648.0
60.890213355 654.0
60.916473920 631.0
60.942734485 611.0
60.968995051 579.0
60.995255616 626.0
61.021516181 613.0
61.047776747 614.0
61.074037312 550.0
61.100297878 598.0
61.126558443 576.0
61.152819008 580.0
61.179079574 569.0
61.205340139 536.0
61.231600704 577.0
61.257861270 551.0
61.284121835 560.0
61.310382400 555.0
61.336642966 540.0
61.362903531 536.0
61.389164096 544.0
61.415424662 545.0
61.441685227 526.0
61.467945792 555.0
61.494206358 538.0
61.520466923 546.0
61.546727489 511.0
61.572988054 556.0
61.599248619 541.0
61.625509185 507.0
61.651769750 533.0
61.678030315 529.0
61.704290881 482.0
61.730551446 505.0
61.756812011 524.0
61.783072577 549.0
61.809333142 529.0
61.835593707 470.0
61.861854273 484.0
61.888114838 549.0
61.914375404 494.0
61.940635969 522.0
61.966896534 509.0
61.993157100 465.0
62.019417665 506.0
62.045678230 486.0
62.071938796 474.0
62.098199361 420.0
62.124459926 446.0
62.150720492 497.0
62.176981057 482.0
62.203241622 460.0
62.229502188 404.0
62.255762753 427.0
62.282023318 414.0
62.308283884 447.0
62.334544449 422.0
62.360805015 416.0
62.387065580 420.0
62.413326145 412.0
62.439586711 369.0
62.465847276 391.0
62.492107841 394.0
62.518368407 389.0
62.544628972 398.0
62.570889537 387.0
62.597150103 387.0
62.623410668 356.0
62.649671233 330.0
62.675931799 357.0
62.702192364 378.0
62.728452930 354.0
62.754713495 307.0
62.780974060 314.0
62.807234626 327.0
62.833495191 346.0
62.859755756 324.0
62.886016322 331.0
62.912276887 340.0
62.938537452 314.0
62.964798018 301.0
62.991058583 302.0
63.017319148 310.0
63.043579714 306.0
63.069840279 324.0
63.096100844 325.0
63.122361410 291.0
63.148621975 324.0
63.174882541 295.0
63.201143106 322.0
63.227403671 319.0
63.253664237 280.0
63.279924802 304.0
63.306185367 303.0
63.332445933 318.0
63.358706498 304.0
63.384967063 253.0
63.411227629 292.0
63.437488194 282.0
63.463748759 278.0
63.490009325 274.0
63.516269890 295.0
63.542530455 271.0
63.568791021 304.0
63.595051586 265.0
63.621312152 270.0
63.647572717 264.0
63.673833282 282.0
63.700093848 269.0
63.726354413 279.0
63.752614978 263.0
63.778875544 291.0
63.805136109 263.0
63.831396674 291.0
63.857657240 263.0
63.883917805 268.0
63.910178370 269.0
63.936438936 272.0
63.962699501 254.0
63.988960067 250.0
64.015220632 237.0
64.041481197 270.0
64.067741763 270.0
64.094002328 291.0
64.120262893 285.0
64.146523459 294.0
64.172784024 274.0
64.199044589 248.0
64.225305155 282.0
64.251565720 261.0
64.277826285 285.0
64.304086851 282.0
64.330347416 290.0
64.356607981 263.0
64.382868547 289.0
64.409129112 261.0
64.435389678 261.0
64.461650243 236.0
64.487910808 271.0
64.514171374 270.0
64.540431939 272.0
64.566692504 274.0
64.592953070 269.0
64.619213635 244.0
64.645474200 254.0
64.671734766 230.0
64.697995331 262.0
64.724255896 283.0
64.750516462 249.0
64.776777027 264.0
64.803037593 258.0
64.829298158 280.0
64.855558723 270.0
64.881819289 277.0
64.908079854 258.0
64.934340419 244.0
64.960600985 253.0
64.986861550 290.0
