5.007730280 2580.0
5.033990845 2702.0
5.060251411 2691.0
5.086511976 2711.0
5.112772541 2743.0
5.139033107 2744.0
5.165293672 2784.0
5.191554237 2631.0
5.217814803 2625.0
5.244075368 2687.0
5.270335934 2587.0
5.296596499 2646.0
5.322857064 2712.0
5.349117630 2746.0
5.375378195 2650.0
5.401638760 2676.0
5.427899326 2672.0
5.454159891 2559.0
5.480420456 2570.0
5.506681022 2661.0
5.532941587 2642.0
5.559202152 2700.0
5.585462718 2645.0
5.611723283 2555.0
5.637983849 2515.0
5.664244414 2559.0
5.690504979 2574.0
5.716765545 2642.0
5.743026110 2571.0
5.769286675 2678.0
5.795547241 2609.0
5.821807806 2534.0
5.848068371 2541.0
5.874328937 2509.0
5.900589502 2573.0
5.926850067 2537.0
5.953110633 2564.0
5.979371198 2481.0
6.005631763 2546.0
6.031892329 2592.0
6.058152894 2460.0
6.084413460 2416.0
6.110674025 2518.0
6.136934590 2505.0
6.163195156 2594.0
6.189455721 2572.0
6.215716286 2499.0
6.241976852 2499.0
6.268237417 2468.0
6.294497982 2481.0
6.320758548 2422.0
6.347019113 2415.0
6.373279678 2440.0
6.399540244 2466.0
6.425800809 2375.0
6.452061375 2346.0
6.478321940 2367.0
6.504582505 2396.0
6.530843071 2425.0
6.557103636 2402.0
6.583364201 2402.0
6.609624767 2389.0
6.635885332 2374.0
6.662145897 2290.0
6.688406463 2402.0
6.714667028 2391.0
6.740927593 2368.0
6.767188159 2287.0
6.793448724 2318.0
6.819709289 2342.0
6.845969855 2317.0
6.872230420 2346.0
6.898490986 2255.0
6.924751551 2318.0
6.951012116 2292.0
6.977272682 2242.0
7.003533247 2322.0
7.029793812 2270.0
7.056054378 2279.0
7.082314943 2177.0
7.108575508 2287.0
7.134836074 2236.0
7.161096639 2201.0
7.187357204 2168.0
7.213617770 2212.0
7.239878335 2156.0
7.266138900 2156.0
7.292399466 2224.0
7.318660031 2122.0
7.344920597 2143.0
7.371181162 2165.0
7.397441727 2125.0
7.423702293 2099.0
7.449962858 2098.0
7.476223423 2096.0
7.502483989 2098.0
7.528744554 2041.0
7.555005119 2082.0
7.581265685 2046.0
7.607526250 2055.0
7.633786815 2025.0
7.660047381 1961.0
7.686307946 2093.0
7.712568512 1978.0
7.738829077 1981.0
7.765089642 1947.0
7.791350208 1940.0
7.817610773 1930.0
7.843871338 1986.0
7.870131904 1912.0
7.896392469 1974.0
7.922653034 1839.0
7.948913600 1883.0
7.975174165 1889.0
8.001434730 1882.0
8.027695296 1821.0
8.053955861 1933.0
8.080216426 1827.0
8.106476992 1811.0
8.132737557 1902.0
8.158998123 1804.0
8.185258688 1790.0
8.211519253 1929.0
8.237779819 1823.0
8.264040384 1764.0
8.290300949 1709.0
8.316561515 1770.0
8.342822080 1770.0
8.369082645 1670.0
8.395343211 1690.0
8.421603776 1741.0
8.447864341 1717.0
8.474124907 1779.0
8.500385472 1784.0
8.526646038 1660.0
8.552906603 1773.0
8.579167168 1707.0
8.605427734 1754.0
8.631688299 1712.0
8.657948864 1762.0
8.684209430 1718.0
8.710469995 1658.0
8.736730560 1746.0
8.762991126 1746.0
8.789251691 1625.0
8.815512256 1695.0
8.841772822 1721.0
8.868033387 1679.0
8.894293952 1669.0
8.920554518 1733.0
8.946815083 1691.0
8.973075649 1689.0
8.999336214 1714.0
9.025596779 1698.0
9.051857345 1680.0
9.078117910 1674.0
9.104378475 1761.0
9.130639041 1797.0
9.156899606 1693.0
9.183160171 1705.0
9.209420737 1673.0
9.235681302 1615.0
9.261941867 1668.0
9.288202433 1776.0
9.314462998 1647.0
9.340723564 1703.0
9.366984129 1777.0
9.393244694 1713.0
9.419505260 1741.0
9.445765825 1727.0
9.472026390 1718.0
9.498286956 1696.0
9.524547521 1770.0
9.550808086 1800.0
9.577068652 1799.0
9.603329217 1799.0
9.629589782 1808.0
9.655850348 1826.0
9.682110913 1725.0
9.708371478 1795.0
9.734632044 1828.0
9.760892609 1831.0
9.787153175 1846.0
9.813413740 1850.0
9.839674305 1834.0
9.865934871 1923.0
9.892195436 1863.0
9.918456001 1903.0
9.944716567 1973.0
9.970977132 1913.0
9.997237697 1941.0
10.023498263 1895.0
10.049758828 1868.0
10.076019393 1963.0
10.102279959 1977.0
10.128540524 2078.0
10.154801090 2025.0
10.181061655 2030.0
10.207322220 2094.0
10.233582786 2159.0
10.259843351 2056.0
10.286103916 2073.0
10.312364482 2142.0
10.338625047 2203.0
10.364885612 2256.0
10.391146178 2163.0
10.417406743 2216.0
10.443667308 2231.0
10.469927874 2228.0
10.496188439 2241.0
10.522449004 2315.0
10.548709570 2313.0
10.574970135 2423.0
10.601230701 2364.0
10.627491266 2367.0
10.653751831 2321.0
10.680012397 2459.0
10.706272962 2440.0
10.732533527 2428.0
10.758794093 2394.0
10.785054658 2588.0
10.811315223 2469.0
10.837575789 2575.0
10.863836354 2524.0
10.890096919 2519.0
10.916357485 2602.0
10.942618050 2540.0
10.968878616 2627.0
10.995139181 2467.0
11.021399746 2602.0
11.047660312 2561.0
11.073920877 2650.0
11.100181442 2695.0
11.126442008 2632.0
11.152702573 2624.0
11.178963138 2662.0
11.205223704 2592.0
11.231484269 2484.0
11.257744834 2596.0
11.284005400 2621.0
11.310265965 2681.0
11.336526530 2603.0
11.362787096 2641.0
11.389047661 2588.0
11.415308227 2602.0
11.441568792 2466.0
11.467829357 2510.0
11.494089923 2456.0
11.520350488 2403.0
11.546611053 2344.0
11.572871619 2278.0
11.599132184 2252.0
11.625392749 2215.0
11.651653315 2157.0
11.677913880 2086.0
11.704174445 2053.0
11.730435011 2104.0
11.756695576 2152.0
11.782956141 1988.0
11.809216707 2054.0
11.835477272 1907.0
11.861737838 1911.0
11.887998403 1860.0
11.914258968 1898.0
11.940519534 1834.0
11.966780099 1807.0
11.993040664 1683.0
12.019301230 1753.0
12.045561795 1736.0
12.071822360 1659.0
12.098082926 1641.0
12.124343491 1680.0
12.150604056 1616.0
12.176864622 1527.0
12.203125187 1625.0
12.229385753 1523.0
12.255646318 1498.0
12.281906883 1450.0
12.308167449 1466.0
12.334428014 1512.0
12.360688579 1424.0
12.386949145 1400.0
12.413209710 1349.0
12.439470275 1363.0
12.465730841 1330.0
12.491991406 1297.0
12.518251971 1363.0
12.544512537 1234.0
12.570773102 1277.0
12.597033667 1239.0
12.623294233 1244.0
12.649554798 1262.0
12.675815364 1205.0
12.702075929 1250.0
12.728336494 1163.0
12.754597060 1144.0
12.780857625 1182.0
12.807118190 1192.0
12.833378756 1179.0
12.859639321 1065.0
12.885899886 1117.0
12.912160452 1142.0
12.938421017 1069.0
12.964681582 1110.0
12.990942148 1073.0
13.017202713 1106.0
13.043463279 1047.0
13.069723844 1024.0
13.095984409 1027.0
13.122244975 1034.0
13.148505540 989.0
13.174766105 1000.0
13.201026671 942.0
13.227287236 967.0
13.253547801 929.0
13.279808367 912.0
13.306068932 926.0
13.332329497 976.0
13.358590063 1007.0
13.384850628 941.0
13.411111193 920.0
13.437371759 925.0
13.463632324 892.0
13.489892890 920.0
13.516153455 1002.0
13.542414020 907.0
13.568674586 919.0
13.594935151 886.0
13.621195716 888.0
13.647456282 902.0
13.673716847 910.0
13.699977412 879.0
13.726237978 900.0
13.752498543 840.0
13.778759108 894.0
13.805019674 856.0
13.831280239 876.0
13.857540805 875.0
13.883801370 909.0
13.910061935 851.0
13.936322501 854.0
13.962583066 867.0
13.988843631 811.0
14.015104197 851.0
14.041364762 857.0
14.067625327 848.0
14.093885893 842.0
14.120146458 814.0
14.146407023 880.0
14.172667589 811.0
14.198928154 777.0
14.225188719 778.0
14.251449285 806.0
14.277709850 789.0
14.303970416 755.0
14.330230981 763.0
14.356491546 763.0
14.382752112 769.0
14.409012677 774.0
14.435273242 720.0
14.461533808 784.0
14.487794373 792.0
14.514054938 765.0
14.540315504 734.0
14.566576069 733.0
14.592836634 777.0
14.619097200 808.0
14.645357765 733.0
14.671618331 756.0
14.697878896 742.0
14.724139461 726.0
14.750400027 736.0
14.776660592 771.0
14.802921157 793.0
14.829181723 728.0
14.855442288 779.0
14.881702853 733.0
14.907963419 716.0
14.934223984 763.0
14.960484549 755.0
14.986745115 692.0
15.013005680 751.0
15.039266245 749.0
15.065526811 700.0
15.091787376 760.0
15.118047942 706.0
15.144308507 730.0
15.170569072 719.0
15.196829638 734.0
15.223090203 771.0
15.249350768 687.0
15.275611334 739.0
15.301871899 741.0
15.328132464 685.0
15.354393030 745.0
15.380653595 792.0
15.406914160 695.0
15.433174726 716.0
15.459435291 752.0
15.485695857 718.0
15.511956422 728.0
15.538216987 730.0
15.564477553 753.0
15.590738118 728.0
15.616998683 667.0
15.643259249 669.0
15.669519814 692.0
15.695780379 728.0
15.722040945 734.0
15.748301510 711.0
15.774562075 673.0
15.800822641 702.0
15.827083206 716.0
15.853343771 679.0
15.879604337 683.0
15.905864902 652.0
15.932125468 722.0
15.958386033 663.0
15.984646598 708.0
16.010907164 719.0
16.037167729 731.0
16.063428294 715.0
16.089688860 676.0
16.115949425 689.0
16.142209990 669.0
16.168470556 696.0
16.194731121 702.0
16.220991686 691.0
16.247252252 628.0
16.273512817 693.0
16.299773382 677.0
16.326033948 691.0
16.352294513 684.0
16.378555079 696.0
16.404815644 709.0
16.431076209 685.0
16.457336775 695.0
16.483597340 716.0
16.509857905 679.0
16.536118471 699.0
16.562379036 678.0
16.588639601 674.0
16.614900167 696.0
16.641160732 694.0
16.667421297 664.0
16.693681863 690.0
16.719942428 673.0
16.746202994 706.0
16.772463559 675.0
16.798724124 721.0
16.824984690 667.0
16.851245255 657.0
16.877505820 655.0
16.903766386 620.0
16.930026951 625.0
16.956287516 636.0
16.982548082 623.0
17.008808647 671.0
17.035069212 630.0
17.061329778 725.0
17.087590343 687.0
17.113850908 663.0
17.140111474 690.0
17.166372039 677.0
17.192632605 671.0
17.218893170 630.0
17.245153735 681.0
17.271414301 696.0
17.297674866 679.0
17.323935431 685.0
17.350195997 681.0
17.376456562 700.0
17.402717127 705.0
17.428977693 654.0
17.455238258 689.0
17.481498823 677.0
17.507759389 677.0
17.534019954 681.0
17.560280520 631.0
17.586541085 677.0
17.612801650 694.0
17.639062216 669.0
17.665322781 651.0
17.691583346 663.0
17.717843912 702.0
17.744104477 698.0
17.770365042 694.0
17.796625608 700.0
17.822886173 646.0
17.849146738 659.0
17.875407304 653.0
17.901667869 713.0
17.927928434 645.0
17.954189000 653.0
17.980449565 678.0
18.006710131 642.0
18.032970696 681.0
18.059231261 680.0
18.085491827 687.0
18.111752392 695.0
18.138012957 753.0
18.164273523 629.0
18.190534088 655.0
18.216794653 684.0
18.243055219 682.0
18.269315784 725.0
18.295576349 649.0
18.321836915 660.0
18.348097480 659.0
18.374358046 688.0
18.400618611 665.0
18.426879176 745.0
18.453139742 703.0
18.479400307 752.0
18.505660872 691.0
18.531921438 736.0
18.558182003 694.0
18.584442568 708.0
18.610703134 733.0
18.636963699 683.0
18.663224264 656.0
18.689484830 692.0
18.715745395 671.0
18.742005960 707.0
18.768266526 704.0
18.794527091 693.0
18.820787657 713.0
18.847048222 641.0
18.873308787 738.0
18.899569353 658.0
18.925829918 726.0
18.952090483 722.0
18.978351049 697.0
19.004611614 676.0
19.030872179 726.0
19.057132745 681.0
19.083393310 728.0
19.109653875 730.0
19.135914441 705.0
19.162175006 716.0
19.188435572 717.0
19.214696137 711.0
19.240956702 737.0
19.267217268 698.0
19.293477833 737.0
19.319738398 731.0
19.345998964 745.0
19.372259529 695.0
19.398520094 685.0
19.424780660 700.0
19.451041225 717.0
19.477301790 713.0
19.503562356 743.0
19.529822921 714.0
19.556083486 769.0
19.582344052 731.0
19.608604617 734.0
19.634865183 714.0
19.661125748 692.0
19.687386313 754.0
19.713646879 764.0
19.739907444 745.0
19.766168009 764.0
19.792428575 770.0
19.818689140 777.0
19.844949705 719.0
19.871210271 730.0
19.897470836 686.0
19.923731401 719.0
19.949991967 746.0
19.976252532 766.0
20.002513098 747.0
20.028773663 769.0
20.055034228 760.0
20.081294794 747.0
20.107555359 770.0
20.133815924 744.0
20.160076490 748.0
20.186337055 749.0
20.212597620 773.0
20.238858186 767.0
20.265118751 764.0
20.291379316 778.0
20.317639882 736.0
20.343900447 810.0
20.370161012 765.0
20.396421578 766.0
20.422682143 751.0
20.448942709 809.0
20.475203274 821.0
20.501463839 771.0
20.527724405 806.0
20.553984970 734.0
20.580245535 769.0
20.606506101 836.0
20.632766666 801.0
20.659027231 882.0
20.685287797 771.0
20.711548362 784.0
20.737808927 836.0
20.764069493 815.0
20.790330058 846.0
20.816590623 810.0
20.842851189 859.0
20.869111754 849.0
20.895372320 879.0
20.921632885 775.0
20.947893450 883.0
20.974154016 852.0
21.000414581 816.0
21.026675146 821.0
21.052935712 846.0
21.079196277 849.0
21.105456842 880.0
21.131717408 920.0
21.157977973 887.0
21.184238538 929.0
21.210499104 803.0
21.236759669 899.0
21.263020235 921.0
21.289280800 954.0
21.315541365 873.0
21.341801931 898.0
21.368062496 956.0
21.394323061 944.0
21.420583627 898.0
21.446844192 970.0
21.473104757 1055.0
21.499365323 988.0
21.525625888 979.0
21.551886453 999.0
21.578147019 989.0
21.604407584 967.0
21.630668149 993.0
21.656928715 978.0
21.683189280 969.0
21.709449846 1020.0
21.735710411 990.0
21.761970976 1016.0
21.788231542 1078.0
21.814492107 1027.0
21.840752672 1014.0
21.867013238 1052.0
21.893273803 1080.0
21.919534368 1071.0
21.945794934 1072.0
21.972055499 1072.0
21.998316064 1098.0
22.024576630 1121.0
22.050837195 1138.0
22.077097761 1168.0
22.103358326 1085.0
22.129618891 1076.0
22.155879457 1165.0
22.182140022 1079.0
22.208400587 1107.0
22.234661153 1117.0
22.260921718 1208.0
22.287182283 1127.0
22.313442849 1153.0
22.339703414 1202.0
22.365963979 1176.0
22.392224545 1179.0
22.418485110 1215.0
22.444745675 1146.0
22.471006241 1248.0
22.497266806 1202.0
22.523527372 1157.0
22.549787937 1221.0
22.576048502 1164.0
22.602309068 1210.0
22.628569633 1175.0
22.654830198 1156.0
22.681090764 1234.0
22.707351329 1189.0
22.733611894 1252.0
22.759872460 1199.0
22.786133025 1213.0
22.812393590 1236.0
22.838654156 1177.0
22.864914721 1149.0
22.891175287 1226.0
22.917435852 1231.0
22.943696417 1169.0
22.969956983 1201.0
22.996217548 1199.0
23.022478113 1196.0
23.048738679 1161.0
23.074999244 1166.0
23.101259809 1107.0
23.127520375 1188.0
23.153780940 1048.0
23.180041505 1157.0
23.206302071 1134.0
23.232562636 1087.0
23.258823201 1121.0
23.285083767 1094.0
23.311344332 1014.0
23.337604898 1044.0
23.363865463 1034.0
23.390126028 1004.0
23.416386594 1061.0
23.442647159 1037.0
23.468907724 1024.0
23.495168290 1061.0
23.521428855 1008.0
23.547689420 1022.0
23.573949986 986.0
23.600210551 918.0
23.626471116 938.0
23.652731682 978.0
23.678992247 968.0
23.705252813 931.0
23.731513378 934.0
23.757773943 964.0
23.784034509 919.0
23.810295074 944.0
23.836555639 929.0
23.862816205 863.0
23.889076770 917.0
23.915337335 869.0
23.941597901 855.0
23.967858466 901.0
23.994119031 935.0
24.020379597 892.0
24.046640162 821.0
24.072900727 880.0
24.099161293 837.0
24.125421858 827.0
24.151682424 836.0
24.177942989 835.0
24.204203554 851.0
24.230464120 824.0
24.256724685 798.0
24.282985250 823.0
24.309245816 821.0
24.335506381 802.0
24.361766946 808.0
24.388027512 832.0
24.414288077 755.0
24.440548642 735.0
24.466809208 777.0
24.493069773 719.0
24.519330338 771.0
24.545590904 752.0
24.571851469 764.0
24.598112035 782.0
24.624372600 761.0
24.650633165 781.0
24.676893731 752.0
24.703154296 758.0
24.729414861 703.0
24.755675427 702.0
24.781935992 730.0
24.808196557 721.0
24.834457123 724.0
24.860717688 781.0
24.886978253 749.0
24.913238819 728.0
24.939499384 724.0
24.965759950 733.0
24.992020515 695.0
25.018281080 749.0
25.044541646 712.0
25.070802211 744.0
25.097062776 682.0
25.123323342 720.0
25.149583907 711.0
25.175844472 721.0
25.202105038 692.0
25.228365603 665.0
25.254626168 707.0
25.280886734 705.0
25.307147299 734.0
25.333407864 762.0
25.359668430 684.0
25.385928995 717.0
25.412189561 733.0
25.438450126 669.0
25.464710691 717.0
25.490971257 704.0
25.517231822 672.0
25.543492387 666.0
25.569752953 626.0
25.596013518 711.0
25.622274083 713.0
25.648534649 637.0
25.674795214 698.0
25.701055779 667.0
25.727316345 667.0
25.753576910 682.0
25.779837476 707.0
25.806098041 717.0
25.832358606 676.0
25.858619172 638.0
25.884879737 697.0
25.911140302 683.0
25.937400868 678.0
25.963661433 681.0
25.989921998 710.0
26.016182564 719.0
26.042443129 727.0
26.068703694 683.0
26.094964260 669.0
26.121224825 631.0
26.147485390 672.0
26.173745956 656.0
26.200006521 639.0
26.226267087 639.0
26.252527652 676.0
26.278788217 623.0
26.305048783 710.0
26.331309348 652.0
26.357569913 670.0
26.383830479 661.0
26.410091044 679.0
26.436351609 683.0
26.462612175 657.0
26.488872740 672.0
26.515133305 659.0
26.541393871 688.0
26.567654436 723.0
26.593915002 648.0
26.620175567 611.0
26.646436132 674.0
26.672696698 703.0
26.698957263 673.0
26.725217828 678.0
26.751478394 642.0
26.777738959 707.0
26.803999524 664.0
26.830260090 663.0
26.856520655 655.0
26.882781220 618.0
26.909041786 616.0
26.935302351 631.0
26.961562916 599.0
26.987823482 607.0
27.014084047 678.0
27.040344613 608.0
27.066605178 631.0
27.092865743 655.0
27.119126309 711.0
27.145386874 646.0
27.171647439 681.0
27.197908005 653.0
27.224168570 648.0
27.250429135 618.0
27.276689701 585.0
27.302950266 612.0
27.329210831 656.0
27.355471397 653.0
27.381731962 670.0
27.407992528 674.0
27.434253093 627.0
27.460513658 669.0
27.486774224 664.0
27.513034789 634.0
27.539295354 597.0
27.565555920 636.0
27.591816485 662.0
27.618077050 604.0
27.644337616 635.0
27.670598181 624.0
27.696858746 618.0
27.723119312 625.0
27.749379877 645.0
27.775640442 614.0
27.801901008 584.0
27.828161573 652.0
27.854422139 658.0
27.880682704 627.0
27.906943269 628.0
27.933203835 608.0
27.959464400 631.0
27.985724965 635.0
28.011985531 600.0
28.038246096 662.0
28.064506661 618.0
28.090767227 592.0
28.117027792 602.0
28.143288357 673.0
28.169548923 610.0
28.195809488 637.0
28.222070054 644.0
28.248330619 688.0
28.274591184 629.0
28.300851750 630.0
28.327112315 641.0
28.353372880 590.0
28.379633446 659.0
28.405894011 618.0
28.432154576 614.0
28.458415142 608.0
28.484675707 617.0
28.510936272 604.0
28.537196838 601.0
28.563457403 654.0
28.589717968 637.0
28.615978534 617.0
28.642239099 603.0
28.668499665 593.0
28.694760230 613.0
28.721020795 584.0
28.747281361 595.0
28.773541926 613.0
28.799802491 614.0
28.826063057 612.0
28.852323622 614.0
28.878584187 622.0
28.904844753 595.0
28.931105318 633.0
28.957365883 647.0
28.983626449 584.0
29.009887014 615.0
29.036147579 579.0
29.062408145 616.0
29.088668710 601.0
29.114929276 564.0
29.141189841 605.0
29.167450406 596.0
29.193710972 610.0
29.219971537 584.0
29.246232102 652.0
29.272492668 650.0
29.298753233 613.0
29.325013798 581.0
29.351274364 585.0
29.377534929 610.0
29.403795494 571.0
29.430056060 596.0
29.456316625 593.0
29.482577191 613.0
29.508837756 621.0
29.535098321 570.0
29.561358887 560.0
29.587619452 609.0
29.613880017 575.0
29.640140583 580.0
29.666401148 629.0
29.692661713 586.0
29.718922279 575.0
29.745182844 571.0
29.771443409 635.0
29.797703975 619.0
29.823964540 546.0
29.850225105 588.0
29.876485671 521.0
29.902746236 557.0
29.929006802 598.0
29.955267367 516.0
29.981527932 563.0
30.007788498 612.0
30.034049063 591.0
30.060309628 570.0
30.086570194 590.0
30.112830759 601.0
30.139091324 583.0
30.165351890 595.0
30.191612455 558.0
30.217873020 555.0
30.244133586 583.0
30.270394151 557.0
30.296654717 604.0
30.322915282 547.0
30.349175847 550.0
30.375436413 560.0
30.401696978 589.0
30.427957543 549.0
30.454218109 539.0
30.480478674 565.0
30.506739239 609.0
30.532999805 530.0
30.559260370 522.0
30.585520935 575.0
30.611781501 534.0
30.638042066 535.0
30.664302631 507.0
30.690563197 572.0
30.716823762 615.0
30.743084328 549.0
30.769344893 586.0
30.795605458 543.0
30.821866024 582.0
30.848126589 530.0
30.874387154 560.0
30.900647720 559.0
30.926908285 502.0
30.953168850 543.0
30.979429416 541.0
31.005689981 509.0
31.031950546 570.0
31.058211112 561.0
31.084471677 550.0
31.110732243 573.0
31.136992808 524.0
31.163253373 536.0
31.189513939 564.0
31.215774504 557.0
31.242035069 571.0
31.268295635 570.0
31.294556200 491.0
31.320816765 486.0
31.347077331 536.0
31.373337896 538.0
31.399598461 528.0
31.425859027 536.0
31.452119592 595.0
31.478380157 500.0
31.504640723 569.0
31.530901288 581.0
31.557161854 520.0
31.583422419 568.0
31.609682984 542.0
31.635943550 483.0
31.662204115 545.0
31.688464680 503.0
31.714725246 557.0
31.740985811 511.0
31.767246376 550.0
31.793506942 546.0
31.819767507 495.0
31.846028072 521.0
31.872288638 501.0
31.898549203 492.0
31.924809769 544.0
31.951070334 511.0
31.977330899 481.0
32.003591465 566.0
32.029852030 513.0
32.056112595 565.0
32.082373161 563.0
32.108633726 520.0
32.134894291 471.0
32.161154857 543.0
32.187415422 505.0
32.213675987 542.0
32.239936553 607.0
32.266197118 531.0
32.292457683 538.0
32.318718249 500.0
32.344978814 517.0
32.371239380 526.0
32.397499945 549.0
32.423760510 536.0
32.450021076 515.0
32.476281641 551.0
32.502542206 532.0
32.528802772 584.0
32.555063337 527.0
32.581323902 548.0
32.607584468 545.0
32.633845033 545.0
32.660105598 609.0
32.686366164 586.0
32.712626729 555.0
32.738887295 556.0
32.765147860 565.0
32.791408425 537.0
32.817668991 541.0
32.843929556 562.0
32.870190121 571.0
32.896450687 560.0
32.922711252 602.0
32.948971817 570.0
32.975232383 550.0
33.001492948 583.0
33.027753513 576.0
33.054014079 587.0
33.080274644 613.0
33.106535209 584.0
33.132795775 633.0
33.159056340 646.0
33.185316906 625.0
33.211577471 595.0
33.237838036 671.0
33.264098602 618.0
33.290359167 688.0
33.316619732 614.0
33.342880298 672.0
33.369140863 719.0
33.395401428 679.0
33.421661994 710.0
33.447922559 643.0
33.474183124 723.0
33.500443690 717.0
33.526704255 724.0
33.552964820 715.0
33.579225386 769.0
33.605485951 807.0
33.631746517 784.0
33.658007082 774.0
33.684267647 758.0
33.710528213 851.0
33.736788778 858.0
33.763049343 861.0
33.789309909 820.0
33.815570474 930.0
33.841831039 918.0
33.868091605 958.0
33.894352170 915.0
33.920612735 959.0
33.946873301 931.0
33.973133866 970.0
33.999394432 1016.0
34.025654997 1011.0
34.051915562 972.0
34.078176128 1063.0
34.104436693 1090.0
34.130697258 1066.0
34.156957824 1071.0
34.183218389 1107.0
34.209478954 1072.0
34.235739520 1165.0
34.262000085 1149.0
34.288260650 1077.0
34.314521216 1087.0
34.340781781 1171.0
34.367042346 1188.0
34.393302912 1153.0
34.419563477 1202.0
34.445824043 1190.0
34.472084608 1225.0
34.498345173 1222.0
34.524605739 1326.0
34.550866304 1253.0
34.577126869 1274.0
34.603387435 1220.0
34.629648000 1251.0
34.655908565 1257.0
34.682169131 1296.0
34.708429696 1321.0
34.734690261 1255.0
34.760950827 1233.0
34.787211392 1243.0
34.813471958 1258.0
34.839732523 1287.0
34.865993088 1242.0
34.892253654 1244.0
34.918514219 1250.0
34.944774784 1193.0
34.971035350 1234.0
34.997295915 1257.0
35.023556480 1275.0
35.049817046 1276.0
35.076077611 1204.0
35.102338176 1189.0
35.128598742 1155.0
35.154859307 1161.0
35.181119872 1104.0
35.207380438 1157.0
35.233641003 1109.0
35.259901569 1023.0
35.286162134 1160.0
35.312422699 1114.0
35.338683265 1146.0
35.364943830 1162.0
35.391204395 1129.0
35.417464961 1090.0
35.443725526 1127.0
35.469986091 1093.0
35.496246657 1059.0
35.522507222 1069.0
35.548767787 1050.0
35.575028353 1068.0
35.601288918 1082.0
35.627549484 1069.0
35.653810049 1059.0
35.680070614 1043.0
35.706331180 1022.0
35.732591745 1009.0
35.758852310 1015.0
35.785112876 1026.0
35.811373441 1077.0
35.837634006 1037.0
35.863894572 1029.0
35.890155137 984.0
35.916415702 948.0
35.942676268 989.0
35.968936833 1031.0
35.995197398 1034.0
36.021457964 967.0
36.047718529 1022.0
36.073979095 1123.0
36.100239660 1016.0
36.126500225 988.0
36.152760791 979.0
36.179021356 1022.0
36.205281921 937.0
36.231542487 945.0
36.257803052 976.0
36.284063617 951.0
36.310324183 947.0
36.336584748 1022.0
36.362845313 940.0
36.389105879 944.0
36.415366444 934.0
36.441627010 955.0
36.467887575 1004.0
36.494148140 973.0
36.520408706 903.0
36.546669271 891.0
36.572929836 870.0
36.599190402 932.0
36.625450967 948.0
36.651711532 969.0
36.677972098 921.0
36.704232663 958.0
36.730493228 862.0
36.756753794 975.0
36.783014359 887.0
36.809274924 892.0
36.835535490 953.0
36.861796055 944.0
36.888056621 890.0
36.914317186 894.0
36.940577751 900.0
36.966838317 874.0
36.993098882 882.0
37.019359447 942.0
37.045620013 921.0
37.071880578 964.0
37.098141143 996.0
37.124401709 940.0
37.150662274 913.0
37.176922839 974.0
37.203183405 878.0
37.229443970 880.0
37.255704535 917.0
37.281965101 901.0
37.308225666 890.0
37.334486232 852.0
37.360746797 881.0
37.387007362 904.0
37.413267928 830.0
37.439528493 916.0
37.465789058 861.0
37.492049624 864.0
37.518310189 926.0
37.544570754 839.0
37.570831320 846.0
37.597091885 865.0
37.623352450 870.0
37.649613016 854.0
37.675873581 841.0
37.702134147 893.0
37.728394712 896.0
37.754655277 898.0
37.780915843 945.0
37.807176408 871.0
37.833436973 948.0
37.859697539 904.0
37.885958104 872.0
37.912218669 854.0
37.938479235 856.0
37.964739800 906.0
37.991000365 862.0
38.017260931 888.0
38.043521496 898.0
38.069782061 855.0
38.096042627 911.0
38.122303192 871.0
38.148563758 870.0
38.174824323 853.0
38.201084888 875.0
38.227345454 841.0
38.253606019 830.0
38.279866584 871.0
38.306127150 820.0
38.332387715 839.0
38.358648280 908.0
38.384908846 861.0
38.411169411 839.0
38.437429976 845.0
38.463690542 880.0
38.489951107 861.0
38.516211673 826.0
38.542472238 820.0
38.568732803 821.0
38.594993369 823.0
38.621253934 909.0
38.647514499 797.0
38.673775065 853.0
38.700035630 834.0
38.726296195 846.0
38.752556761 869.0
38.778817326 833.0
38.805077891 791.0
38.831338457 806.0
38.857599022 861.0
38.883859587 830.0
38.910120153 783.0
38.936380718 838.0
38.962641284 821.0
38.988901849 761.0
39.015162414 846.0
39.041422980 867.0
39.067683545 800.0
39.093944110 802.0
39.120204676 867.0
39.146465241 868.0
39.172725806 837.0
39.198986372 801.0
39.225246937 827.0
39.251507502 739.0
39.277768068 769.0
39.304028633 776.0
39.330289199 750.0
39.356549764 768.0
39.382810329 744.0
39.409070895 757.0
39.435331460 739.0
39.461592025 758.0
39.487852591 754.0
39.514113156 719.0
39.540373721 706.0
39.566634287 764.0
39.592894852 737.0
39.619155417 726.0
39.645415983 714.0
39.671676548 773.0
39.697937113 721.0
39.724197679 766.0
39.750458244 732.0
39.776718810 711.0
39.802979375 733.0
39.829239940 742.0
39.855500506 695.0
39.881761071 651.0
39.908021636 726.0
39.934282202 717.0
39.960542767 728.0
39.986803332 687.0
40.013063898 687.0
40.039324463 683.0
40.065585028 745.0
40.091845594 632.0
40.118106159 725.0
40.144366725 660.0
40.170627290 686.0
40.196887855 673.0
40.223148421 657.0
40.249408986 671.0
40.275669551 680.0
40.301930117 662.0
40.328190682 692.0
40.354451247 715.0
40.380711813 698.0
40.406972378 697.0
40.433232943 655.0
40.459493509 669.0
40.485754074 660.0
40.512014639 682.0
40.538275205 701.0
40.564535770 652.0
40.590796336 676.0
40.617056901 657.0
40.643317466 681.0
40.669578032 686.0
40.695838597 691.0
40.722099162 655.0
40.748359728 654.0
40.774620293 626.0
40.800880858 633.0
40.827141424 651.0
40.853401989 629.0
40.879662554 621.0
40.905923120 647.0
40.932183685 645.0
40.958444251 649.0
40.984704816 624.0
41.010965381 604.0
41.037225947 624.0
41.063486512 618.0
41.089747077 619.0
41.116007643 635.0
41.142268208 602.0
41.168528773 582.0
41.194789339 613.0
41.221049904 619.0
41.247310469 604.0
41.273571035 617.0
41.299831600 620.0
41.326092165 615.0
41.352352731 616.0
41.378613296 587.0
41.404873862 606.0
41.431134427 585.0
41.457394992 666.0
41.483655558 563.0
41.509916123 599.0
41.536176688 587.0
41.562437254 620.0
41.588697819 590.0
41.614958384 635.0
41.641218950 623.0
41.667479515 607.0
41.693740080 583.0
41.720000646 626.0
41.746261211 546.0
41.772521776 547.0
41.798782342 609.0
41.825042907 576.0
41.851303473 614.0
41.877564038 629.0
41.903824603 586.0
41.930085169 587.0
41.956345734 578.0
41.982606299 614.0
42.008866865 582.0
42.035127430 560.0
42.061387995 615.0
42.087648561 612.0
42.113909126 595.0
42.140169691 583.0
42.166430257 604.0
42.192690822 539.0
42.218951388 597.0
42.245211953 593.0
42.271472518 578.0
42.297733084 565.0
42.323993649 588.0
42.350254214 571.0
42.376514780 530.0
42.402775345 622.0
42.429035910 550.0
42.455296476 562.0
42.481557041 568.0
42.507817606 628.0
42.534078172 598.0
42.560338737 607.0
42.586599302 573.0
42.612859868 593.0
42.639120433 603.0
42.665380999 597.0
42.691641564 628.0
42.717902129 617.0
42.744162695 681.0
42.770423260 603.0
42.796683825 652.0
42.822944391 668.0
42.849204956 631.0
42.875465521 650.0
42.901726087 624.0
42.927986652 678.0
42.954247217 636.0
42.980507783 660.0
43.006768348 609.0
43.033028914 606.0
43.059289479 663.0
43.085550044 595.0
43.111810610 605.0
43.138071175 601.0
43.164331740 587.0
43.190592306 586.0
43.216852871 602.0
43.243113436 583.0
43.269374002 640.0
43.295634567 569.0
43.321895132 595.0
43.348155698 574.0
43.374416263 541.0
43.400676828 539.0
43.426937394 604.0
43.453197959 556.0
43.479458525 589.0
43.505719090 586.0
43.531979655 540.0
43.558240221 548.0
43.584500786 528.0
43.610761351 579.0
43.637021917 554.0
43.663282482 512.0
43.689543047 590.0
43.715803613 543.0
43.742064178 503.0
43.768324743 557.0
43.794585309 545.0
43.820845874 526.0
43.847106440 559.0
43.873367005 561.0
43.899627570 499.0
43.925888136 555.0
43.952148701 526.0
43.978409266 566.0
44.004669832 521.0
44.030930397 583.0
44.057190962 525.0
44.083451528 484.0
44.109712093 542.0
44.135972658 577.0
44.162233224 557.0
44.188493789 561.0
44.214754354 562.0
44.241014920 560.0
44.267275485 549.0
44.293536051 535.0
44.319796616 571.0
44.346057181 518.0
44.372317747 506.0
44.398578312 482.0
44.424838877 484.0
44.451099443 538.0
44.477360008 520.0
44.503620573 550.0
44.529881139 546.0
44.556141704 543.0
44.582402269 549.0
44.608662835 551.0
44.634923400 533.0
44.661183966 577.0
44.687444531 555.0
44.713705096 566.0
44.739965662 524.0
44.766226227 530.0
44.792486792 572.0
44.818747358 615.0
44.845007923 555.0
44.871268488 512.0
44.897529054 563.0
44.923789619 539.0
44.950050184 522.0
44.976310750 579.0
45.002571315 533.0
45.028831880 545.0
45.055092446 579.0
45.081353011 551.0
45.107613577 549.0
45.133874142 551.0
45.160134707 521.0
45.186395273 522.0
45.212655838 495.0
45.238916403 595.0
45.265176969 544.0
45.291437534 525.0
45.317698099 526.0
45.343958665 557.0
45.370219230 498.0
45.396479795 522.0
45.422740361 548.0
45.449000926 539.0
45.475261492 553.0
45.501522057 507.0
45.527782622 525.0
45.554043188 530.0
45.580303753 560.0
45.606564318 520.0
45.632824884 531.0
45.659085449 536.0
45.685346014 503.0
45.711606580 519.0
45.737867145 547.0
45.764127710 519.0
45.790388276 527.0
45.816648841 530.0
45.842909406 483.0
45.869169972 502.0
45.895430537 579.0
45.921691103 549.0
45.947951668 489.0
45.974212233 551.0
46.000472799 489.0
46.026733364 501.0
46.052993929 525.0
46.079254495 517.0
46.105515060 536.0
46.131775625 496.0
46.158036191 485.0
46.184296756 528.0
46.210557321 517.0
46.236817887 521.0
46.263078452 530.0
46.289339017 520.0
46.315599583 549.0
46.341860148 492.0
46.368120714 528.0
46.394381279 543.0
46.420641844 527.0
46.446902410 531.0
46.473162975 548.0
46.499423540 514.0
46.525684106 454.0
46.551944671 515.0
46.578205236 466.0
46.604465802 473.0
46.630726367 517.0
46.656986932 477.0
46.683247498 473.0
46.709508063 491.0
46.735768629 468.0
46.762029194 453.0
46.788289759 455.0
46.814550325 451.0
46.840810890 470.0
46.867071455 467.0
46.893332021 453.0
46.919592586 448.0
46.945853151 465.0
46.972113717 430.0
46.998374282 412.0
47.024634847 447.0
47.050895413 430.0
47.077155978 464.0
47.103416543 435.0
47.129677109 483.0
47.155937674 438.0
47.182198240 421.0
47.208458805 452.0
47.234719370 471.0
47.260979936 460.0
47.287240501 432.0
47.313501066 446.0
47.339761632 477.0
47.366022197 437.0
47.392282762 472.0
47.418543328 421.0
47.444803893 456.0
47.471064458 473.0
47.497325024 462.0
47.523585589 407.0
47.549846155 402.0
47.576106720 445.0
47.602367285 450.0
47.628627851 414.0
47.654888416 427.0
47.681148981 409.0
47.707409547 430.0
47.733670112 370.0
47.759930677 416.0
47.786191243 416.0
47.812451808 398.0
47.838712373 453.0
47.864972939 443.0
47.891233504 398.0
47.917494069 398.0
47.943754635 420.0
47.970015200 392.0
47.996275766 403.0
48.022536331 423.0
48.048796896 396.0
48.075057462 416.0
48.101318027 402.0
48.127578592 424.0
48.153839158 437.0
48.180099723 395.0
48.206360288 391.0
48.232620854 409.0
48.258881419 433.0
48.285141984 411.0
48.311402550 446.0
48.337663115 411.0
48.363923681 383.0
48.390184246 401.0
48.416444811 423.0
48.442705377 394.0
48.468965942 406.0
48.495226507 382.0
48.521487073 411.0
48.547747638 407.0
48.574008203 389.0
48.600268769 342.0
48.626529334 400.0
48.652789899 420.0
48.679050465 375.0
48.705311030 362.0
48.731571595 388.0
48.757832161 384.0
48.784092726 371.0
48.810353292 357.0
48.836613857 422.0
48.862874422 352.0
48.889134988 387.0
48.915395553 375.0
48.941656118 386.0
48.967916684 406.0
48.994177249 367.0
49.020437814 367.0
49.046698380 382.0
49.072958945 383.0
49.099219510 370.0
49.125480076 370.0
49.151740641 359.0
49.178001207 395.0
49.204261772 382.0
49.230522337 346.0
49.256782903 370.0
49.283043468 349.0
49.309304033 386.0
49.335564599 367.0
49.361825164 372.0
49.388085729 377.0
49.414346295 427.0
49.440606860 388.0
49.466867425 360.0
49.493127991 363.0
49.519388556 389.0
49.545649121 385.0
49.571909687 351.0
49.598170252 332.0
49.624430818 380.0
49.650691383 352.0
49.676951948 366.0
49.703212514 370.0
49.729473079 333.0
49.755733644 371.0
49.781994210 371.0
49.808254775 352.0
49.834515340 335.0
49.860775906 335.0
49.887036471 372.0
49.913297036 319.0
49.939557602 326.0
49.965818167 351.0
49.992078733 369.0
50.018339298 302.0
50.044599863 355.0
50.070860429 349.0
50.097120994 332.0
50.123381559 331.0
50.149642125 337.0
50.175902690 382.0
50.202163255 340.0
50.228423821 353.0
50.254684386 344.0
50.280944951 385.0
50.307205517 317.0
50.333466082 375.0
50.359726647 354.0
50.385987213 367.0
50.412247778 343.0
50.438508344 349.0
50.464768909 344.0
50.491029474 380.0
50.517290040 393.0
50.543550605 343.0
50.569811170 347.0
50.596071736 350.0
50.622332301 343.0
50.648592866 328.0
50.674853432 344.0
50.701113997 360.0
50.727374562 335.0
50.753635128 354.0
50.779895693 346.0
50.806156258 345.0
50.832416824 357.0
50.858677389 371.0
50.884937955 366.0
50.911198520 333.0
50.937459085 338.0
50.963719651 336.0
50.989980216 346.0
51.016240781 349.0
51.042501347 345.0
51.068761912 368.0
51.095022477 329.0
51.121283043 336.0
51.147543608 347.0
51.173804173 338.0
51.200064739 363.0
51.226325304 338.0
51.252585870 351.0
51.278846435 349.0
51.305107000 325.0
51.331367566 331.0
51.357628131 342.0
51.383888696 324.0
51.410149262 337.0
51.436409827 344.0
51.462670392 351.0
51.488930958 344.0
51.515191523 340.0
51.541452088 296.0
51.567712654 348.0
51.593973219 308.0
51.620233784 319.0
51.646494350 325.0
51.672754915 341.0
51.699015481 330.0
51.725276046 307.0
51.751536611 350.0
51.777797177 333.0
51.804057742 322.0
51.830318307 335.0
51.856578873 306.0
51.882839438 285.0
51.909100003 309.0
51.935360569 326.0
51.961621134 325.0
51.987881699 311.0
52.014142265 321.0
52.040402830 328.0
52.066663396 308.0
52.092923961 347.0
52.119184526 336.0
52.145445092 337.0
52.171705657 307.0
52.197966222 323.0
52.224226788 329.0
52.250487353 363.0
52.276747918 355.0
52.303008484 320.0
52.329269049 329.0
52.355529614 316.0
52.381790180 340.0
52.408050745 342.0
52.434311310 313.0
52.460571876 319.0
52.486832441 329.0
52.513093007 328.0
52.539353572 318.0
52.565614137 330.0
52.591874703 336.0
52.618135268 338.0
52.644395833 341.0
52.670656399 327.0
52.696916964 333.0
52.723177529 346.0
52.749438095 326.0
52.775698660 322.0
52.801959225 324.0
52.828219791 310.0
52.854480356 344.0
52.880740922 292.0
52.907001487 338.0
52.933262052 351.0
52.959522618 305.0
52.985783183 344.0
53.012043748 341.0
53.038304314 332.0
53.064564879 327.0
53.090825444 326.0
53.117086010 313.0
53.143346575 319.0
53.169607140 314.0
53.195867706 326.0
53.222128271 319.0
53.248388836 315.0
53.274649402 327.0
53.300909967 336.0
53.327170533 313.0
53.353431098 305.0
53.379691663 358.0
53.405952229 340.0
53.432212794 313.0
53.458473359 333.0
53.484733925 315.0
53.510994490 319.0
53.537255055 316.0
53.563515621 329.0
53.589776186 335.0
53.616036751 280.0
53.642297317 291.0
53.668557882 335.0
53.694818448 310.0
53.721079013 331.0
53.747339578 325.0
53.773600144 306.0
53.799860709 316.0
53.826121274 307.0
53.852381840 320.0
53.878642405 327.0
53.904902970 292.0
53.931163536 321.0
53.957424101 344.0
53.983684666 294.0
54.009945232 320.0
54.036205797 290.0
54.062466362 314.0
54.088726928 320.0
54.114987493 270.0
54.141248059 291.0
54.167508624 299.0
54.193769189 313.0
54.220029755 292.0
54.246290320 297.0
54.272550885 278.0
54.298811451 303.0
54.325072016 288.0
54.351332581 297.0
54.377593147 321.0
54.403853712 287.0
54.430114277 312.0
54.456374843 323.0
54.482635408 311.0
54.508895973 342.0
54.535156539 305.0
54.561417104 303.0
54.587677670 281.0
54.613938235 320.0
54.640198800 302.0
54.666459366 308.0
54.692719931 305.0
54.718980496 279.0
54.745241062 325.0
54.771501627 322.0
54.797762192 331.0
54.824022758 296.0
54.850283323 268.0
54.876543888 259.0
54.902804454 306.0
54.929065019 297.0
54.955325585 284.0
54.981586150 331.0
55.007846715 293.0
55.034107281 315.0
55.060367846 304.0
55.086628411 281.0
55.112888977 278.0
55.139149542 318.0
55.165410107 295.0
55.191670673 321.0
55.217931238 253.0
55.244191803 297.0
55.270452369 310.0
55.296712934 299.0
55.322973499 301.0
55.349234065 307.0
55.375494630 291.0
55.401755196 300.0
55.428015761 309.0
55.454276326 282.0
55.480536892 307.0
55.506797457 309.0
55.533058022 281.0
55.559318588 315.0
55.585579153 305.0
55.611839718 290.0
55.638100284 300.0
55.664360849 294.0
55.690621414 274.0
55.716881980 301.0
55.743142545 342.0
55.769403111 277.0
55.795663676 314.0
55.821924241 290.0
55.848184807 303.0
55.874445372 316.0
55.900705937 293.0
55.926966503 332.0
55.953227068 275.0
55.979487633 294.0
56.005748199 298.0
56.032008764 311.0
56.058269329 287.0
56.084529895 288.0
56.110790460 320.0
56.137051025 290.0
56.163311591 315.0
56.189572156 318.0
56.215832722 289.0
56.242093287 261.0
56.268353852 321.0
56.294614418 320.0
56.320874983 311.0
56.347135548 290.0
56.373396114 287.0
56.399656679 310.0
56.425917244 290.0
56.452177810 301.0
56.478438375 292.0
56.504698940 289.0
56.530959506 254.0
56.557220071 268.0
56.583480637 316.0
56.609741202 298.0
56.636001767 307.0
56.662262333 297.0
56.688522898 274.0
56.714783463 293.0
56.741044029 321.0
56.767304594 306.0
56.793565159 306.0
56.819825725 305.0
56.846086290 270.0
56.872346855 307.0
56.898607421 294.0
56.924867986 276.0
56.951128551 338.0
56.977389117 328.0
57.003649682 319.0
57.029910248 324.0
57.056170813 300.0
57.082431378 326.0
57.108691944 263.0
57.134952509 284.0
57.161213074 320.0
57.187473640 300.0
57.213734205 290.0
57.239994770 319.0
57.266255336 334.0
57.292515901 303.0
57.318776466 305.0
57.345037032 265.0
57.371297597 320.0
57.397558163 294.0
57.423818728 290.0
57.450079293 299.0
57.476339859 327.0
57.502600424 301.0
57.528860989 310.0
57.555121555 294.0
57.581382120 313.0
57.607642685 313.0
57.633903251 302.0
57.660163816 305.0
57.686424381 289.0
57.712684947 319.0
57.738945512 303.0
57.765206077 303.0
57.791466643 317.0
57.817727208 331.0
57.843987774 262.0
57.870248339 303.0
57.896508904 314.0
57.922769470 277.0
57.949030035 299.0
57.975290600 331.0
58.001551166 298.0
58.027811731 335.0
58.054072296 323.0
58.080332862 353.0
58.106593427 309.0
58.132853992 314.0
58.159114558 345.0
58.185375123 322.0
58.211635689 356.0
58.237896254 334.0
58.264156819 331.0
58.290417385 313.0
58.316677950 355.0
58.342938515 294.0
58.369199081 318.0
58.395459646 353.0
58.421720211 363.0
58.447980777 349.0
58.474241342 324.0
58.500501907 337.0
58.526762473 342.0
58.553023038 368.0
58.579283603 330.0
58.605544169 344.0
58.631804734 384.0
58.658065300 352.0
58.684325865 366.0
58.710586430 353.0
58.736846996 351.0
58.763107561 369.0
58.789368126 377.0
58.815628692 389.0
58.841889257 397.0
58.868149822 358.0
58.894410388 361.0
58.920670953 403.0
58.946931518 385.0
58.973192084 367.0
58.999452649 423.0
59.025713214 435.0
59.051973780 433.0
59.078234345 412.0
59.104494911 400.0
59.130755476 460.0
59.157016041 440.0
59.183276607 408.0
59.209537172 472.0
59.235797737 471.0
59.262058303 466.0
59.288318868 506.0
59.314579433 533.0
59.340839999 490.0
59.367100564 503.0
59.393361129 514.0
59.419621695 589.0
59.445882260 526.0
59.472142826 521.0
59.498403391 565.0
59.524663956 576.0
59.550924522 578.0
59.577185087 610.0
59.603445652 566.0
59.629706218 567.0
59.655966783 664.0
59.682227348 633.0
59.708487914 642.0
59.734748479 650.0
59.761009044 687.0
59.787269610 669.0
59.813530175 702.0
59.839790740 704.0
59.866051306 622.0
59.892311871 755.0
59.918572437 725.0
59.944833002 748.0
59.971093567 773.0
59.997354133 777.0
60.023614698 788.0
60.049875263 801.0
60.076135829 772.0
60.102396394 779.0
60.128656959 789.0
60.154917525 866.0
60.181178090 841.0
60.207438655 797.0
60.233699221 859.0
60.259959786 851.0
60.286220352 828.0
60.312480917 857.0
60.338741482 859.0
60.365002048 824.0
60.391262613 850.0
60.417523178 846.0
60.443783744 803.0
60.470044309 814.0
60.496304874 837.0
60.522565440 798.0
60.548826005 840.0
60.575086570 804.0
60.601347136 787.0
60.627607701 834.0
60.653868266 765.0
60.680128832 783.0
60.706389397 844.0
60.732649963 790.0
60.758910528 723.0
60.785171093 729.0
60.811431659 698.0
60.837692224 680.0
60.863952789 680.0
60.890213355 690.0
60.916473920 651.0
60.942734485 698.0
60.968995051 694.0
60.995255616 626.0
61.021516181 635.0
61.047776747 691.0
61.074037312 636.0
61.100297878 662.0
61.126558443 652.0
61.152819008 654.0
61.179079574 620.0
61.205340139 615.0
61.231600704 629.0
61.257861270 639.0
61.284121835 613.0
61.310382400 610.0
61.336642966 583.0
61.362903531 549.0
61.389164096 583.0
61.415424662 614.0
61.441685227 643.0
61.467945792 565.0
61.494206358 543.0
61.520466923 586.0
61.546727489 594.0
61.572988054 601.0
61.599248619 610.0
61.625509185 541.0
61.651769750 600.0
61.678030315 600.0
61.704290881 571.0
61.730551446 555.0
61.756812011 561.0
61.783072577 565.0
61.809333142 514.0
61.835593707 511.0
61.861854273 516.0
61.888114838 507.0
61.914375404 497.0
61.940635969 534.0
61.966896534 521.0
61.993157100 492.0
62.019417665 533.0
62.045678230 457.0
62.071938796 444.0
62.098199361 486.0
62.124459926 452.0
62.150720492 441.0
62.176981057 455.0
62.203241622 441.0
62.229502188 458.0
62.255762753 464.0
62.282023318 440.0
62.308283884 435.0
62.334544449 441.0
62.360805015 408.0
62.387065580 421.0
62.413326145 405.0
62.439586711 371.0
62.465847276 392.0
62.492107841 371.0
62.518368407 363.0
62.544628972 392.0
62.570889537 374.0
62.597150103 364.0
62.623410668 354.0
62.649671233 368.0
62.675931799 354.0
62.702192364 363.0
62.728452930 368.0
62.754713495 353.0
62.780974060 304.0
62.807234626 354.0
62.833495191 349.0
62.859755756 317.0
62.886016322 335.0
62.912276887 299.0
62.938537452 310.0
62.964798018 320.0
62.991058583 332.0
63.017319148 314.0
63.043579714 324.0
63.069840279 309.0
63.096100844 324.0
63.122361410 342.0
63.148621975 314.0
63.174882541 308.0
63.201143106 302.0
63.227403671 317.0
63.253664237 299.0
63.279924802 306.0
63.306185367 290.0
63.332445933 313.0
63.358706498 277.0
63.384967063 290.0
63.411227629 285.0
63.437488194 300.0
63.463748759 308.0
63.490009325 297.0
63.516269890 299.0
63.542530455 313.0
63.568791021 280.0
63.595051586 307.0
63.621312152 293.0
63.647572717 311.0
63.673833282 270.0
63.700093848 284.0
63.726354413 269.0
63.752614978 283.0
63.778875544 254.0
63.805136109 275.0
63.831396674 289.0
63.857657240 258.0
63.883917805 294.0
63.910178370 251.0
63.936438936 279.0
63.962699501 283.0
63.988960067 287.0
64.015220632 275.0
64.041481197 277.0
64.067741763 262.0
64.094002328 293.0
64.120262893 266.0
64.146523459 253.0
64.172784024 256.0
64.199044589 268.0
64.225305155 255.0
64.251565720 270.0
64.277826285 247.0
64.304086851 252.0
64.330347416 265.0
64.356607981 266.0
64.382868547 263.0
64.409129112 289.0
64.435389678 267.0
64.461650243 260.0
64.487910808 273.0
64.514171374 261.0
64.540431939 274.0
64.566692504 276.0
64.592953070 252.0
64.619213635 247.0
64.645474200 254.0
64.671734766 271.0
64.697995331 281.0
64.724255896 298.0
64.750516462 277.0
64.776777027 269.0
64.803037593 260.0
64.829298158 258.0
64.855558723 261.0
64.881819289 278.0
64.908079854 261.0
64.934340419 248.0
64.960600985 259.0
64.986861550 249.0
