5.007730280 2020.0
5.033990845 2014.0
5.060251411 1957.0
5.086511976 2005.0
5.112772541 1987.0
5.139033107 1957.0
5.165293672 1855.0
5.191554237 1947.0
5.217814803 1850.0
5.244075368 1917.0
5.270335934 1897.0
5.296596499 1937.0
5.322857064 1888.0
5.349117630 1879.0
5.375378195 1911.0
5.401638760 1865.0
5.427899326 1850.0
5.454159891 1802.0
5.480420456 1853.0
5.506681022 1806.0
5.532941587 1934.0
5.559202152 1776.0
5.585462718 1817.0
5.611723283 1793.0
5.637983849 1811.0
5.664244414 1806.0
5.690504979 1831.0
5.716765545 1802.0
5.743026110 1809.0
5.769286675 1854.0
5.795547241 1832.0
5.821807806 1838.0
5.848068371 1782.0
5.874328937 1748.0
5.900589502 1746.0
5.926850067 1788.0
5.953110633 1889.0
5.979371198 1738.0
6.005631763 1742.0
6.031892329 1763.0
6.058152894 1748.0
6.084413460 1693.0
6.110674025 1698.0
6.136934590 1811.0
6.163195156 1709.0
6.189455721 1724.0
6.215716286 1750.0
6.241976852 1690.0
6.268237417 1689.0
6.294497982 1706.0
6.320758548 1718.0
6.347019113 1764.0
6.373279678 1737.0
6.399540244 1612.0
6.425800809 1729.0
6.452061375 1684.0
6.478321940 1661.0
6.504582505 1731.0
6.530843071 1644.0
6.557103636 1717.0
6.583364201 1627.0
6.609624767 1696.0
6.635885332 1616.0
6.662145897 1658.0
6.688406463 1686.0
6.714667028 1639.0
6.740927593 1723.0
6.767188159 1655.0
6.793448724 1646.0
6.819709289 1698.0
6.845969855 1634.0
6.872230420 1573.0
6.898490986 1594.0
6.924751551 1586.0
6.951012116 1623.0
6.977272682 1590.0
7.003533247 1700.0
7.029793812 1614.0
7.056054378 1705.0
7.082314943 1545.0
7.108575508 1634.0
7.134836074 1660.0
7.161096639 1618.0
7.187357204 1584.0
7.213617770 1606.0
7.239878335 1615.0
7.266138900 1597.0
7.292399466 1645.0
7.318660031 1593.0
7.344920597 1575.0
7.371181162 1605.0
7.397441727 1643.0
7.423702293 1688.0
7.449962858 1683.0
7.476223423 1557.0
7.502483989 1617.0
7.528744554 1651.0
7.555005119 1561.0
7.581265685 1612.0
7.607526250 1559.0
7.633786815 1578.0
7.660047381 1525.0
7.686307946 1598.0
7.712568512 1556.0
7.738829077 1576.0
7.765089642 1644.0
7.791350208 1545.0
7.817610773 1525.0
7.843871338 1483.0
7.870131904 1594.0
7.896392469 1513.0
7.922653034 1506.0
7.948913600 1629.0
7.975174165 1578.0
8.001434730 1573.0
8.027695296 1499.0
8.053955861 1595.0
8.080216426 1574.0
8.106476992 1509.0
8.132737557 1609.0
8.158998123 1520.0
8.185258688 1600.0
8.211519253 1509.0
8.237779819 1621.0
8.264040384 1577.0
8.290300949 1512.0
8.316561515 1513.0
8.342822080 1570.0
8.369082645 1455.0
8.395343211 1525.0
8.421603776 1453.0
8.447864341 1550.0
8.474124907 1578.0
8.500385472 1545.0
8.526646038 1471.0
8.552906603 1497.0
8.579167168 1492.0
8.605427734 1539.0
8.631688299 1480.0
8.657948864 1517.0
8.684209430 1536.0
8.710469995 1487.0
8.736730560 1473.0
8.762991126 1523.0
8.789251691 1494.0
8.815512256 1535.0
8.841772822 1537.0
8.868033387 1468.0
8.894293952 1514.0
8.920554518 1563.0
8.946815083 1443.0
8.973075649 1549.0
8.999336214 1545.0
9.025596779 1559.0
9.051857345 1532.0
9.078117910 1536.0
9.104378475 1515.0
9.130639041 1573.0
9.156899606 1463.0
9.183160171 1404.0
9.209420737 1465.0
9.235681302 1438.0
9.261941867 1491.0
9.288202433 1449.0
9.314462998 1487.0
9.340723564 1593.0
9.366984129 1534.0
9.393244694 1585.0
9.419505260 1513.0
9.445765825 1516.0
9.472026390 1521.0
9.498286956 1439.0
9.524547521 1540.0
9.550808086 1477.0
9.577068652 1490.0
9.603329217 1469.0
9.629589782 1507.0
9.655850348 1465.0
9.682110913 1521.0
9.708371478 1536.0
9.734632044 1496.0
9.760892609 1473.0
9.787153175 1531.0
9.813413740 1482.0
9.839674305 1491.0
9.865934871 1451.0
9.892195436 1555.0
9.918456001 1485.0
9.944716567 1472.0
9.970977132 1573.0
9.997237697 1546.0
10.023498263 1513.0
10.049758828 1470.0
10.076019393 1469.0
10.102279959 1530.0
10.128540524 1541.0
10.154801090 1481.0
10.181061655 1478.0
10.207322220 1484.0
10.233582786 1409.0
10.259843351 1526.0
10.286103916 1482.0
10.312364482 1519.0
10.338625047 1496.0
10.364885612 1586.0
10.391146178 1535.0
10.417406743 1457.0
10.443667308 1454.0
10.469927874 1497.0
10.496188439 1467.0
10.522449004 1472.0
10.548709570 1534.0
10.574970135 1479.0
10.601230701 1487.0
10.627491266 1498.0
10.653751831 1478.0
10.680012397 1501.0
10.706272962 1490.0
10.732533527 1462.0
10.758794093 1495.0
10.785054658 1540.0
10.811315223 1436.0
10.837575789 1491.0
10.863836354 1528.0
10.890096919 1538.0
10.916357485 1507.0
10.942618050 1485.0
10.968878616 1466.0
10.995139181 1528.0
11.021399746 1439.0
11.047660312 1466.0
11.073920877 1401.0
11.100181442 1460.0
11.126442008 1508.0
11.152702573 1496.0
11.178963138 1552.0
11.205223704 1521.0
11.231484269 1490.0
11.257744834 1474.0
11.284005400 1485.0
11.310265965 1437.0
11.336526530 1504.0
11.362787096 1450.0
11.389047661 1439.0
11.415308227 1464.0
11.441568792 1406.0
11.467829357 1412.0
11.494089923 1427.0
11.520350488 1516.0
11.546611053 1426.0
11.572871619 1390.0
11.599132184 1384.0
11.625392749 1439.0
11.651653315 1418.0
11.677913880 1343.0
11.704174445 1431.0
11.730435011 1370.0
11.756695576 1370.0
11.782956141 1337.0
11.809216707 1363.0
11.835477272 1406.0
11.861737838 1372.0
11.887998403 1360.0
11.914258968 1345.0
11.940519534 1343.0
11.966780099 1356.0
11.993040664 1375.0
12.019301230 1341.0
12.045561795 1360.0
12.071822360 1252.0
12.098082926 1233.0
12.124343491 1220.0
12.150604056 1309.0
12.176864622 1261.0
12.203125187 1241.0
12.229385753 1285.0
12.255646318 1257.0
12.281906883 1226.0
12.308167449 1232.0
12.334428014 1154.0
12.360688579 1287.0
12.386949145 1198.0
12.413209710 1225.0
12.439470275 1188.0
12.465730841 1256.0
12.491991406 1264.0
12.518251971 1229.0
12.544512537 1196.0
12.570773102 1214.0
12.597033667 1168.0
12.623294233 1167.0
12.649554798 1143.0
12.675815364 1227.0
12.702075929 1155.0
12.728336494 1185.0
12.754597060 1156.0
12.780857625 1158.0
12.807118190 1155.0
12.833378756 1167.0
12.859639321 1146.0
12.885899886 1085.0
12.912160452 1190.0
12.938421017 1138.0
12.964681582 1162.0
12.990942148 1186.0
13.017202713 1052.0
13.043463279 1106.0
13.069723844 1096.0
13.095984409 1142.0
13.122244975 1145.0
13.148505540 1088.0
13.174766105 1072.0
13.201026671 1078.0
13.227287236 1088.0
13.253547801 1038.0
13.279808367 1090.0
13.306068932 1039.0
13.332329497 1079.0
13.358590063 1073.0
13.384850628 1084.0
13.411111193 1105.0
13.437371759 1060.0
13.463632324 1029.0
13.489892890 981.0
13.516153455 1035.0
13.542414020 1025.0
13.568674586 981.0
13.594935151 1014.0
13.621195716 1042.0
13.647456282 1007.0
13.673716847 1028.0
13.699977412 1017.0
13.726237978 955.0
13.752498543 1055.0
13.778759108 1057.0
13.805019674 1064.0
13.831280239 982.0
13.857540805 986.0
13.883801370 986.0
13.910061935 966.0
13.936322501 960.0
13.962583066 1017.0
13.988843631 1009.0
14.015104197 976.0
14.041364762 989.0
14.067625327 948.0
14.093885893 954.0
14.120146458 945.0
14.146407023 921.0
14.172667589 920.0
14.198928154 910.0
14.225188719 960.0
14.251449285 956.0
14.277709850 937.0
14.303970416 960.0
14.330230981 901.0
14.356491546 907.0
14.382752112 908.0
14.409012677 911.0
14.435273242 989.0
14.461533808 903.0
14.487794373 944.0
14.514054938 931.0
14.540315504 945.0
14.566576069 945.0
14.592836634 946.0
14.619097200 929.0
14.645357765 916.0
14.671618331 893.0
14.697878896 955.0
14.724139461 862.0
14.750400027 917.0
14.776660592 920.0
14.802921157 912.0
14.829181723 928.0
14.855442288 937.0
14.881702853 954.0
14.907963419 852.0
14.934223984 879.0
14.960484549 884.0
14.986745115 855.0
15.013005680 867.0
15.039266245 850.0
15.065526811 909.0
15.091787376 882.0
15.118047942 858.0
15.144308507 907.0
15.170569072 855.0
15.196829638 873.0
15.223090203 828.0
15.249350768 842.0
15.275611334 847.0
15.301871899 867.0
15.328132464 853.0
15.354393030 903.0
15.380653595 864.0
15.406914160 847.0
15.433174726 888.0
15.459435291 866.0
15.485695857 873.0
15.511956422 839.0
15.538216987 923.0
15.564477553 866.0
15.590738118 864.0
15.616998683 872.0
15.643259249 894.0
15.669519814 834.0
15.695780379 857.0
15.722040945 884.0
15.748301510 882.0
15.774562075 866.0
15.800822641 845.0
15.827083206 943.0
15.853343771 862.0
15.879604337 879.0
15.905864902 843.0
15.932125468 889.0
15.958386033 854.0
15.984646598 833.0
16.010907164 834.0
16.037167729 858.0
16.063428294 779.0
16.089688860 791.0
16.115949425 821.0
16.142209990 826.0
16.168470556 891.0
16.194731121 805.0
16.220991686 843.0
16.247252252 884.0
16.273512817 778.0
16.299773382 839.0
16.326033948 852.0
16.352294513 826.0
16.378555079 824.0
16.404815644 833.0
16.431076209 796.0
16.457336775 808.0
16.483597340 818.0
16.509857905 839.0
16.536118471 844.0
16.562379036 813.0
16.588639601 929.0
16.614900167 798.0
16.641160732 860.0
16.667421297 834.0
16.693681863 835.0
16.719942428 881.0
16.746202994 849.0
16.772463559 836.0
16.798724124 867.0
16.824984690 843.0
16.851245255 864.0
16.877505820 870.0
16.903766386 820.0
16.930026951 839.0
16.956287516 896.0
16.982548082 836.0
17.008808647 822.0
17.035069212 894.0
17.061329778 856.0
17.087590343 850.0
17.113850908 869.0
17.140111474 854.0
17.166372039 859.0
17.192632605 900.0
17.218893170 848.0
17.245153735 851.0
17.271414301 869.0
17.297674866 892.0
17.323935431 887.0
17.350195997 882.0
17.376456562 827.0
17.402717127 906.0
17.428977693 852.0
17.455238258 853.0
17.481498823 909.0
17.507759389 876.0
17.534019954 844.0
17.560280520 834.0
17.586541085 845.0
17.612801650 882.0
17.639062216 921.0
17.665322781 880.0
17.691583346 834.0
17.717843912 875.0
17.744104477 893.0
17.770365042 864.0
17.796625608 863.0
17.822886173 854.0
17.849146738 832.0
17.875407304 901.0
17.901667869 854.0
17.927928434 920.0
17.954189000 921.0
17.980449565 865.0
18.006710131 928.0
18.032970696 872.0
18.059231261 910.0
18.085491827 931.0
18.111752392 936.0
18.138012957 895.0
18.164273523 920.0
18.190534088 864.0
18.216794653 895.0
18.243055219 918.0
18.269315784 912.0
18.295576349 896.0
18.321836915 950.0
18.348097480 955.0
18.374358046 876.0
18.400618611 933.0
18.426879176 964.0
18.453139742 914.0
18.479400307 944.0
18.505660872 1005.0
18.531921438 909.0
18.558182003 939.0
18.584442568 925.0
18.610703134 874.0
18.636963699 960.0
18.663224264 999.0
18.689484830 878.0
18.715745395 956.0
18.742005960 939.0
18.768266526 913.0
18.794527091 922.0
18.820787657 939.0
18.847048222 964.0
18.873308787 940.0
18.899569353 968.0
18.925829918 982.0
18.952090483 942.0
18.978351049 1000.0
19.004611614 887.0
19.030872179 953.0
19.057132745 952.0
19.083393310 907.0
19.109653875 944.0
19.135914441 937.0
19.162175006 971.0
19.188435572 941.0
19.214696137 976.0
19.240956702 1055.0
19.267217268 1016.0
19.293477833 995.0
19.319738398 995.0
19.345998964 995.0
19.372259529 953.0
19.398520094 1000.0
19.424780660 1067.0
19.451041225 999.0
19.477301790 1008.0
19.503562356 1049.0
19.529822921 1023.0
19.556083486 1039.0
19.582344052 1012.0
19.608604617 1013.0
19.634865183 1010.0
19.661125748 997.0
19.687386313 1041.0
19.713646879 1034.0
19.739907444 1013.0
19.766168009 1053.0
19.792428575 1023.0
19.818689140 1068.0
19.844949705 1039.0
19.871210271 1022.0
19.897470836 1057.0
19.923731401 1020.0
19.949991967 1071.0
19.976252532 1035.0
20.002513098 1034.0
20.028773663 1080.0
20.055034228 1042.0
20.081294794 1058.0
20.107555359 997.0
20.133815924 1104.0
20.160076490 1064.0
20.186337055 1080.0
20.212597620 1077.0
20.238858186 1141.0
20.265118751 1117.0
20.291379316 1099.0
20.317639882 1040.0
20.343900447 1068.0
20.370161012 1068.0
20.396421578 1105.0
20.422682143 1088.0
20.448942709 1076.0
20.475203274 1082.0
20.501463839 1137.0
20.527724405 1069.0
20.553984970 1084.0
20.580245535 1107.0
20.606506101 1118.0
20.632766666 1101.0
20.659027231 1108.0
20.685287797 1144.0
20.711548362 1151.0
20.737808927 1138.0
20.764069493 1138.0
20.790330058 1142.0
20.816590623 1090.0
20.842851189 1152.0
20.869111754 1120.0
20.895372320 1143.0
20.921632885 1187.0
20.947893450 1136.0
20.974154016 1156.0
21.000414581 1126.0
21.026675146 1115.0
21.052935712 1225.0
21.079196277 1161.0
21.105456842 1165.0
21.131717408 1174.0
21.157977973 1177.0
21.184238538 1121.0
21.210499104 1152.0
21.236759669 1207.0
21.263020235 1086.0
21.289280800 1187.0
21.315541365 1192.0
21.341801931 1193.0
21.368062496 1177.0
21.394323061 1167.0
21.420583627 1169.0
21.446844192 1237.0
21.473104757 1154.0
21.499365323 1226.0
21.525625888 1205.0
21.551886453 1241.0
21.578147019 1144.0
21.604407584 1236.0
21.630668149 1244.0
21.656928715 1224.0
21.683189280 1271.0
21.709449846 1168.0
21.735710411 1172.0
21.761970976 1197.0
21.788231542 1204.0
21.814492107 1201.0
21.840752672 1218.0
21.867013238 1186.0
21.893273803 1169.0
21.919534368 1240.0
21.945794934 1198.0
21.972055499 1203.0
21.998316064 1222.0
22.024576630 1217.0
22.050837195 1220.0
22.077097761 1156.0
22.103358326 1243.0
22.129618891 1211.0
22.155879457 1239.0
22.182140022 1200.0
22.208400587 1207.0
22.234661153 1242.0
22.260921718 1295.0
22.287182283 1225.0
22.313442849 1212.0
22.339703414 1233.0
22.365963979 1193.0
22.392224545 1290.0
22.418485110 1257.0
22.444745675 1248.0
22.471006241 1240.0
22.497266806 1215.0
22.523527372 1237.0
22.549787937 1287.0
22.576048502 1222.0
22.602309068 1300.0
22.628569633 1274.0
22.654830198 1221.0
22.681090764 1280.0
22.707351329 1311.0
22.733611894 1207.0
22.759872460 1216.0
22.786133025 1290.0
22.812393590 1248.0
22.838654156 1228.0
22.864914721 1304.0
22.891175287 1272.0
22.917435852 1270.0
22.943696417 1224.0
22.969956983 1251.0
22.996217548 1279.0
23.022478113 1241.0
23.048738679 1323.0
23.074999244 1243.0
23.101259809 1167.0
23.127520375 1262.0
23.153780940 1240.0
23.180041505 1345.0
23.206302071 1195.0
23.232562636 1202.0
23.258823201 1200.0
23.285083767 1152.0
23.311344332 1249.0
23.337604898 1188.0
23.363865463 1253.0
23.390126028 1221.0
23.416386594 1141.0
23.442647159 1195.0
23.468907724 1232.0
23.495168290 1174.0
23.521428855 1200.0
23.547689420 1190.0
23.573949986 1154.0
23.600210551 1165.0
23.626471116 1200.0
23.652731682 1222.0
23.678992247 1123.0
23.705252813 1184.0
23.731513378 1140.0
23.757773943 1154.0
23.784034509 1146.0
23.810295074 1161.0
23.836555639 1105.0
23.862816205 1164.0
23.889076770 1149.0
23.915337335 1164.0
23.941597901 1126.0
23.967858466 1160.0
23.994119031 1142.0
24.020379597 1173.0
24.046640162 1094.0
24.072900727 1072.0
24.099161293 1174.0
24.125421858 1073.0
24.151682424 1100.0
24.177942989 1178.0
24.204203554 1102.0
24.230464120 1089.0
24.256724685 1074.0
24.282985250 1132.0
24.309245816 1025.0
24.335506381 1043.0
24.361766946 1033.0
24.388027512 976.0
24.414288077 1045.0
24.440548642 1064.0
24.466809208 1023.0
24.493069773 1112.0
24.519330338 1067.0
24.545590904 1008.0
24.571851469 998.0
24.598112035 1020.0
24.624372600 1027.0
24.650633165 938.0
24.676893731 1056.0
24.703154296 1046.0
24.729414861 1047.0
24.755675427 1024.0
24.781935992 1053.0
24.808196557 943.0
24.834457123 1044.0
24.860717688 1060.0
24.886978253 1017.0
24.913238819 1004.0
24.939499384 1004.0
24.965759950 996.0
24.992020515 1006.0
25.018281080 957.0
25.044541646 962.0
25.070802211 962.0
25.097062776 984.0
25.123323342 983.0
25.149583907 992.0
25.175844472 949.0
25.202105038 930.0
25.228365603 1005.0
25.254626168 974.0
25.280886734 933.0
25.307147299 898.0
25.333407864 979.0
25.359668430 909.0
25.385928995 907.0
25.412189561 948.0
25.438450126 913.0
25.464710691 962.0
25.490971257 902.0
25.517231822 871.0
25.543492387 918.0
25.569752953 984.0
25.596013518 935.0
25.622274083 939.0
25.648534649 841.0
25.674795214 902.0
25.701055779 843.0
25.727316345 863.0
25.753576910 858.0
25.779837476 942.0
25.806098041 905.0
25.832358606 849.0
25.858619172 909.0
25.884879737 881.0
25.911140302 903.0
25.937400868 927.0
25.963661433 830.0
25.989921998 918.0
26.016182564 881.0
26.042443129 891.0
26.068703694 907.0
26.094964260 883.0
26.121224825 855.0
26.147485390 882.0
26.173745956 865.0
26.200006521 888.0
26.226267087 877.0
26.252527652 867.0
26.278788217 858.0
26.305048783 817.0
26.331309348 882.0
26.357569913 873.0
26.383830479 861.0
26.410091044 860.0
26.436351609 853.0
26.462612175 855.0
26.488872740 842.0
26.515133305 826.0
26.541393871 873.0
26.567654436 832.0
26.593915002 821.0
26.620175567 856.0
26.646436132 842.0
26.672696698 811.0
26.698957263 855.0
26.725217828 826.0
26.751478394 884.0
26.777738959 868.0
26.803999524 845.0
26.830260090 802.0
26.856520655 795.0
26.882781220 819.0
26.909041786 810.0
26.935302351 798.0
26.961562916 802.0
26.987823482 806.0
27.014084047 844.0
27.040344613 793.0
27.066605178 830.0
27.092865743 799.0
27.119126309 831.0
27.145386874 786.0
27.171647439 749.0
27.197908005 789.0
27.224168570 848.0
27.250429135 801.0
27.276689701 820.0
27.302950266 809.0
27.329210831 819.0
27.355471397 801.0
27.381731962 793.0
27.407992528 777.0
27.434253093 717.0
27.460513658 781.0
27.486774224 810.0
27.513034789 802.0
27.539295354 805.0
27.565555920 772.0
27.591816485 782.0
27.618077050 757.0
27.644337616 775.0
27.670598181 849.0
27.696858746 801.0
27.723119312 770.0
27.749379877 831.0
27.775640442 773.0
27.801901008 780.0
27.828161573 780.0
27.854422139 756.0
27.880682704 788.0
27.906943269 780.0
27.933203835 800.0
27.959464400 759.0
27.985724965 738.0
28.011985531 786.0
28.038246096 778.0
28.064506661 812.0
28.090767227 806.0
28.117027792 808.0
28.143288357 816.0
28.169548923 825.0
28.195809488 761.0
28.222070054 822.0
28.248330619 785.0
28.274591184 803.0
28.300851750 782.0
28.327112315 778.0
28.353372880 818.0
28.379633446 780.0
28.405894011 756.0
28.432154576 747.0
28.458415142 742.0
28.484675707 770.0
28.510936272 749.0
28.537196838 777.0
28.563457403 765.0
28.589717968 784.0
28.615978534 758.0
28.642239099 787.0
28.668499665 728.0
28.694760230 736.0
28.721020795 799.0
28.747281361 774.0
28.773541926 739.0
28.799802491 728.0
28.826063057 744.0
28.852323622 782.0
28.878584187 790.0
28.904844753 726.0
28.931105318 784.0
28.957365883 749.0
28.983626449 731.0
29.009887014 703.0
29.036147579 716.0
29.062408145 723.0
29.088668710 752.0
29.114929276 720.0
29.141189841 694.0
29.167450406 761.0
29.193710972 782.0
29.219971537 760.0
29.246232102 752.0
29.272492668 753.0
29.298753233 730.0
29.325013798 675.0
29.351274364 776.0
29.377534929 746.0
29.403795494 696.0
29.430056060 697.0
29.456316625 733.0
29.482577191 719.0
29.508837756 741.0
29.535098321 729.0
29.561358887 719.0
29.587619452 741.0
29.613880017 698.0
29.640140583 727.0
29.666401148 723.0
29.692661713 698.0
29.718922279 697.0
29.745182844 673.0
29.771443409 686.0
29.797703975 689.0
29.823964540 644.0
29.850225105 702.0
29.876485671 694.0
29.902746236 701.0
29.929006802 694.0
29.955267367 646.0
29.981527932 696.0
30.007788498 721.0
30.034049063 705.0
30.060309628 691.0
30.086570194 705.0
30.112830759 758.0
30.139091324 688.0
30.165351890 661.0
30.191612455 682.0
30.217873020 709.0
30.244133586 697.0
30.270394151 705.0
30.296654717 658.0
30.322915282 740.0
30.349175847 675.0
30.375436413 692.0
30.401696978 679.0
30.427957543 659.0
30.454218109 696.0
30.480478674 683.0
30.506739239 657.0
30.532999805 688.0
30.559260370 682.0
30.585520935 647.0
30.611781501 679.0
30.638042066 670.0
30.664302631 654.0
30.690563197 620.0
30.716823762 691.0
30.743084328 673.0
30.769344893 687.0
30.795605458 644.0
30.821866024 654.0
30.848126589 674.0
30.874387154 663.0
30.900647720 675.0
30.926908285 639.0
30.953168850 605.0
30.979429416 681.0
31.005689981 657.0
31.031950546 643.0
31.058211112 639.0
31.084471677 631.0
31.110732243 696.0
31.136992808 669.0
31.163253373 667.0
31.189513939 656.0
31.215774504 673.0
31.242035069 712.0
31.268295635 656.0
31.294556200 699.0
31.320816765 669.0
31.347077331 601.0
31.373337896 680.0
31.399598461 621.0
31.425859027 616.0
31.452119592 583.0
31.478380157 643.0
31.504640723 637.0
31.530901288 620.0
31.557161854 602.0
31.583422419 634.0
31.609682984 596.0
31.635943550 590.0
31.662204115 630.0
31.688464680 609.0
31.714725246 623.0
31.740985811 642.0
31.767246376 647.0
31.793506942 632.0
31.819767507 621.0
31.846028072 616.0
31.872288638 622.0
31.898549203 628.0
31.924809769 657.0
31.951070334 638.0
31.977330899 616.0
32.003591465 581.0
32.029852030 647.0
32.056112595 653.0
32.082373161 649.0
32.108633726 619.0
32.134894291 613.0
32.161154857 630.0
32.187415422 653.0
32.213675987 593.0
32.239936553 645.0
32.266197118 647.0
32.292457683 594.0
32.318718249 653.0
32.344978814 586.0
32.371239380 644.0
32.397499945 622.0
32.423760510 669.0
32.450021076 580.0
32.476281641 599.0
32.502542206 596.0
32.528802772 609.0
32.555063337 606.0
32.581323902 546.0
32.607584468 597.0
32.633845033 604.0
32.660105598 585.0
32.686366164 601.0
32.712626729 650.0
32.738887295 617.0
32.765147860 646.0
32.791408425 595.0
32.817668991 600.0
32.843929556 593.0
32.870190121 610.0
32.896450687 644.0
32.922711252 591.0
32.948971817 596.0
32.975232383 564.0
33.001492948 563.0
33.027753513 622.0
33.054014079 612.0
33.080274644 558.0
33.106535209 559.0
33.132795775 597.0
33.159056340 586.0
33.185316906 598.0
33.211577471 597.0
33.237838036 592.0
33.264098602 584.0
33.290359167 625.0
33.316619732 689.0
33.342880298 639.0
33.369140863 617.0
33.395401428 615.0
33.421661994 612.0
33.447922559 600.0
33.474183124 619.0
33.500443690 621.0
33.526704255 611.0
33.552964820 586.0
33.579225386 628.0
33.605485951 634.0
33.631746517 619.0
33.658007082 682.0
33.684267647 646.0
33.710528213 583.0
33.736788778 676.0
33.763049343 633.0
33.789309909 662.0
33.815570474 660.0
33.841831039 614.0
33.868091605 650.0
33.894352170 661.0
33.920612735 649.0
33.946873301 664.0
33.973133866 706.0
33.999394432 684.0
34.025654997 683.0
34.051915562 738.0
34.078176128 672.0
34.104436693 679.0
34.130697258 751.0
34.156957824 697.0
34.183218389 689.0
34.209478954 773.0
34.235739520 739.0
34.262000085 801.0
34.288260650 750.0
34.314521216 751.0
34.340781781 743.0
34.367042346 767.0
34.393302912 819.0
34.419563477 740.0
34.445824043 819.0
34.472084608 856.0
34.498345173 790.0
34.524605739 801.0
34.550866304 825.0
34.577126869 789.0
34.603387435 882.0
34.629648000 903.0
34.655908565 855.0
34.682169131 823.0
34.708429696 888.0
34.734690261 872.0
34.760950827 849.0
34.787211392 847.0
34.813471958 873.0
34.839732523 899.0
34.865993088 852.0
34.892253654 892.0
34.918514219 819.0
34.944774784 875.0
34.971035350 880.0
34.997295915 861.0
35.023556480 836.0
35.049817046 911.0
35.076077611 803.0
35.102338176 834.0
35.128598742 847.0
35.154859307 853.0
35.181119872 843.0
35.207380438 844.0
35.233641003 789.0
35.259901569 814.0
35.286162134 869.0
35.312422699 794.0
35.338683265 819.0
35.364943830 803.0
35.391204395 776.0
35.417464961 811.0
35.443725526 850.0
35.469986091 820.0
35.496246657 801.0
35.522507222 837.0
35.548767787 816.0
35.575028353 802.0
35.601288918 766.0
35.627549484 768.0
35.653810049 786.0
35.680070614 726.0
35.706331180 787.0
35.732591745 768.0
35.758852310 774.0
35.785112876 763.0
35.811373441 740.0
35.837634006 734.0
35.863894572 686.0
35.890155137 729.0
35.916415702 740.0
35.942676268 673.0
35.968936833 759.0
35.995197398 714.0
36.021457964 769.0
36.047718529 731.0
36.073979095 742.0
36.100239660 710.0
36.126500225 738.0
36.152760791 657.0
36.179021356 678.0
36.205281921 718.0
36.231542487 735.0
36.257803052 703.0
36.284063617 693.0
36.310324183 656.0
36.336584748 682.0
36.362845313 645.0
36.389105879 723.0
36.415366444 653.0
36.441627010 678.0
36.467887575 699.0
36.494148140 669.0
36.520408706 667.0
36.546669271 704.0
36.572929836 646.0
36.599190402 661.0
36.625450967 674.0
36.651711532 672.0
36.677972098 647.0
36.704232663 667.0
36.730493228 693.0
36.756753794 674.0
36.783014359 674.0
36.809274924 612.0
36.835535490 655.0
36.861796055 613.0
36.888056621 634.0
36.914317186 667.0
36.940577751 623.0
36.966838317 622.0
36.993098882 617.0
37.019359447 564.0
37.045620013 645.0
37.071880578 691.0
37.098141143 624.0
37.124401709 613.0
37.150662274 608.0
37.176922839 628.0
37.203183405 599.0
37.229443970 624.0
37.255704535 628.0
37.281965101 633.0
37.308225666 613.0
37.334486232 622.0
37.360746797 614.0
37.387007362 557.0
37.413267928 607.0
37.439528493 648.0
37.465789058 669.0
37.492049624 667.0
37.518310189 620.0
37.544570754 639.0
37.570831320 629.0
37.597091885 645.0
37.623352450 633.0
37.649613016 627.0
37.675873581 654.0
37.702134147 607.0
37.728394712 641.0
37.754655277 635.0
37.780915843 623.0
37.807176408 565.0
37.833436973 589.0
37.859697539 582.0
37.885958104 568.0
37.912218669 613.0
37.938479235 617.0
37.964739800 610.0
37.991000365 635.0
38.017260931 591.0
38.043521496 594.0
38.069782061 600.0
38.096042627 597.0
38.122303192 600.0
38.148563758 631.0
38.174824323 621.0
38.201084888 651.0
38.227345454 598.0
38.253606019 579.0
38.279866584 636.0
38.306127150 595.0
38.332387715 583.0
38.358648280 589.0
38.384908846 600.0
38.411169411 625.0
38.437429976 597.0
38.463690542 586.0
38.489951107 567.0
38.516211673 572.0
38.542472238 633.0
38.568732803 584.0
38.594993369 585.0
38.621253934 620.0
38.647514499 587.0
38.673775065 574.0
38.700035630 579.0
38.726296195 595.0
38.752556761 542.0
38.778817326 620.0
38.805077891 653.0
38.831338457 569.0
38.857599022 613.0
38.883859587 592.0
38.910120153 594.0
38.936380718 570.0
38.962641284 543.0
38.988901849 556.0
39.015162414 587.0
39.041422980 564.0
39.067683545 593.0
39.093944110 528.0
39.120204676 546.0
39.146465241 546.0
39.172725806 599.0
39.198986372 632.0
39.225246937 582.0
39.251507502 618.0
39.277768068 521.0
39.304028633 565.0
39.330289199 555.0
39.356549764 614.0
39.382810329 548.0
39.409070895 594.0
39.435331460 560.0
39.461592025 516.0
39.487852591 566.0
39.514113156 537.0
39.540373721 593.0
39.566634287 546.0
39.592894852 480.0
39.619155417 567.0
39.645415983 542.0
39.671676548 527.0
39.697937113 541.0
39.724197679 546.0
39.750458244 541.0
39.776718810 557.0
39.802979375 534.0
39.829239940 461.0
39.855500506 576.0
39.881761071 528.0
39.908021636 559.0
39.934282202 499.0
39.960542767 519.0
39.986803332 552.0
40.013063898 509.0
40.039324463 507.0
40.065585028 589.0
40.091845594 566.0
40.118106159 506.0
40.144366725 481.0
40.170627290 536.0
40.196887855 562.0
40.223148421 521.0
40.249408986 490.0
40.275669551 547.0
40.301930117 504.0
40.328190682 521.0
40.354451247 513.0
40.380711813 503.0
40.406972378 492.0
40.433232943 508.0
40.459493509 471.0
40.485754074 489.0
40.512014639 502.0
40.538275205 500.0
40.564535770 490.0
40.590796336 512.0
40.617056901 506.0
40.643317466 472.0
40.669578032 513.0
40.695838597 528.0
40.722099162 500.0
40.748359728 482.0
40.774620293 511.0
40.800880858 485.0
40.827141424 522.0
40.853401989 490.0
40.879662554 478.0
40.905923120 527.0
40.932183685 449.0
40.958444251 493.0
40.984704816 450.0
41.010965381 479.0
41.037225947 433.0
41.063486512 470.0
41.089747077 480.0
41.116007643 458.0
41.142268208 504.0
41.168528773 458.0
41.194789339 477.0
41.221049904 450.0
41.247310469 436.0
41.273571035 500.0
41.299831600 456.0
41.326092165 465.0
41.352352731 451.0
41.378613296 443.0
41.404873862 424.0
41.431134427 448.0
41.457394992 491.0
41.483655558 463.0
41.509916123 458.0
41.536176688 482.0
41.562437254 450.0
41.588697819 505.0
41.614958384 445.0
41.641218950 432.0
41.667479515 464.0
41.693740080 470.0
41.720000646 443.0
41.746261211 466.0
41.772521776 407.0
41.798782342 459.0
41.825042907 429.0
41.851303473 469.0
41.877564038 494.0
41.903824603 478.0
41.930085169 454.0
41.956345734 463.0
41.982606299 451.0
42.008866865 456.0
42.035127430 453.0
42.061387995 413.0
42.087648561 415.0
42.113909126 434.0
42.140169691 417.0
42.166430257 429.0
42.192690822 455.0
42.218951388 433.0
42.245211953 389.0
42.271472518 466.0
42.297733084 470.0
42.323993649 456.0
42.350254214 446.0
42.376514780 445.0
42.402775345 456.0
42.429035910 443.0
42.455296476 431.0
42.481557041 435.0
42.507817606 470.0
42.534078172 410.0
42.560338737 435.0
42.586599302 407.0
42.612859868 463.0
42.639120433 411.0
42.665380999 431.0
42.691641564 442.0
42.717902129 463.0
42.744162695 412.0
42.770423260 406.0
42.796683825 430.0
42.822944391 443.0
42.849204956 422.0
42.875465521 401.0
42.901726087 447.0
42.927986652 413.0
42.954247217 426.0
42.980507783 414.0
43.006768348 474.0
43.033028914 422.0
43.059289479 446.0
43.085550044 418.0
43.111810610 431.0
43.138071175 432.0
43.164331740 426.0
43.190592306 474.0
43.216852871 416.0
43.243113436 435.0
43.269374002 442.0
43.295634567 442.0
43.321895132 486.0
43.348155698 463.0
43.374416263 454.0
43.400676828 448.0
43.426937394 414.0
43.453197959 433.0
43.479458525 442.0
43.505719090 449.0
43.531979655 459.0
43.558240221 444.0
43.584500786 435.0
43.610761351 443.0
43.637021917 417.0
43.663282482 464.0
43.689543047 431.0
43.715803613 432.0
43.742064178 420.0
43.768324743 434.0
43.794585309 436.0
43.820845874 433.0
43.847106440 467.0
43.873367005 435.0
43.899627570 428.0
43.925888136 451.0
43.952148701 404.0
43.978409266 466.0
44.004669832 441.0
44.030930397 452.0
44.057190962 404.0
44.083451528 435.0
44.109712093 469.0
44.135972658 408.0
44.162233224 446.0
44.188493789 488.0
44.214754354 436.0
44.241014920 426.0
44.267275485 435.0
44.293536051 428.0
44.319796616 474.0
44.346057181 448.0
44.372317747 431.0
44.398578312 433.0
44.424838877 470.0
44.451099443 464.0
44.477360008 443.0
44.503620573 449.0
44.529881139 455.0
44.556141704 471.0
44.582402269 444.0
44.608662835 461.0
44.634923400 464.0
44.661183966 411.0
44.687444531 432.0
44.713705096 454.0
44.739965662 446.0
44.766226227 466.0
44.792486792 441.0
44.818747358 459.0
44.845007923 479.0
44.871268488 450.0
44.897529054 464.0
44.923789619 428.0
44.950050184 476.0
44.976310750 456.0
45.002571315 437.0
45.028831880 455.0
45.055092446 461.0
45.081353011 466.0
45.107613577 447.0
45.133874142 422.0
45.160134707 447.0
45.186395273 485.0
45.212655838 492.0
45.238916403 441.0
45.265176969 421.0
45.291437534 444.0
45.317698099 465.0
45.343958665 465.0
45.370219230 482.0
45.396479795 434.0
45.422740361 450.0
45.449000926 473.0
45.475261492 434.0
45.501522057 456.0
45.527782622 448.0
45.554043188 469.0
45.580303753 474.0
45.606564318 469.0
45.632824884 454.0
45.659085449 427.0
45.685346014 481.0
45.711606580 489.0
45.737867145 455.0
45.764127710 452.0
45.790388276 427.0
45.816648841 465.0
45.842909406 471.0
45.869169972 464.0
45.895430537 485.0
45.921691103 488.0
45.947951668 459.0
45.974212233 500.0
46.000472799 463.0
46.026733364 448.0
46.052993929 436.0
46.079254495 465.0
46.105515060 431.0
46.131775625 422.0
46.158036191 424.0
46.184296756 452.0
46.210557321 472.0
46.236817887 473.0
46.263078452 432.0
46.289339017 446.0
46.315599583 433.0
46.341860148 431.0
46.368120714 429.0
46.394381279 424.0
46.420641844 456.0
46.446902410 478.0
46.473162975 480.0
46.499423540 432.0
46.525684106 515.0
46.551944671 446.0
46.578205236 461.0
46.604465802 462.0
46.630726367 460.0
46.656986932 481.0
46.683247498 452.0
46.709508063 420.0
46.735768629 426.0
46.762029194 469.0
46.788289759 421.0
46.814550325 425.0
46.840810890 466.0
46.867071455 461.0
46.893332021 420.0
46.919592586 401.0
46.945853151 449.0
46.972113717 426.0
46.998374282 470.0
47.024634847 424.0
47.050895413 448.0
47.077155978 402.0
47.103416543 397.0
47.129677109 427.0
47.155937674 399.0
47.182198240 418.0
47.208458805 381.0
47.234719370 421.0
47.260979936 456.0
47.287240501 413.0
47.313501066 462.0
47.339761632 375.0
47.366022197 436.0
47.392282762 425.0
47.418543328 406.0
47.444803893 431.0
47.471064458 417.0
47.497325024 445.0
47.523585589 399.0
47.549846155 425.0
47.576106720 455.0
47.602367285 448.0
47.628627851 415.0
47.654888416 389.0
47.681148981 427.0
47.707409547 412.0
47.733670112 379.0
47.759930677 419.0
47.786191243 422.0
47.812451808 385.0
47.838712373 417.0
47.864972939 409.0
47.891233504 385.0
47.917494069 397.0
47.943754635 405.0
47.970015200 412.0
47.996275766 399.0
48.022536331 398.0
48.048796896 389.0
48.075057462 358.0
48.101318027 422.0
48.127578592 428.0
48.153839158 388.0
48.180099723 385.0
48.206360288 411.0
48.232620854 410.0
48.258881419 363.0
48.285141984 371.0
48.311402550 378.0
48.337663115 390.0
48.363923681 400.0
48.390184246 406.0
48.416444811 424.0
48.442705377 419.0
48.468965942 414.0
48.495226507 359.0
48.521487073 378.0
48.547747638 395.0
48.574008203 383.0
48.600268769 412.0
48.626529334 410.0
48.652789899 392.0
48.679050465 367.0
48.705311030 379.0
48.731571595 397.0
48.757832161 396.0
48.784092726 375.0
48.810353292 347.0
48.836613857 361.0
48.862874422 391.0
48.889134988 405.0
48.915395553 378.0
48.941656118 369.0
48.967916684 411.0
48.994177249 375.0
49.020437814 373.0
49.046698380 365.0
49.072958945 382.0
49.099219510 377.0
49.125480076 347.0
49.151740641 377.0
49.178001207 355.0
49.204261772 392.0
49.230522337 387.0
49.256782903 327.0
49.283043468 359.0
49.309304033 356.0
49.335564599 339.0
49.361825164 372.0
49.388085729 386.0
49.414346295 404.0
49.440606860 385.0
49.466867425 386.0
49.493127991 382.0
49.519388556 361.0
49.545649121 367.0
49.571909687 355.0
49.598170252 387.0
49.624430818 323.0
49.650691383 363.0
49.676951948 394.0
49.703212514 362.0
49.729473079 358.0
49.755733644 343.0
49.781994210 371.0
49.808254775 343.0
49.834515340 345.0
49.860775906 354.0
49.887036471 361.0
49.913297036 355.0
49.939557602 338.0
49.965818167 369.0
49.992078733 352.0
50.018339298 341.0
50.044599863 355.0
50.070860429 339.0
50.097120994 312.0
50.123381559 342.0
50.149642125 336.0
50.175902690 357.0
50.202163255 351.0
50.228423821 315.0
50.254684386 367.0
50.280944951 336.0
50.307205517 321.0
50.333466082 338.0
50.359726647 355.0
50.385987213 338.0
50.412247778 312.0
50.438508344 347.0
50.464768909 318.0
50.491029474 347.0
50.517290040 336.0
50.543550605 335.0
50.569811170 344.0
50.596071736 312.0
50.622332301 313.0
50.648592866 333.0
50.674853432 343.0
50.701113997 366.0
50.727374562 311.0
50.753635128 308.0
50.779895693 325.0
50.806156258 351.0
50.832416824 305.0
50.858677389 368.0
50.884937955 303.0
50.911198520 326.0
50.937459085 326.0
50.963719651 294.0
50.989980216 350.0
51.016240781 326.0
51.042501347 342.0
51.068761912 284.0
51.095022477 335.0
51.121283043 321.0
51.147543608 304.0
51.173804173 357.0
51.200064739 320.0
51.226325304 319.0
51.252585870 325.0
51.278846435 321.0
51.305107000 366.0
51.331367566 290.0
51.357628131 350.0
51.383888696 334.0
51.410149262 299.0
51.436409827 346.0
51.462670392 344.0
51.488930958 330.0
51.515191523 316.0
51.541452088 312.0
51.567712654 365.0
51.593973219 315.0
51.620233784 322.0
51.646494350 314.0
51.672754915 333.0
51.699015481 344.0
51.725276046 297.0
51.751536611 330.0
51.777797177 320.0
51.804057742 317.0
51.830318307 317.0
51.856578873 307.0
51.882839438 308.0
51.909100003 332.0
51.935360569 322.0
51.961621134 301.0
51.987881699 289.0
52.014142265 283.0
52.040402830 304.0
52.066663396 352.0
52.092923961 324.0
52.119184526 322.0
52.145445092 318.0
52.171705657 309.0
52.197966222 314.0
52.224226788 326.0
52.250487353 320.0
52.276747918 307.0
52.303008484 299.0
52.329269049 302.0
52.355529614 312.0
52.381790180 303.0
52.408050745 317.0
52.434311310 294.0
52.460571876 307.0
52.486832441 335.0
52.513093007 321.0
52.539353572 343.0
52.565614137 283.0
52.591874703 303.0
52.618135268 312.0
52.644395833 270.0
52.670656399 276.0
52.696916964 308.0
52.723177529 323.0
52.749438095 282.0
52.775698660 301.0
52.801959225 301.0
52.828219791 303.0
52.854480356 277.0
52.880740922 326.0
52.907001487 293.0
52.933262052 290.0
52.959522618 306.0
52.985783183 272.0
53.012043748 283.0
53.038304314 347.0
53.064564879 305.0
53.090825444 290.0
53.117086010 300.0
53.143346575 300.0
53.169607140 276.0
53.195867706 306.0
53.222128271 302.0
53.248388836 279.0
53.274649402 300.0
53.300909967 316.0
53.327170533 284.0
53.353431098 278.0
53.379691663 289.0
53.405952229 293.0
53.432212794 306.0
53.458473359 289.0
53.484733925 292.0
53.510994490 323.0
53.537255055 322.0
53.563515621 277.0
53.589776186 261.0
53.616036751 313.0
53.642297317 294.0
53.668557882 289.0
53.694818448 290.0
53.721079013 273.0
53.747339578 298.0
53.773600144 291.0
53.799860709 291.0
53.826121274 264.0
53.852381840 308.0
53.878642405 292.0
53.904902970 295.0
53.931163536 333.0
53.957424101 295.0
53.983684666 273.0
54.009945232 317.0
54.036205797 278.0
54.062466362 261.0
54.088726928 316.0
54.114987493 297.0
54.141248059 310.0
54.167508624 286.0
54.193769189 290.0
54.220029755 293.0
54.246290320 300.0
54.272550885 302.0
54.298811451 305.0
54.325072016 259.0
54.351332581 307.0
54.377593147 281.0
54.403853712 290.0
54.430114277 283.0
54.456374843 293.0
54.482635408 312.0
54.508895973 260.0
54.535156539 254.0
54.561417104 276.0
54.587677670 258.0
54.613938235 289.0
54.640198800 305.0
54.666459366 297.0
54.692719931 255.0
54.718980496 290.0
54.745241062 285.0
54.771501627 292.0
54.797762192 332.0
54.824022758 287.0
54.850283323 268.0
54.876543888 302.0
54.902804454 271.0
54.929065019 264.0
54.955325585 270.0
54.981586150 304.0
55.007846715 304.0
55.034107281 267.0
55.060367846 286.0
55.086628411 268.0
55.112888977 263.0
55.139149542 269.0
55.165410107 267.0
55.191670673 261.0
55.217931238 276.0
55.244191803 275.0
55.270452369 272.0
55.296712934 267.0
55.322973499 272.0
55.349234065 268.0
55.375494630 253.0
55.401755196 257.0
55.428015761 311.0
55.454276326 273.0
55.480536892 260.0
55.506797457 265.0
55.533058022 282.0
55.559318588 272.0
55.585579153 269.0
55.611839718 281.0
55.638100284 274.0
55.664360849 259.0
55.690621414 278.0
55.716881980 257.0
55.743142545 263.0
55.769403111 284.0
55.795663676 277.0
55.821924241 284.0
55.848184807 263.0
55.874445372 295.0
55.900705937 251.0
55.926966503 283.0
55.953227068 258.0
55.979487633 298.0
56.005748199 278.0
56.032008764 250.0
56.058269329 290.0
56.084529895 283.0
56.110790460 260.0
56.137051025 279.0
56.163311591 281.0
56.189572156 267.0
56.215832722 249.0
56.242093287 308.0
56.268353852 288.0
56.294614418 309.0
56.320874983 251.0
56.347135548 306.0
56.373396114 291.0
56.399656679 271.0
56.425917244 250.0
56.452177810 269.0
56.478438375 233.0
56.504698940 257.0
56.530959506 249.0
56.557220071 257.0
56.583480637 304.0
56.609741202 282.0
56.636001767 269.0
56.662262333 269.0
56.688522898 290.0
56.714783463 262.0
56.741044029 246.0
56.767304594 271.0
56.793565159 291.0
56.819825725 236.0
56.846086290 253.0
56.872346855 274.0
56.898607421 273.0
56.924867986 268.0
56.951128551 276.0
56.977389117 256.0
57.003649682 280.0
57.029910248 266.0
57.056170813 247.0
57.082431378 258.0
57.108691944 279.0
57.134952509 253.0
57.161213074 258.0
57.187473640 266.0
57.213734205 276.0
57.239994770 285.0
57.266255336 266.0
57.292515901 267.0
57.318776466 279.0
57.345037032 266.0
57.371297597 252.0
57.397558163 233.0
57.423818728 270.0
57.450079293 266.0
57.476339859 278.0
57.502600424 255.0
57.528860989 271.0
57.555121555 262.0
57.581382120 275.0
57.607642685 272.0
57.633903251 273.0
57.660163816 280.0
57.686424381 260.0
57.712684947 263.0
57.738945512 263.0
57.765206077 274.0
57.791466643 257.0
57.817727208 269.0
57.843987774 255.0
57.870248339 273.0
57.896508904 245.0
57.922769470 276.0
57.949030035 303.0
57.975290600 257.0
58.001551166 260.0
58.027811731 285.0
58.054072296 253.0
58.080332862 250.0
58.106593427 278.0
58.132853992 253.0
58.159114558 251.0
58.185375123 284.0
58.211635689 257.0
58.237896254 273.0
58.264156819 249.0
58.290417385 259.0
58.316677950 259.0
58.342938515 283.0
58.369199081 275.0
58.395459646 294.0
58.421720211 251.0
58.447980777 281.0
58.474241342 227.0
58.500501907 265.0
58.526762473 272.0
58.553023038 271.0
58.579283603 267.0
58.605544169 279.0
58.631804734 256.0
58.658065300 278.0
58.684325865 328.0
58.710586430 305.0
58.736846996 248.0
58.763107561 298.0
58.789368126 280.0
58.815628692 275.0
58.841889257 303.0
58.868149822 258.0
58.894410388 241.0
58.920670953 289.0
58.946931518 274.0
58.973192084 283.0
58.999452649 252.0
59.025713214 274.0
59.051973780 275.0
59.078234345 266.0
59.104494911 287.0
59.130755476 285.0
59.157016041 283.0
59.183276607 273.0
59.209537172 262.0
59.235797737 284.0
59.262058303 305.0
59.288318868 260.0
59.314579433 292.0
59.340839999 284.0
59.367100564 281.0
59.393361129 272.0
59.419621695 292.0
59.445882260 249.0
59.472142826 262.0
59.498403391 266.0
59.524663956 251.0
59.550924522 284.0
59.577185087 274.0
59.603445652 277.0
59.629706218 295.0
59.655966783 296.0
59.682227348 297.0
59.708487914 320.0
59.734748479 282.0
59.761009044 301.0
59.787269610 296.0
59.813530175 282.0
59.839790740 296.0
59.866051306 313.0
59.892311871 275.0
59.918572437 315.0
59.944833002 306.0
59.971093567 341.0
59.997354133 284.0
60.023614698 292.0
60.049875263 293.0
60.076135829 333.0
60.102396394 340.0
60.128656959 332.0
60.154917525 319.0
60.181178090 327.0
60.207438655 285.0
60.233699221 315.0
60.259959786 354.0
60.286220352 333.0
60.312480917 350.0
60.338741482 355.0
60.365002048 354.0
60.391262613 348.0
60.417523178 354.0
60.443783744 377.0
60.470044309 351.0
60.496304874 378.0
60.522565440 395.0
60.548826005 392.0
60.575086570 387.0
60.601347136 428.0
60.627607701 416.0
60.653868266 399.0
60.680128832 409.0
60.706389397 429.0
60.732649963 460.0
60.758910528 395.0
60.785171093 400.0
60.811431659 431.0
60.837692224 471.0
60.863952789 461.0
60.890213355 468.0
60.916473920 437.0
60.942734485 481.0
60.968995051 441.0
60.995255616 462.0
61.021516181 485.0
61.047776747 481.0
61.074037312 498.0
61.100297878 469.0
61.126558443 462.0
61.152819008 484.0
61.179079574 440.0
61.205340139 518.0
61.231600704 456.0
61.257861270 490.0
61.284121835 480.0
61.310382400 453.0
61.336642966 447.0
61.362903531 420.0
61.389164096 455.0
61.415424662 428.0
61.441685227 438.0
61.467945792 438.0
61.494206358 473.0
61.520466923 422.0
61.546727489 460.0
61.572988054 494.0
61.599248619 425.0
61.625509185 434.0
61.651769750 472.0
61.678030315 431.0
61.704290881 453.0
61.730551446 462.0
61.756812011 380.0
61.783072577 468.0
61.809333142 472.0
61.835593707 431.0
61.861854273 445.0
61.888114838 445.0
61.914375404 444.0
61.940635969 416.0
61.966896534 415.0
61.993157100 426.0
62.019417665 422.0
62.045678230 426.0
62.071938796 417.0
62.098199361 428.0
62.124459926 426.0
62.150720492 439.0
62.176981057 418.0
62.203241622 388.0
62.229502188 391.0
62.255762753 427.0
62.282023318 395.0
62.308283884 395.0
62.334544449 386.0
62.360805015 399.0
62.387065580 402.0
62.413326145 404.0
62.439586711 411.0
62.465847276 416.0
62.492107841 396.0
62.518368407 375.0
62.544628972 428.0
62.570889537 355.0
62.597150103 372.0
62.623410668 382.0
62.649671233 377.0
62.675931799 365.0
62.702192364 336.0
62.728452930 356.0
62.754713495 343.0
62.780974060 345.0
62.807234626 361.0
62.833495191 356.0
62.859755756 333.0
62.886016322 345.0
62.912276887 354.0
62.938537452 342.0
62.964798018 340.0
62.991058583 337.0
63.017319148 320.0
63.043579714 365.0
63.069840279 313.0
63.096100844 311.0
63.122361410 324.0
63.148621975 304.0
63.174882541 318.0
63.201143106 322.0
63.227403671 314.0
63.253664237 323.0
63.279924802 286.0
63.306185367 299.0
63.332445933 295.0
63.358706498 322.0
63.384967063 290.0
63.411227629 330.0
63.437488194 290.0
63.463748759 303.0
63.490009325 280.0
63.516269890 283.0
63.542530455 341.0
63.568791021 276.0
63.595051586 328.0
63.621312152 288.0
63.647572717 301.0
63.673833282 319.0
63.700093848 294.0
63.726354413 304.0
63.752614978 284.0
63.778875544 295.0
63.805136109 305.0
63.831396674 287.0
63.857657240 260.0
63.883917805 292.0
63.910178370 274.0
63.936438936 262.0
63.962699501 294.0
63.988960067 283.0
64.015220632 277.0
64.041481197 276.0
64.067741763 291.0
64.094002328 278.0
64.120262893 267.0
64.146523459 283.0
64.172784024 239.0
64.199044589 270.0
64.225305155 291.0
64.251565720 270.0
64.277826285 270.0
64.304086851 260.0
64.330347416 250.0
64.356607981 253.0
64.382868547 298.0
64.409129112 251.0
64.435389678 237.0
64.461650243 247.0
64.487910808 278.0
64.514171374 226.0
64.540431939 258.0
64.566692504 265.0
64.592953070 247.0
64.619213635 278.0
64.645474200 246.0
64.671734766 252.0
64.697995331 267.0
64.724255896 241.0
64.750516462 228.0
64.776777027 268.0
64.803037593 241.0
64.829298158 248.0
64.855558723 273.0
64.881819289 269.0
64.908079854 248.0
64.934340419 270.0
64.960600985 252.0
64.986861550 253.0
