5.007730280 1682.0
5.033990845 1660.0
5.060251411 1703.0
5.086511976 1614.0
5.112772541 1594.0
5.139033107 1626.0
5.165293672 1574.0
5.191554237 1521.0
5.217814803 1605.0
5.244075368 1548.0
5.270335934 1615.0
5.296596499 1601.0
5.322857064 1538.0
5.349117630 1519.0
5.375378195 1591.0
5.401638760 1563.0
5.427899326 1479.0
5.454159891 1529.0
5.480420456 1509.0
5.506681022 1505.0
5.532941587 1559.0
5.559202152 1508.0
5.585462718 1432.0
5.611723283 1461.0
5.637983849 1454.0
5.664244414 1473.0
5.690504979 1470.0
5.716765545 1374.0
5.743026110 1477.0
5.769286675 1481.0
5.795547241 1423.0
5.821807806 1436.0
5.848068371 1455.0
5.874328937 1431.0
5.900589502 1417.0
5.926850067 1362.0
5.953110633 1349.0
5.979371198 1388.0
6.005631763 1433.0
6.031892329 1328.0
6.058152894 1413.0
6.084413460 1518.0
6.110674025 1395.0
6.136934590 1399.0
6.163195156 1407.0
6.189455721 1359.0
6.215716286 1341.0
6.241976852 1350.0
6.268237417 1339.0
6.294497982 1305.0
6.320758548 1313.0
6.347019113 1325.0
6.373279678 1331.0
6.399540244 1386.0
6.425800809 1336.0
6.452061375 1307.0
6.478321940 1287.0
6.504582505 1412.0
6.530843071 1287.0
6.557103636 1343.0
6.583364201 1364.0
6.609624767 1288.0
6.635885332 1403.0
6.662145897 1299.0
6.688406463 1338.0
6.714667028 1364.0
6.740927593 1286.0
6.767188159 1296.0
6.793448724 1317.0
6.819709289 1376.0
6.845969855 1318.0
6.872230420 1323.0
6.898490986 1307.0
6.924751551 1331.0
6.951012116 1332.0
6.977272682 1355.0
7.003533247 1374.0
7.029793812 1327.0
7.056054378 1467.0
7.082314943 1412.0
7.108575508 1481.0
7.134836074 1496.0
7.161096639 1606.0
7.187357204 1548.0
7.213617770 1534.0
7.239878335 1410.0
7.266138900 1292.0
7.292399466 1315.0
7.318660031 1232.0
7.344920597 1261.0
7.371181162 1225.0
7.397441727 1243.0
7.423702293 1254.0
7.449962858 1184.0
7.476223423 1169.0
7.502483989 1216.0
7.528744554 1199.0
7.555005119 1248.0
7.581265685 1175.0
7.607526250 1236.0
7.633786815 1201.0
7.660047381 1214.0
7.686307946 1187.0
7.712568512 1151.0
7.738829077 1190.0
7.765089642 1147.0
7.791350208 1178.0
7.817610773 1163.0
7.843871338 1146.0
7.870131904 1210.0
7.896392469 1191.0
7.922653034 1169.0
7.948913600 1163.0
7.975174165 1218.0
8.001434730 1181.0
8.027695296 1192.0
8.053955861 1184.0
8.080216426 1195.0
8.106476992 1207.0
8.132737557 1151.0
8.158998123 1115.0
8.185258688 1158.0
8.211519253 1206.0
8.237779819 1242.0
8.264040384 1187.0
8.290300949 1120.0
8.316561515 1255.0
8.342822080 1210.0
8.369082645 1193.0
8.395343211 1116.0
8.421603776 1231.0
8.447864341 1126.0
8.474124907 1167.0
8.500385472 1193.0
8.526646038 1162.0
8.552906603 1239.0
8.579167168 1178.0
8.605427734 1141.0
8.631688299 1177.0
8.657948864 1172.0
8.684209430 1166.0
8.710469995 1180.0
8.736730560 1178.0
8.762991126 1118.0
8.789251691 1211.0
8.815512256 1212.0
8.841772822 1210.0
8.868033387 1154.0
8.894293952 1205.0
8.920554518 1140.0
8.946815083 1256.0
8.973075649 1186.0
8.999336214 1190.0
9.025596779 1217.0
9.051857345 1237.0
9.078117910 1223.0
9.104378475 1236.0
9.130639041 1250.0
9.156899606 1245.0
9.183160171 1247.0
9.209420737 1195.0
9.235681302 1284.0
9.261941867 1257.0
9.288202433 1234.0
9.314462998 1194.0
9.340723564 1260.0
9.366984129 1269.0
9.393244694 1246.0
9.419505260 1337.0
9.445765825 1270.0
9.472026390 1331.0
9.498286956 1293.0
9.524547521 1301.0
9.550808086 1356.0
9.577068652 1263.0
9.603329217 1360.0
9.629589782 1307.0
9.655850348 1370.0
9.682110913 1391.0
9.708371478 1413.0
9.734632044 1364.0
9.760892609 1412.0
9.787153175 1373.0
9.813413740 1342.0
9.839674305 1438.0
9.865934871 1459.0
9.892195436 1393.0
9.918456001 1478.0
9.944716567 1426.0
9.970977132 1468.0
9.997237697 1432.0
10.023498263 1464.0
10.049758828 1468.0
10.076019393 1528.0
10.102279959 1610.0
10.128540524 1659.0
10.154801090 1696.0
10.181061655 1706.0
10.207322220 1698.0
10.233582786 1618.0
10.259843351 1593.0
10.286103916 1542.0
10.312364482 1453.0
10.338625047 1588.0
10.364885612 1523.0
10.391146178 1610.0
10.417406743 1554.0
10.443667308 1551.0
10.469927874 1560.0
10.496188439 1621.0
10.522449004 1571.0
10.548709570 1641.0
10.574970135 1633.0
10.601230701 1633.0
10.627491266 1521.0
10.653751831 1559.0
10.680012397 1619.0
10.706272962 1664.0
10.732533527 1644.0
10.758794093 1559.0
10.785054658 1648.0
10.811315223 1630.0
10.837575789 1680.0
10.863836354 1657.0
10.890096919 1682.0
10.916357485 1724.0
10.942618050 1666.0
10.968878616 1724.0
10.995139181 1708.0
11.021399746 1734.0
11.047660312 1626.0
11.073920877 1733.0
11.100181442 1650.0
11.126442008 1676.0
11.152702573 1704.0
11.178963138 1774.0
11.205223704 1795.0
11.231484269 1762.0
11.257744834 1716.0
11.284005400 1762.0
11.310265965 1702.0
11.336526530 1707.0
11.362787096 1741.0
11.389047661 1726.0
11.415308227 1655.0
11.441568792 1715.0
11.467829357 1672.0
11.494089923 1709.0
11.520350488 1699.0
11.546611053 1665.0
11.572871619 1687.0
11.599132184 1674.0
11.625392749 1613.0
11.651653315 1599.0
11.677913880 1771.0
11.704174445 1672.0
11.730435011 1570.0
11.756695576 1671.0
11.782956141 1622.0
11.809216707 1550.0
11.835477272 1592.0
11.861737838 1602.0
11.887998403 1497.0
11.914258968 1537.0
11.940519534 1509.0
11.966780099 1553.0
11.993040664 1496.0
12.019301230 1467.0
12.045561795 1507.0
12.071822360 1444.0
12.098082926 1435.0
12.124343491 1433.0
12.150604056 1444.0
12.176864622 1417.0
12.203125187 1389.0
12.229385753 1372.0
12.255646318 1411.0
12.281906883 1447.0
12.308167449 1437.0
12.334428014 1440.0
12.360688579 1429.0
12.386949145 1418.0
12.413209710 1430.0
12.439470275 1433.0
12.465730841 1437.0
12.491991406 1433.0
12.518251971 1319.0
12.544512537 1302.0
12.570773102 1272.0
12.597033667 1217.0
12.623294233 1207.0
12.649554798 1204.0
12.675815364 1208.0
12.702075929 1135.0
12.728336494 1174.0
12.754597060 1156.0
12.780857625 1158.0
12.807118190 1118.0
12.833378756 1114.0
12.859639321 1153.0
12.885899886 1121.0
12.912160452 1051.0
12.938421017 1134.0
12.964681582 1097.0
12.990942148 1011.0
13.017202713 1089.0
13.043463279 1054.0
13.069723844 1086.0
13.095984409 990.0
13.122244975 988.0
13.148505540 1051.0
13.174766105 1036.0
13.201026671 963.0
13.227287236 1000.0
13.253547801 969.0
13.279808367 1001.0
13.306068932 1012.0
13.332329497 979.0
13.358590063 958.0
13.384850628 940.0
13.411111193 964.0
13.437371759 997.0
13.463632324 896.0
13.489892890 884.0
13.516153455 917.0
13.542414020 885.0
13.568674586 938.0
13.594935151 876.0
13.621195716 906.0
13.647456282 909.0
13.673716847 876.0
13.699977412 868.0
13.726237978 904.0
13.752498543 856.0
13.778759108 865.0
13.805019674 885.0
13.831280239 842.0
13.857540805 844.0
13.883801370 805.0
13.910061935 901.0
13.936322501 822.0
13.962583066 798.0
13.988843631 808.0
14.015104197 836.0
14.041364762 806.0
14.067625327 812.0
14.093885893 830.0
14.120146458 850.0
14.146407023 826.0
14.172667589 770.0
14.198928154 797.0
14.225188719 729.0
14.251449285 790.0
14.277709850 727.0
14.303970416 841.0
14.330230981 758.0
14.356491546 749.0
14.382752112 809.0
14.409012677 743.0
14.435273242 745.0
14.461533808 788.0
14.487794373 721.0
14.514054938 780.0
14.540315504 724.0
14.566576069 753.0
14.592836634 749.0
14.619097200 729.0
14.645357765 767.0
14.671618331 748.0
14.697878896 749.0
14.724139461 729.0
14.750400027 761.0
14.776660592 746.0
14.802921157 719.0
14.829181723 766.0
14.855442288 733.0
14.881702853 786.0
14.907963419 752.0
14.934223984 750.0
14.960484549 716.0
14.986745115 769.0
15.013005680 712.0
15.039266245 743.0
15.065526811 724.0
15.091787376 718.0
15.118047942 705.0
15.144308507 731.0
15.170569072 701.0
15.196829638 674.0
15.223090203 764.0
15.249350768 729.0
15.275611334 682.0
15.301871899 715.0
15.328132464 705.0
15.354393030 735.0
15.380653595 742.0
15.406914160 713.0
15.433174726 711.0
15.459435291 719.0
15.485695857 713.0
15.511956422 679.0
15.538216987 676.0
15.564477553 687.0
15.590738118 737.0
15.616998683 706.0
15.643259249 657.0
15.669519814 708.0
15.695780379 707.0
15.722040945 699.0
15.748301510 687.0
15.774562075 676.0
15.800822641 687.0
15.827083206 749.0
15.853343771 661.0
15.879604337 665.0
15.905864902 707.0
15.932125468 742.0
15.958386033 699.0
15.984646598 739.0
16.010907164 744.0
16.037167729 782.0
16.063428294 812.0
16.089688860 804.0
16.115949425 740.0
16.142209990 740.0
16.168470556 801.0
16.194731121 748.0
16.220991686 748.0
16.247252252 677.0
16.273512817 697.0
16.299773382 686.0
16.326033948 666.0
16.352294513 698.0
16.378555079 688.0
16.404815644 666.0
16.431076209 695.0
16.457336775 648.0
16.483597340 682.0
16.509857905 681.0
16.536118471 684.0
16.562379036 674.0
16.588639601 712.0
16.614900167 643.0
16.641160732 680.0
16.667421297 738.0
16.693681863 659.0
16.719942428 643.0
16.746202994 683.0
16.772463559 681.0
16.798724124 691.0
16.824984690 657.0
16.851245255 694.0
16.877505820 661.0
16.903766386 723.0
16.930026951 674.0
16.956287516 661.0
16.982548082 680.0
17.008808647 674.0
17.035069212 641.0
17.061329778 702.0
17.087590343 694.0
17.113850908 673.0
17.140111474 678.0
17.166372039 704.0
17.192632605 682.0
17.218893170 628.0
17.245153735 686.0
17.271414301 661.0
17.297674866 649.0
17.323935431 700.0
17.350195997 684.0
17.376456562 711.0
17.402717127 712.0
17.428977693 690.0
17.455238258 700.0
17.481498823 700.0
17.507759389 723.0
17.534019954 692.0
17.560280520 700.0
17.586541085 674.0
17.612801650 723.0
17.639062216 731.0
17.665322781 716.0
17.691583346 735.0
17.717843912 741.0
17.744104477 721.0
17.770365042 744.0
17.796625608 790.0
17.822886173 762.0
17.849146738 727.0
17.875407304 749.0
17.901667869 809.0
17.927928434 799.0
17.954189000 764.0
17.980449565 793.0
18.006710131 795.0
18.032970696 794.0
18.059231261 869.0
18.085491827 862.0
18.111752392 907.0
18.138012957 953.0
18.164273523 1030.0
18.190534088 1089.0
18.216794653 1075.0
18.243055219 1226.0
18.269315784 1321.0
18.295576349 1355.0
18.321836915 1468.0
18.348097480 1660.0
18.374358046 1787.0
18.400618611 1951.0
18.426879176 2051.0
18.453139742 2265.0
18.479400307 2379.0
18.505660872 2345.0
18.531921438 2413.0
18.558182003 2428.0
18.584442568 2447.0
18.610703134 2390.0
18.636963699 2487.0
18.663224264 2543.0
18.689484830 2792.0
18.715745395 2926.0
18.742005960 3161.0
18.768266526 2962.0
18.794527091 2617.0
18.820787657 2115.0
18.847048222 1704.0
18.873308787 1418.0
18.899569353 1205.0
18.925829918 1104.0
18.952090483 971.0
18.978351049 974.0
19.004611614 917.0
19.030872179 890.0
19.057132745 882.0
19.083393310 880.0
19.109653875 785.0
19.135914441 816.0
19.162175006 832.0
19.188435572 823.0
19.214696137 875.0
19.240956702 817.0
19.267217268 847.0
19.293477833 796.0
19.319738398 759.0
19.345998964 764.0
19.372259529 793.0
19.398520094 794.0
19.424780660 832.0
19.451041225 868.0
19.477301790 821.0
19.503562356 842.0
19.529822921 804.0
19.556083486 823.0
19.582344052 824.0
19.608604617 900.0
19.634865183 768.0
19.661125748 781.0
19.687386313 910.0
19.713646879 814.0
19.739907444 844.0
19.766168009 902.0
19.792428575 837.0
19.818689140 861.0
19.844949705 857.0
19.871210271 857.0
19.897470836 855.0
19.923731401 860.0
19.949991967 859.0
19.976252532 901.0
20.002513098 981.0
20.028773663 947.0
20.055034228 995.0
20.081294794 1016.0
20.107555359 1174.0
20.133815924 1280.0
20.160076490 1437.0
20.186337055 1674.0
20.212597620 2095.0
20.238858186 2459.0
20.265118751 2704.0
20.291379316 2996.0
20.317639882 2931.0
20.343900447 2737.0
20.370161012 2714.0
20.396421578 2505.0
20.422682143 2232.0
20.448942709 2115.0
20.475203274 1978.0
20.501463839 1728.0
20.527724405 1514.0
20.553984970 1264.0
20.580245535 1183.0
20.606506101 1154.0
20.632766666 1079.0
20.659027231 1028.0
20.685287797 1040.0
20.711548362 993.0
20.737808927 986.0
20.764069493 959.0
20.790330058 913.0
20.816590623 909.0
20.842851189 857.0
20.869111754 933.0
20.895372320 900.0
20.921632885 907.0
20.947893450 871.0
20.974154016 852.0
21.000414581 890.0
21.026675146 886.0
21.052935712 875.0
21.079196277 869.0
21.105456842 875.0
21.131717408 866.0
21.157977973 889.0
21.184238538 839.0
21.210499104 870.0
21.236759669 891.0
21.263020235 925.0
21.289280800 863.0
21.315541365 900.0
21.341801931 922.0
21.368062496 945.0
21.394323061 932.0
21.420583627 948.0
21.446844192 902.0
21.473104757 930.0
21.499365323 863.0
21.525625888 936.0
21.551886453 931.0
21.578147019 935.0
21.604407584 961.0
21.630668149 1033.0
21.656928715 974.0
21.683189280 1023.0
21.709449846 962.0
21.735710411 989.0
21.761970976 1009.0
21.788231542 1018.0
21.814492107 939.0
21.840752672 926.0
21.867013238 915.0
21.893273803 987.0
21.919534368 929.0
21.945794934 957.0
21.972055499 970.0
21.998316064 978.0
22.024576630 1006.0
22.050837195 969.0
22.077097761 1070.0
22.103358326 995.0
22.129618891 983.0
22.155879457 957.0
22.182140022 1007.0
22.208400587 989.0
22.234661153 989.0
22.260921718 1021.0
22.287182283 1006.0
22.313442849 968.0
22.339703414 1010.0
22.365963979 1016.0
22.392224545 1073.0
22.418485110 1065.0
22.444745675 1087.0
22.471006241 1064.0
22.497266806 1049.0
22.523527372 1061.0
22.549787937 1011.0
22.576048502 1070.0
22.602309068 1044.0
22.628569633 1023.0
22.654830198 1135.0
22.681090764 1044.0
22.707351329 1068.0
22.733611894 1084.0
22.759872460 1096.0
22.786133025 1140.0
22.812393590 1147.0
22.838654156 1114.0
22.864914721 1130.0
22.891175287 1129.0
22.917435852 1131.0
22.943696417 1153.0
22.969956983 1153.0
22.996217548 1189.0
23.022478113 1182.0
23.048738679 1183.0
23.074999244 1187.0
23.101259809 1171.0
23.127520375 1101.0
23.153780940 1225.0
23.180041505 1223.0
23.206302071 1096.0
23.232562636 1205.0
23.258823201 1197.0
23.285083767 1223.0
23.311344332 1208.0
23.337604898 1218.0
23.363865463 1157.0
23.390126028 1160.0
23.416386594 1213.0
23.442647159 1252.0
23.468907724 1158.0
23.495168290 1234.0
23.521428855 1103.0
23.547689420 1203.0
23.573949986 1197.0
23.600210551 1180.0
23.626471116 1118.0
23.652731682 1180.0
23.678992247 1130.0
23.705252813 1169.0
23.731513378 1145.0
23.757773943 1164.0
23.784034509 1061.0
23.810295074 1162.0
23.836555639 1140.0
23.862816205 1154.0
23.889076770 1143.0
23.915337335 1063.0
23.941597901 1221.0
23.967858466 1280.0
23.994119031 1216.0
24.020379597 1174.0
24.046640162 1190.0
24.072900727 1191.0
24.099161293 1066.0
24.125421858 1024.0
24.151682424 1046.0
24.177942989 1069.0
24.204203554 982.0
24.230464120 914.0
24.256724685 997.0
24.282985250 941.0
24.309245816 958.0
24.335506381 901.0
24.361766946 923.0
24.388027512 908.0
24.414288077 930.0
24.440548642 927.0
24.466809208 890.0
24.493069773 889.0
24.519330338 874.0
24.545590904 835.0
24.571851469 859.0
24.598112035 892.0
24.624372600 774.0
24.650633165 899.0
24.676893731 843.0
24.703154296 817.0
24.729414861 812.0
24.755675427 808.0
24.781935992 813.0
24.808196557 840.0
24.834457123 832.0
24.860717688 765.0
24.886978253 793.0
24.913238819 843.0
24.939499384 785.0
24.965759950 768.0
24.992020515 804.0
25.018281080 742.0
25.044541646 772.0
25.070802211 737.0
25.097062776 744.0
25.123323342 769.0
25.149583907 759.0
25.175844472 810.0
25.202105038 688.0
25.228365603 754.0
25.254626168 755.0
25.280886734 734.0
25.307147299 762.0
25.333407864 721.0
25.359668430 720.0
25.385928995 716.0
25.412189561 694.0
25.438450126 744.0
25.464710691 689.0
25.490971257 649.0
25.517231822 724.0
25.543492387 703.0
25.569752953 725.0
25.596013518 748.0
25.622274083 711.0
25.648534649 710.0
25.674795214 657.0
25.701055779 679.0
25.727316345 692.0
25.753576910 732.0
25.779837476 730.0
25.806098041 688.0
25.832358606 723.0
25.858619172 678.0
25.884879737 676.0
25.911140302 700.0
25.937400868 749.0
25.963661433 717.0
25.989921998 729.0
26.016182564 711.0
26.042443129 719.0
26.068703694 744.0
26.094964260 743.0
26.121224825 742.0
26.147485390 701.0
26.173745956 759.0
26.200006521 719.0
26.226267087 687.0
26.252527652 729.0
26.278788217 705.0
26.305048783 725.0
26.331309348 683.0
26.357569913 718.0
26.383830479 685.0
26.410091044 680.0
26.436351609 690.0
26.462612175 699.0
26.488872740 660.0
26.515133305 694.0
26.541393871 666.0
26.567654436 721.0
26.593915002 730.0
26.620175567 751.0
26.646436132 686.0
26.672696698 734.0
26.698957263 713.0
26.725217828 686.0
26.751478394 707.0
26.777738959 677.0
26.803999524 702.0
26.830260090 721.0
26.856520655 742.0
26.882781220 706.0
26.909041786 734.0
26.935302351 763.0
26.961562916 769.0
26.987823482 761.0
27.014084047 790.0
27.040344613 828.0
27.066605178 841.0
27.092865743 920.0
27.119126309 945.0
27.145386874 868.0
27.171647439 921.0
27.197908005 846.0
27.224168570 774.0
27.250429135 776.0
27.276689701 742.0
27.302950266 754.0
27.329210831 801.0
27.355471397 797.0
27.381731962 722.0
27.407992528 783.0
27.434253093 838.0
27.460513658 783.0
27.486774224 804.0
27.513034789 810.0
27.539295354 818.0
27.565555920 830.0
27.591816485 868.0
27.618077050 901.0
27.644337616 995.0
27.670598181 937.0
27.696858746 1069.0
27.723119312 1053.0
27.749379877 1037.0
27.775640442 1107.0
27.801901008 1047.0
27.828161573 1100.0
27.854422139 1099.0
27.880682704 1082.0
27.906943269 1004.0
27.933203835 976.0
27.959464400 937.0
27.985724965 866.0
28.011985531 848.0
28.038246096 768.0
28.064506661 719.0
28.090767227 822.0
28.117027792 754.0
28.143288357 711.0
28.169548923 731.0
28.195809488 769.0
28.222070054 704.0
28.248330619 781.0
28.274591184 733.0
28.300851750 718.0
28.327112315 733.0
28.353372880 731.0
28.379633446 699.0
28.405894011 709.0
28.432154576 691.0
28.458415142 712.0
28.484675707 711.0
28.510936272 742.0
28.537196838 704.0
28.563457403 680.0
28.589717968 728.0
28.615978534 673.0
28.642239099 686.0
28.668499665 717.0
28.694760230 677.0
28.721020795 682.0
28.747281361 671.0
28.773541926 701.0
28.799802491 656.0
28.826063057 690.0
28.852323622 679.0
28.878584187 688.0
28.904844753 644.0
28.931105318 642.0
28.957365883 625.0
28.983626449 618.0
29.009887014 658.0
29.036147579 609.0
29.062408145 661.0
29.088668710 626.0
29.114929276 640.0
29.141189841 619.0
29.167450406 625.0
29.193710972 647.0
29.219971537 696.0
29.246232102 671.0
29.272492668 634.0
29.298753233 625.0
29.325013798 662.0
29.351274364 626.0
29.377534929 686.0
29.403795494 645.0
29.430056060 623.0
29.456316625 618.0
29.482577191 671.0
29.508837756 632.0
29.535098321 652.0
29.561358887 636.0
29.587619452 631.0
29.613880017 635.0
29.640140583 633.0
29.666401148 655.0
29.692661713 676.0
29.718922279 656.0
29.745182844 659.0
29.771443409 659.0
29.797703975 706.0
29.823964540 684.0
29.850225105 729.0
29.876485671 760.0
29.902746236 861.0
29.929006802 889.0
29.955267367 848.0
29.981527932 862.0
30.007788498 753.0
30.034049063 731.0
30.060309628 635.0
30.086570194 618.0
30.112830759 668.0
30.139091324 629.0
30.165351890 580.0
30.191612455 678.0
30.217873020 650.0
30.244133586 629.0
30.270394151 610.0
30.296654717 582.0
30.322915282 631.0
30.349175847 622.0
30.375436413 622.0
30.401696978 585.0
30.427957543 579.0
30.454218109 586.0
30.480478674 523.0
30.506739239 567.0
30.532999805 592.0
30.559260370 575.0
30.585520935 580.0
30.611781501 572.0
30.638042066 559.0
30.664302631 589.0
30.690563197 593.0
30.716823762 571.0
30.743084328 600.0
30.769344893 569.0
30.795605458 612.0
30.821866024 665.0
30.848126589 611.0
30.874387154 563.0
30.900647720 626.0
30.926908285 612.0
30.953168850 577.0
30.979429416 554.0
31.005689981 572.0
31.031950546 586.0
31.058211112 568.0
31.084471677 577.0
31.110732243 525.0
31.136992808 577.0
31.163253373 600.0
31.189513939 482.0
31.215774504 542.0
31.242035069 490.0
31.268295635 509.0
31.294556200 550.0
31.320816765 584.0
31.347077331 550.0
31.373337896 530.0
31.399598461 506.0
31.425859027 576.0
31.452119592 605.0
31.478380157 495.0
31.504640723 517.0
31.530901288 524.0
31.557161854 574.0
31.583422419 532.0
31.609682984 515.0
31.635943550 499.0
31.662204115 502.0
31.688464680 509.0
31.714725246 535.0
31.740985811 545.0
31.767246376 551.0
31.793506942 539.0
31.819767507 486.0
31.846028072 509.0
31.872288638 537.0
31.898549203 522.0
31.924809769 498.0
31.951070334 505.0
31.977330899 506.0
32.003591465 499.0
32.029852030 475.0
32.056112595 552.0
32.082373161 483.0
32.108633726 498.0
32.134894291 498.0
32.161154857 524.0
32.187415422 481.0
32.213675987 497.0
32.239936553 500.0
32.266197118 465.0
32.292457683 513.0
32.318718249 486.0
32.344978814 469.0
32.371239380 478.0
32.397499945 530.0
32.423760510 506.0
32.450021076 531.0
32.476281641 505.0
32.502542206 536.0
32.528802772 549.0
32.555063337 532.0
32.581323902 528.0
32.607584468 539.0
32.633845033 589.0
32.660105598 515.0
32.686366164 495.0
32.712626729 476.0
32.738887295 518.0
32.765147860 510.0
32.791408425 521.0
32.817668991 547.0
32.843929556 476.0
32.870190121 482.0
32.896450687 515.0
32.922711252 498.0
32.948971817 486.0
32.975232383 542.0
33.001492948 553.0
33.027753513 549.0
33.054014079 555.0
33.080274644 574.0
33.106535209 520.0
33.132795775 503.0
33.159056340 540.0
33.185316906 543.0
33.211577471 543.0
33.237838036 514.0
33.264098602 533.0
33.290359167 469.0
33.316619732 507.0
33.342880298 478.0
33.369140863 465.0
33.395401428 524.0
33.421661994 515.0
33.447922559 506.0
33.474183124 484.0
33.500443690 495.0
33.526704255 500.0
33.552964820 511.0
33.579225386 478.0
33.605485951 473.0
33.631746517 442.0
33.658007082 554.0
33.684267647 467.0
33.710528213 467.0
33.736788778 502.0
33.763049343 459.0
33.789309909 515.0
33.815570474 503.0
33.841831039 553.0
33.868091605 534.0
33.894352170 559.0
33.920612735 582.0
33.946873301 602.0
33.973133866 579.0
33.999394432 568.0
34.025654997 575.0
34.051915562 665.0
34.078176128 597.0
34.104436693 682.0
34.130697258 751.0
34.156957824 843.0
34.183218389 833.0
34.209478954 773.0
34.235739520 789.0
34.262000085 859.0
34.288260650 799.0
34.314521216 807.0
34.340781781 829.0
34.367042346 879.0
34.393302912 903.0
34.419563477 849.0
34.445824043 866.0
34.472084608 960.0
34.498345173 954.0
34.524605739 921.0
34.550866304 992.0
34.577126869 1038.0
34.603387435 1018.0
34.629648000 954.0
34.655908565 1006.0
34.682169131 1031.0
34.708429696 976.0
34.734690261 1002.0
34.760950827 991.0
34.787211392 1020.0
34.813471958 981.0
34.839732523 998.0
34.865993088 993.0
34.892253654 996.0
34.918514219 918.0
34.944774784 857.0
34.971035350 939.0
34.997295915 880.0
35.023556480 942.0
35.049817046 920.0
35.076077611 930.0
35.102338176 916.0
35.128598742 830.0
35.154859307 856.0
35.181119872 837.0
35.207380438 876.0
35.233641003 869.0
35.259901569 826.0
35.286162134 851.0
35.312422699 777.0
35.338683265 789.0
35.364943830 779.0
35.391204395 798.0
35.417464961 762.0
35.443725526 753.0
35.469986091 754.0
35.496246657 753.0
35.522507222 817.0
35.548767787 737.0
35.575028353 730.0
35.601288918 713.0
35.627549484 730.0
35.653810049 675.0
35.680070614 678.0
35.706331180 703.0
35.732591745 712.0
35.758852310 675.0
35.785112876 707.0
35.811373441 705.0
35.837634006 686.0
35.863894572 699.0
35.890155137 663.0
35.916415702 679.0
35.942676268 663.0
35.968936833 648.0
35.995197398 705.0
36.021457964 658.0
36.047718529 637.0
36.073979095 668.0
36.100239660 632.0
36.126500225 628.0
36.152760791 624.0
36.179021356 567.0
36.205281921 623.0
36.231542487 621.0
36.257803052 642.0
36.284063617 653.0
36.310324183 634.0
36.336584748 604.0
36.362845313 632.0
36.389105879 604.0
36.415366444 595.0
36.441627010 606.0
36.467887575 610.0
36.494148140 619.0
36.520408706 600.0
36.546669271 603.0
36.572929836 596.0
36.599190402 572.0
36.625450967 626.0
36.651711532 572.0
36.677972098 562.0
36.704232663 575.0
36.730493228 486.0
36.756753794 507.0
36.783014359 540.0
36.809274924 556.0
36.835535490 551.0
36.861796055 501.0
36.888056621 567.0
36.914317186 528.0
36.940577751 510.0
36.966838317 521.0
36.993098882 536.0
37.019359447 503.0
37.045620013 565.0
37.071880578 545.0
37.098141143 478.0
37.124401709 517.0
37.150662274 478.0
37.176922839 540.0
37.203183405 548.0
37.229443970 516.0
37.255704535 567.0
37.281965101 512.0
37.308225666 590.0
37.334486232 539.0
37.360746797 592.0
37.387007362 546.0
37.413267928 580.0
37.439528493 606.0
37.465789058 553.0
37.492049624 611.0
37.518310189 587.0
37.544570754 596.0
37.570831320 516.0
37.597091885 590.0
37.623352450 630.0
37.649613016 617.0
37.675873581 596.0
37.702134147 577.0
37.728394712 564.0
37.754655277 609.0
37.780915843 590.0
37.807176408 614.0
37.833436973 622.0
37.859697539 560.0
37.885958104 614.0
37.912218669 605.0
37.938479235 602.0
37.964739800 603.0
37.991000365 684.0
38.017260931 647.0
38.043521496 666.0
38.069782061 638.0
38.096042627 716.0
38.122303192 635.0
38.148563758 667.0
38.174824323 636.0
38.201084888 643.0
38.227345454 646.0
38.253606019 626.0
38.279866584 607.0
38.306127150 636.0
38.332387715 617.0
38.358648280 600.0
38.384908846 620.0
38.411169411 595.0
38.437429976 619.0
38.463690542 588.0
38.489951107 593.0
38.516211673 639.0
38.542472238 565.0
38.568732803 668.0
38.594993369 608.0
38.621253934 628.0
38.647514499 624.0
38.673775065 613.0
38.700035630 625.0
38.726296195 633.0
38.752556761 625.0
38.778817326 637.0
38.805077891 634.0
38.831338457 581.0
38.857599022 618.0
38.883859587 603.0
38.910120153 646.0
38.936380718 628.0
38.962641284 681.0
38.988901849 653.0
39.015162414 636.0
39.041422980 629.0
39.067683545 649.0
39.093944110 619.0
39.120204676 622.0
39.146465241 615.0
39.172725806 623.0
39.198986372 615.0
39.225246937 646.0
39.251507502 632.0
39.277768068 634.0
39.304028633 621.0
39.330289199 666.0
39.356549764 625.0
39.382810329 620.0
39.409070895 664.0
39.435331460 630.0
39.461592025 604.0
39.487852591 629.0
39.514113156 687.0
39.540373721 668.0
39.566634287 677.0
39.592894852 627.0
39.619155417 667.0
39.645415983 691.0
39.671676548 679.0
39.697937113 662.0
39.724197679 654.0
39.750458244 662.0
39.776718810 638.0
39.802979375 654.0
39.829239940 693.0
39.855500506 675.0
39.881761071 655.0
39.908021636 651.0
39.934282202 641.0
39.960542767 666.0
39.986803332 661.0
40.013063898 700.0
40.039324463 732.0
40.065585028 719.0
40.091845594 717.0
40.118106159 741.0
40.144366725 763.0
40.170627290 813.0
40.196887855 768.0
40.223148421 843.0
40.249408986 840.0
40.275669551 930.0
40.301930117 916.0
40.328190682 953.0
40.354451247 1083.0
40.380711813 1107.0
40.406972378 1279.0
40.433232943 1353.0
40.459493509 1419.0
40.485754074 1464.0
40.512014639 1583.0
40.538275205 1627.0
40.564535770 1589.0
40.590796336 1701.0
40.617056901 1548.0
40.643317466 1458.0
40.669578032 1354.0
40.695838597 1288.0
40.722099162 1143.0
40.748359728 1007.0
40.774620293 954.0
40.800880858 883.0
40.827141424 795.0
40.853401989 761.0
40.879662554 707.0
40.905923120 665.0
40.932183685 658.0
40.958444251 630.0
40.984704816 614.0
41.010965381 577.0
41.037225947 587.0
41.063486512 541.0
41.089747077 552.0
41.116007643 586.0
41.142268208 513.0
41.168528773 551.0
41.194789339 538.0
41.221049904 533.0
41.247310469 530.0
41.273571035 519.0
41.299831600 493.0
41.326092165 532.0
41.352352731 524.0
41.378613296 455.0
41.404873862 437.0
41.431134427 466.0
41.457394992 544.0
41.483655558 526.0
41.509916123 538.0
41.536176688 552.0
41.562437254 511.0
41.588697819 500.0
41.614958384 492.0
41.641218950 448.0
41.667479515 434.0
41.693740080 504.0
41.720000646 498.0
41.746261211 513.0
41.772521776 482.0
41.798782342 532.0
41.825042907 517.0
41.851303473 504.0
41.877564038 466.0
41.903824603 490.0
41.930085169 467.0
41.956345734 420.0
41.982606299 466.0
42.008866865 440.0
42.035127430 446.0
42.061387995 458.0
42.087648561 391.0
42.113909126 454.0
42.140169691 513.0
42.166430257 485.0
42.192690822 417.0
42.218951388 483.0
42.245211953 425.0
42.271472518 442.0
42.297733084 405.0
42.323993649 442.0
42.350254214 413.0
42.376514780 407.0
42.402775345 437.0
42.429035910 371.0
42.455296476 406.0
42.481557041 396.0
42.507817606 429.0
42.534078172 382.0
42.560338737 410.0
42.586599302 394.0
42.612859868 411.0
42.639120433 455.0
42.665380999 415.0
42.691641564 386.0
42.717902129 401.0
42.744162695 400.0
42.770423260 395.0
42.796683825 410.0
42.822944391 405.0
42.849204956 389.0
42.875465521 395.0
42.901726087 380.0
42.927986652 377.0
42.954247217 365.0
42.980507783 409.0
43.006768348 395.0
43.033028914 410.0
43.059289479 389.0
43.085550044 426.0
43.111810610 432.0
43.138071175 431.0
43.164331740 408.0
43.190592306 366.0
43.216852871 408.0
43.243113436 409.0
43.269374002 408.0
43.295634567 403.0
43.321895132 386.0
43.348155698 376.0
43.374416263 423.0
43.400676828 428.0
43.426937394 388.0
43.453197959 409.0
43.479458525 386.0
43.505719090 440.0
43.531979655 375.0
43.558240221 422.0
43.584500786 427.0
43.610761351 425.0
43.637021917 422.0
43.663282482 402.0
43.689543047 397.0
43.715803613 403.0
43.742064178 397.0
43.768324743 358.0
43.794585309 416.0
43.820845874 441.0
43.847106440 417.0
43.873367005 411.0
43.899627570 390.0
43.925888136 407.0
43.952148701 399.0
43.978409266 388.0
44.004669832 431.0
44.030930397 377.0
44.057190962 411.0
44.083451528 399.0
44.109712093 441.0
44.135972658 422.0
44.162233224 449.0
44.188493789 424.0
44.214754354 410.0
44.241014920 441.0
44.267275485 377.0
44.293536051 434.0
44.319796616 379.0
44.346057181 392.0
44.372317747 395.0
44.398578312 398.0
44.424838877 394.0
44.451099443 446.0
44.477360008 378.0
44.503620573 431.0
44.529881139 396.0
44.556141704 450.0
44.582402269 411.0
44.608662835 401.0
44.634923400 382.0
44.661183966 405.0
44.687444531 388.0
44.713705096 400.0
44.739965662 416.0
44.766226227 431.0
44.792486792 436.0
44.818747358 413.0
44.845007923 435.0
44.871268488 439.0
44.897529054 434.0
44.923789619 430.0
44.950050184 423.0
44.976310750 441.0
45.002571315 429.0
45.028831880 407.0
45.055092446 428.0
45.081353011 431.0
45.107613577 428.0
45.133874142 442.0
45.160134707 453.0
45.186395273 440.0
45.212655838 454.0
45.238916403 444.0
45.265176969 486.0
45.291437534 456.0
45.317698099 464.0
45.343958665 475.0
45.370219230 431.0
45.396479795 490.0
45.422740361 496.0
45.449000926 538.0
45.475261492 471.0
45.501522057 502.0
45.527782622 466.0
45.554043188 527.0
45.580303753 500.0
45.606564318 472.0
45.632824884 503.0
45.659085449 486.0
45.685346014 544.0
45.711606580 534.0
45.737867145 499.0
45.764127710 508.0
45.790388276 469.0
45.816648841 490.0
45.842909406 503.0
45.869169972 505.0
45.895430537 510.0
45.921691103 500.0
45.947951668 530.0
45.974212233 503.0
46.000472799 530.0
46.026733364 503.0
46.052993929 482.0
46.079254495 510.0
46.105515060 481.0
46.131775625 508.0
46.158036191 477.0
46.184296756 529.0
46.210557321 503.0
46.236817887 500.0
46.263078452 472.0
46.289339017 455.0
46.315599583 492.0
46.341860148 465.0
46.368120714 468.0
46.394381279 461.0
46.420641844 475.0
46.446902410 475.0
46.473162975 465.0
46.499423540 524.0
46.525684106 456.0
46.551944671 440.0
46.578205236 448.0
46.604465802 455.0
46.630726367 461.0
46.656986932 471.0
46.683247498 435.0
46.709508063 465.0
46.735768629 404.0
46.762029194 440.0
46.788289759 484.0
46.814550325 415.0
46.840810890 480.0
46.867071455 460.0
46.893332021 448.0
46.919592586 433.0
46.945853151 477.0
46.972113717 452.0
46.998374282 465.0
47.024634847 446.0
47.050895413 455.0
47.077155978 481.0
47.103416543 463.0
47.129677109 469.0
47.155937674 512.0
47.182198240 481.0
47.208458805 474.0
47.234719370 440.0
47.260979936 496.0
47.287240501 461.0
47.313501066 463.0
47.339761632 468.0
47.366022197 494.0
47.392282762 435.0
47.418543328 443.0
47.444803893 481.0
47.471064458 416.0
47.497325024 386.0
47.523585589 427.0
47.549846155 410.0
47.576106720 455.0
47.602367285 410.0
47.628627851 437.0
47.654888416 439.0
47.681148981 406.0
47.707409547 426.0
47.733670112 411.0
47.759930677 407.0
47.786191243 418.0
47.812451808 409.0
47.838712373 433.0
47.864972939 400.0
47.891233504 440.0
47.917494069 392.0
47.943754635 429.0
47.970015200 424.0
47.996275766 369.0
48.022536331 415.0
48.048796896 435.0
48.075057462 427.0
48.101318027 355.0
48.127578592 411.0
48.153839158 407.0
48.180099723 397.0
48.206360288 399.0
48.232620854 370.0
48.258881419 334.0
48.285141984 360.0
48.311402550 417.0
48.337663115 387.0
48.363923681 397.0
48.390184246 364.0
48.416444811 401.0
48.442705377 379.0
48.468965942 371.0
48.495226507 395.0
48.521487073 418.0
48.547747638 376.0
48.574008203 398.0
48.600268769 363.0
48.626529334 421.0
48.652789899 381.0
48.679050465 384.0
48.705311030 332.0
48.731571595 392.0
48.757832161 347.0
48.784092726 413.0
48.810353292 392.0
48.836613857 389.0
48.862874422 390.0
48.889134988 404.0
48.915395553 403.0
48.941656118 394.0
48.967916684 393.0
48.994177249 408.0
49.020437814 375.0
49.046698380 388.0
49.072958945 352.0
49.099219510 342.0
49.125480076 385.0
49.151740641 378.0
49.178001207 383.0
49.204261772 391.0
49.230522337 331.0
49.256782903 320.0
49.283043468 400.0
49.309304033 379.0
49.335564599 366.0
49.361825164 395.0
49.388085729 350.0
49.414346295 351.0
49.440606860 371.0
49.466867425 391.0
49.493127991 350.0
49.519388556 395.0
49.545649121 366.0
49.571909687 378.0
49.598170252 352.0
49.624430818 365.0
49.650691383 354.0
49.676951948 375.0
49.703212514 387.0
49.729473079 371.0
49.755733644 355.0
49.781994210 385.0
49.808254775 373.0
49.834515340 345.0
49.860775906 347.0
49.887036471 392.0
49.913297036 357.0
49.939557602 384.0
49.965818167 367.0
49.992078733 337.0
50.018339298 322.0
50.044599863 367.0
50.070860429 379.0
50.097120994 327.0
50.123381559 342.0
50.149642125 332.0
50.175902690 356.0
50.202163255 336.0
50.228423821 357.0
50.254684386 305.0
50.280944951 341.0
50.307205517 348.0
50.333466082 326.0
50.359726647 328.0
50.385987213 348.0
50.412247778 304.0
50.438508344 313.0
50.464768909 348.0
50.491029474 357.0
50.517290040 363.0
50.543550605 318.0
50.569811170 359.0
50.596071736 352.0
50.622332301 332.0
50.648592866 343.0
50.674853432 379.0
50.701113997 336.0
50.727374562 359.0
50.753635128 327.0
50.779895693 347.0
50.806156258 337.0
50.832416824 356.0
50.858677389 314.0
50.884937955 358.0
50.911198520 324.0
50.937459085 336.0
50.963719651 352.0
50.989980216 346.0
51.016240781 327.0
51.042501347 339.0
51.068761912 355.0
51.095022477 346.0
51.121283043 313.0
51.147543608 337.0
51.173804173 329.0
51.200064739 350.0
51.226325304 349.0
51.252585870 361.0
51.278846435 313.0
51.305107000 346.0
51.331367566 353.0
51.357628131 369.0
51.383888696 361.0
51.410149262 372.0
51.436409827 348.0
51.462670392 311.0
51.488930958 332.0
51.515191523 345.0
51.541452088 334.0
51.567712654 330.0
51.593973219 344.0
51.620233784 326.0
51.646494350 321.0
51.672754915 319.0
51.699015481 352.0
51.725276046 331.0
51.751536611 360.0
51.777797177 338.0
51.804057742 358.0
51.830318307 382.0
51.856578873 350.0
51.882839438 351.0
51.909100003 326.0
51.935360569 373.0
51.961621134 356.0
51.987881699 375.0
52.014142265 368.0
52.040402830 343.0
52.066663396 366.0
52.092923961 390.0
52.119184526 391.0
52.145445092 402.0
52.171705657 369.0
52.197966222 366.0
52.224226788 365.0
52.250487353 340.0
52.276747918 363.0
52.303008484 355.0
52.329269049 383.0
52.355529614 395.0
52.381790180 381.0
52.408050745 385.0
52.434311310 379.0
52.460571876 429.0
52.486832441 439.0
52.513093007 408.0
52.539353572 409.0
52.565614137 434.0
52.591874703 422.0
52.618135268 419.0
52.644395833 424.0
52.670656399 410.0
52.696916964 422.0
52.723177529 443.0
52.749438095 433.0
52.775698660 405.0
52.801959225 461.0
52.828219791 456.0
52.854480356 490.0
52.880740922 473.0
52.907001487 520.0
52.933262052 509.0
52.959522618 577.0
52.985783183 572.0
53.012043748 600.0
53.038304314 709.0
53.064564879 689.0
53.090825444 702.0
53.117086010 704.0
53.143346575 722.0
53.169607140 731.0
53.195867706 719.0
53.222128271 621.0
53.248388836 630.0
53.274649402 617.0
53.300909967 596.0
53.327170533 569.0
53.353431098 534.0
53.379691663 486.0
53.405952229 508.0
53.432212794 446.0
53.458473359 394.0
53.484733925 409.0
53.510994490 403.0
53.537255055 366.0
53.563515621 375.0
53.589776186 361.0
53.616036751 323.0
53.642297317 315.0
53.668557882 324.0
53.694818448 347.0
53.721079013 353.0
53.747339578 328.0
53.773600144 343.0
53.799860709 306.0
53.826121274 318.0
53.852381840 339.0
53.878642405 332.0
53.904902970 368.0
53.931163536 350.0
53.957424101 316.0
53.983684666 335.0
54.009945232 326.0
54.036205797 335.0
54.062466362 299.0
54.088726928 297.0
54.114987493 306.0
54.141248059 324.0
54.167508624 330.0
54.193769189 322.0
54.220029755 304.0
54.246290320 306.0
54.272550885 284.0
54.298811451 311.0
54.325072016 302.0
54.351332581 308.0
54.377593147 300.0
54.403853712 347.0
54.430114277 284.0
54.456374843 286.0
54.482635408 306.0
54.508895973 264.0
54.535156539 327.0
54.561417104 286.0
54.587677670 329.0
54.613938235 284.0
54.640198800 308.0
54.666459366 257.0
54.692719931 289.0
54.718980496 280.0
54.745241062 276.0
54.771501627 236.0
54.797762192 266.0
54.824022758 290.0
54.850283323 272.0
54.876543888 300.0
54.902804454 259.0
54.929065019 279.0
54.955325585 284.0
54.981586150 289.0
55.007846715 243.0
55.034107281 275.0
55.060367846 264.0
55.086628411 277.0
55.112888977 229.0
55.139149542 246.0
55.165410107 270.0
55.191670673 247.0
55.217931238 265.0
55.244191803 248.0
55.270452369 289.0
55.296712934 272.0
55.322973499 303.0
55.349234065 259.0
55.375494630 317.0
55.401755196 265.0
55.428015761 283.0
55.454276326 259.0
55.480536892 288.0
55.506797457 286.0
55.533058022 250.0
55.559318588 289.0
55.585579153 323.0
55.611839718 273.0
55.638100284 299.0
55.664360849 291.0
55.690621414 289.0
55.716881980 287.0
55.743142545 293.0
55.769403111 327.0
55.795663676 293.0
55.821924241 300.0
55.848184807 305.0
55.874445372 302.0
55.900705937 292.0
55.926966503 302.0
55.953227068 298.0
55.979487633 286.0
56.005748199 292.0
56.032008764 289.0
56.058269329 307.0
56.084529895 267.0
56.110790460 242.0
56.137051025 278.0
56.163311591 272.0
56.189572156 272.0
56.215832722 268.0
56.242093287 276.0
56.268353852 285.0
56.294614418 290.0
56.320874983 277.0
56.347135548 277.0
56.373396114 290.0
56.399656679 280.0
56.425917244 255.0
56.452177810 267.0
56.478438375 282.0
56.504698940 283.0
56.530959506 242.0
56.557220071 280.0
56.583480637 240.0
56.609741202 270.0
56.636001767 288.0
56.662262333 274.0
56.688522898 264.0
56.714783463 271.0
56.741044029 238.0
56.767304594 278.0
56.793565159 248.0
56.819825725 278.0
56.846086290 265.0
56.872346855 261.0
56.898607421 284.0
56.924867986 294.0
56.951128551 266.0
56.977389117 290.0
57.003649682 285.0
57.029910248 235.0
57.056170813 276.0
57.082431378 306.0
57.108691944 295.0
57.134952509 274.0
57.161213074 274.0
57.187473640 303.0
57.213734205 303.0
57.239994770 288.0
57.266255336 289.0
57.292515901 297.0
57.318776466 320.0
57.345037032 305.0
57.371297597 274.0
57.397558163 324.0
57.423818728 322.0
57.450079293 321.0
57.476339859 352.0
57.502600424 324.0
57.528860989 317.0
57.555121555 351.0
57.581382120 323.0
57.607642685 312.0
57.633903251 332.0
57.660163816 309.0
57.686424381 316.0
57.712684947 322.0
57.738945512 294.0
57.765206077 278.0
57.791466643 261.0
57.817727208 265.0
57.843987774 289.0
57.870248339 279.0
57.896508904 275.0
57.922769470 256.0
57.949030035 241.0
57.975290600 257.0
58.001551166 262.0
58.027811731 274.0
58.054072296 245.0
58.080332862 282.0
58.106593427 292.0
58.132853992 269.0
58.159114558 281.0
58.185375123 256.0
58.211635689 237.0
58.237896254 257.0
58.264156819 302.0
58.290417385 256.0
58.316677950 261.0
58.342938515 288.0
58.369199081 266.0
58.395459646 260.0
58.421720211 302.0
58.447980777 273.0
58.474241342 276.0
58.500501907 281.0
58.526762473 339.0
58.553023038 300.0
58.579283603 308.0
58.605544169 313.0
58.631804734 288.0
58.658065300 288.0
58.684325865 291.0
58.710586430 325.0
58.736846996 283.0
58.763107561 301.0
58.789368126 263.0
58.815628692 335.0
58.841889257 275.0
58.868149822 278.0
58.894410388 312.0
58.920670953 308.0
58.946931518 311.0
58.973192084 306.0
58.999452649 315.0
59.025713214 325.0
59.051973780 325.0
59.078234345 302.0
59.104494911 292.0
59.130755476 347.0
59.157016041 302.0
59.183276607 319.0
59.209537172 316.0
59.235797737 334.0
59.262058303 342.0
59.288318868 294.0
59.314579433 298.0
59.340839999 322.0
59.367100564 294.0
59.393361129 300.0
59.419621695 304.0
59.445882260 331.0
59.472142826 319.0
59.498403391 304.0
59.524663956 301.0
59.550924522 287.0
59.577185087 303.0
59.603445652 276.0
59.629706218 294.0
59.655966783 292.0
59.682227348 305.0
59.708487914 256.0
59.734748479 255.0
59.761009044 290.0
59.787269610 255.0
59.813530175 257.0
59.839790740 284.0
59.866051306 267.0
59.892311871 284.0
59.918572437 245.0
59.944833002 278.0
59.971093567 268.0
59.997354133 278.0
60.023614698 280.0
60.049875263 273.0
60.076135829 304.0
60.102396394 288.0
60.128656959 266.0
60.154917525 320.0
60.181178090 301.0
60.207438655 254.0
60.233699221 286.0
60.259959786 294.0
60.286220352 306.0
60.312480917 319.0
60.338741482 328.0
60.365002048 312.0
60.391262613 313.0
60.417523178 331.0
60.443783744 347.0
60.470044309 349.0
60.496304874 376.0
60.522565440 347.0
60.548826005 365.0
60.575086570 379.0
60.601347136 453.0
60.627607701 470.0
60.653868266 448.0
60.680128832 488.0
60.706389397 510.0
60.732649963 514.0
60.758910528 518.0
60.785171093 573.0
60.811431659 584.0
60.837692224 564.0
60.863952789 580.0
60.890213355 620.0
60.916473920 589.0
60.942734485 608.0
60.968995051 572.0
60.995255616 576.0
61.021516181 583.0
61.047776747 557.0
61.074037312 590.0
61.100297878 579.0
61.126558443 477.0
61.152819008 461.0
61.179079574 460.0
61.205340139 494.0
61.231600704 407.0
61.257861270 422.0
61.284121835 428.0
61.310382400 445.0
61.336642966 418.0
61.362903531 392.0
61.389164096 383.0
61.415424662 422.0
61.441685227 371.0
61.467945792 374.0
61.494206358 379.0
61.520466923 365.0
61.546727489 386.0
61.572988054 360.0
61.599248619 388.0
61.625509185 383.0
61.651769750 370.0
61.678030315 388.0
61.704290881 384.0
61.730551446 336.0
61.756812011 404.0
61.783072577 390.0
61.809333142 396.0
61.835593707 449.0
61.861854273 452.0
61.888114838 408.0
61.914375404 423.0
61.940635969 438.0
61.966896534 475.0
61.993157100 490.0
62.019417665 458.0
62.045678230 451.0
62.071938796 516.0
62.098199361 473.0
62.124459926 514.0
62.150720492 482.0
62.176981057 478.0
62.203241622 492.0
62.229502188 450.0
62.255762753 465.0
62.282023318 455.0
62.308283884 422.0
62.334544449 465.0
62.360805015 475.0
62.387065580 454.0
62.413326145 424.0
62.439586711 431.0
62.465847276 400.0
62.492107841 414.0
62.518368407 382.0
62.544628972 404.0
62.570889537 353.0
62.597150103 390.0
62.623410668 367.0
62.649671233 371.0
62.675931799 413.0
62.702192364 344.0
62.728452930 352.0
62.754713495 323.0
62.780974060 299.0
62.807234626 311.0
62.833495191 299.0
62.859755756 298.0
62.886016322 302.0
62.912276887 293.0
62.938537452 293.0
62.964798018 264.0
62.991058583 273.0
63.017319148 259.0
63.043579714 274.0
63.069840279 287.0
63.096100844 243.0
63.122361410 257.0
63.148621975 281.0
63.174882541 264.0
63.201143106 254.0
63.227403671 270.0
63.253664237 270.0
63.279924802 276.0
63.306185367 277.0
63.332445933 267.0
63.358706498 272.0
63.384967063 285.0
63.411227629 270.0
63.437488194 269.0
63.463748759 266.0
63.490009325 278.0
63.516269890 289.0
63.542530455 301.0
63.568791021 279.0
63.595051586 325.0
63.621312152 332.0
63.647572717 351.0
63.673833282 407.0
63.700093848 363.0
63.726354413 387.0
63.752614978 418.0
63.778875544 433.0
63.805136109 443.0
63.831396674 401.0
63.857657240 414.0
63.883917805 391.0
63.910178370 442.0
63.936438936 415.0
63.962699501 400.0
63.988960067 362.0
64.015220632 375.0
64.041481197 356.0
64.067741763 354.0
64.094002328 355.0
64.120262893 348.0
64.146523459 340.0
64.172784024 333.0
64.199044589 340.0
64.225305155 360.0
64.251565720 337.0
64.277826285 371.0
64.304086851 323.0
64.330347416 373.0
64.356607981 342.0
64.382868547 321.0
64.409129112 331.0
64.435389678 343.0
64.461650243 301.0
64.487910808 328.0
64.514171374 282.0
64.540431939 298.0
64.566692504 315.0
64.592953070 307.0
64.619213635 311.0
64.645474200 270.0
64.671734766 252.0
64.697995331 239.0
64.724255896 230.0
64.750516462 236.0
64.776777027 257.0
64.803037593 277.0
64.829298158 223.0
64.855558723 225.0
64.881819289 271.0
64.908079854 230.0
64.934340419 240.0
64.960600985 242.0
64.986861550 239.0
