5.007730280 1690.0
5.033990845 1716.0
5.060251411 1746.0
5.086511976 1705.0
5.112772541 1658.0
5.139033107 1697.0
5.165293672 1650.0
5.191554237 1688.0
5.217814803 1612.0
5.244075368 1655.0
5.270335934 1597.0
5.296596499 1637.0
5.322857064 1641.0
5.349117630 1551.0
5.375378195 1590.0
5.401638760 1635.0
5.427899326 1593.0
5.454159891 1644.0
5.480420456 1603.0
5.506681022 1635.0
5.532941587 1635.0
5.559202152 1565.0
5.585462718 1622.0
5.611723283 1651.0
5.637983849 1551.0
5.664244414 1533.0
5.690504979 1568.0
5.716765545 1535.0
5.743026110 1618.0
5.769286675 1597.0
5.795547241 1519.0
5.821807806 1516.0
5.848068371 1599.0
5.874328937 1556.0
5.900589502 1537.0
5.926850067 1508.0
5.953110633 1446.0
5.979371198 1540.0
6.005631763 1556.0
6.031892329 1611.0
6.058152894 1509.0
6.084413460 1428.0
6.110674025 1593.0
6.136934590 1575.0
6.163195156 1603.0
6.189455721 1541.0
6.215716286 1519.0
6.241976852 1545.0
6.268237417 1549.0
6.294497982 1494.0
6.320758548 1454.0
6.347019113 1582.0
6.373279678 1532.0
6.399540244 1426.0
6.425800809 1588.0
6.452061375 1482.0
6.478321940 1483.0
6.504582505 1469.0
6.530843071 1427.0
6.557103636 1475.0
6.583364201 1342.0
6.609624767 1436.0
6.635885332 1521.0
6.662145897 1438.0
6.688406463 1363.0
6.714667028 1373.0
6.740927593 1494.0
6.767188159 1423.0
6.793448724 1426.0
6.819709289 1392.0
6.845969855 1444.0
6.872230420 1418.0
6.898490986 1396.0
6.924751551 1388.0
6.951012116 1377.0
6.977272682 1430.0
7.003533247 1470.0
7.029793812 1415.0
7.056054378 1458.0
7.082314943 1410.0
7.108575508 1367.0
7.134836074 1372.0
7.161096639 1445.0
7.187357204 1432.0
7.213617770 1336.0
7.239878335 1383.0
7.266138900 1375.0
7.292399466 1346.0
7.318660031 1346.0
7.344920597 1415.0
7.371181162 1378.0
7.397441727 1393.0
7.423702293 1399.0
7.449962858 1465.0
7.476223423 1402.0
7.502483989 1304.0
7.528744554 1347.0
7.555005119 1320.0
7.581265685 1415.0
7.607526250 1336.0
7.633786815 1307.0
7.660047381 1318.0
7.686307946 1381.0
7.712568512 1383.0
7.738829077 1306.0
7.765089642 1428.0
7.791350208 1342.0
7.817610773 1327.0
7.843871338 1419.0
7.870131904 1390.0
7.896392469 1389.0
7.922653034 1345.0
7.948913600 1344.0
7.975174165 1296.0
8.001434730 1339.0
8.027695296 1249.0
8.053955861 1348.0
8.080216426 1384.0
8.106476992 1382.0
8.132737557 1282.0
8.158998123 1353.0
8.185258688 1322.0
8.211519253 1391.0
8.237779819 1294.0
8.264040384 1390.0
8.290300949 1332.0
8.316561515 1336.0
8.342822080 1379.0
8.369082645 1306.0
8.395343211 1338.0
8.421603776 1346.0
8.447864341 1371.0
8.474124907 1363.0
8.500385472 1379.0
8.526646038 1303.0
8.552906603 1390.0
8.579167168 1370.0
8.605427734 1328.0
8.631688299 1281.0
8.657948864 1289.0
8.684209430 1368.0
8.710469995 1374.0
8.736730560 1296.0
8.762991126 1384.0
8.789251691 1344.0
8.815512256 1280.0
8.841772822 1374.0
8.868033387 1293.0
8.894293952 1238.0
8.920554518 1310.0
8.946815083 1398.0
8.973075649 1386.0
8.999336214 1325.0
9.025596779 1339.0
9.051857345 1355.0
9.078117910 1393.0
9.104378475 1303.0
9.130639041 1334.0
9.156899606 1363.0
9.183160171 1401.0
9.209420737 1406.0
9.235681302 1380.0
9.261941867 1312.0
9.288202433 1438.0
9.314462998 1362.0
9.340723564 1427.0
9.366984129 1412.0
9.393244694 1423.0
9.419505260 1423.0
9.445765825 1428.0
9.472026390 1338.0
9.498286956 1360.0
9.524547521 1387.0
9.550808086 1379.0
9.577068652 1384.0
9.603329217 1485.0
9.629589782 1424.0
9.655850348 1431.0
9.682110913 1402.0
9.708371478 1430.0
9.734632044 1449.0
9.760892609 1481.0
9.787153175 1480.0
9.813413740 1438.0
9.839674305 1482.0
9.865934871 1485.0
9.892195436 1536.0
9.918456001 1526.0
9.944716567 1523.0
9.970977132 1464.0
9.997237697 1506.0
10.023498263 1543.0
10.049758828 1498.0
10.076019393 1562.0
10.102279959 1532.0
10.128540524 1547.0
10.154801090 1644.0
10.181061655 1630.0
10.207322220 1533.0
10.233582786 1550.0
10.259843351 1522.0
10.286103916 1627.0
10.312364482 1605.0
10.338625047 1567.0
10.364885612 1565.0
10.391146178 1618.0
10.417406743 1517.0
10.443667308 1614.0
10.469927874 1610.0
10.496188439 1690.0
10.522449004 1542.0
10.548709570 1642.0
10.574970135 1550.0
10.601230701 1675.0
10.627491266 1719.0
10.653751831 1714.0
10.680012397 1663.0
10.706272962 1609.0
10.732533527 1567.0
10.758794093 1630.0
10.785054658 1602.0
10.811315223 1639.0
10.837575789 1716.0
10.863836354 1688.0
10.890096919 1688.0
10.916357485 1680.0
10.942618050 1731.0
10.968878616 1686.0
10.995139181 1662.0
11.021399746 1783.0
11.047660312 1751.0
11.073920877 1663.0
11.100181442 1664.0
11.126442008 1751.0
11.152702573 1698.0
11.178963138 1596.0
11.205223704 1664.0
11.231484269 1717.0
11.257744834 1666.0
11.284005400 1804.0
11.310265965 1742.0
11.336526530 1716.0
11.362787096 1762.0
11.389047661 1676.0
11.415308227 1734.0
11.441568792 1692.0
11.467829357 1653.0
11.494089923 1733.0
11.520350488 1646.0
11.546611053 1684.0
11.572871619 1633.0
11.599132184 1634.0
11.625392749 1657.0
11.651653315 1690.0
11.677913880 1643.0
11.704174445 1705.0
11.730435011 1647.0
11.756695576 1628.0
11.782956141 1599.0
11.809216707 1639.0
11.835477272 1662.0
11.861737838 1589.0
11.887998403 1580.0
11.914258968 1515.0
11.940519534 1623.0
11.966780099 1594.0
11.993040664 1610.0
12.019301230 1505.0
12.045561795 1509.0
12.071822360 1565.0
12.098082926 1454.0
12.124343491 1413.0
12.150604056 1415.0
12.176864622 1512.0
12.203125187 1442.0
12.229385753 1475.0
12.255646318 1412.0
12.281906883 1445.0
12.308167449 1445.0
12.334428014 1421.0
12.360688579 1372.0
12.386949145 1374.0
12.413209710 1416.0
12.439470275 1336.0
12.465730841 1355.0
12.491991406 1411.0
12.518251971 1303.0
12.544512537 1248.0
12.570773102 1379.0
12.597033667 1345.0
12.623294233 1288.0
12.649554798 1304.0
12.675815364 1347.0
12.702075929 1246.0
12.728336494 1273.0
12.754597060 1267.0
12.780857625 1267.0
12.807118190 1337.0
12.833378756 1186.0
12.859639321 1208.0
12.885899886 1191.0
12.912160452 1234.0
12.938421017 1219.0
12.964681582 1201.0
12.990942148 1235.0
13.017202713 1154.0
13.043463279 1159.0
13.069723844 1073.0
13.095984409 1123.0
13.122244975 1113.0
13.148505540 1050.0
13.174766105 1055.0
13.201026671 1078.0
13.227287236 1079.0
13.253547801 1092.0
13.279808367 1099.0
13.306068932 1090.0
13.332329497 1086.0
13.358590063 1115.0
13.384850628 1038.0
13.411111193 1078.0
13.437371759 1040.0
13.463632324 1116.0
13.489892890 976.0
13.516153455 1039.0
13.542414020 1078.0
13.568674586 1036.0
13.594935151 1000.0
13.621195716 990.0
13.647456282 968.0
13.673716847 980.0
13.699977412 992.0
13.726237978 955.0
13.752498543 948.0
13.778759108 930.0
13.805019674 979.0
13.831280239 1010.0
13.857540805 1004.0
13.883801370 919.0
13.910061935 979.0
13.936322501 954.0
13.962583066 941.0
13.988843631 928.0
14.015104197 920.0
14.041364762 920.0
14.067625327 927.0
14.093885893 918.0
14.120146458 887.0
14.146407023 900.0
14.172667589 945.0
14.198928154 939.0
14.225188719 906.0
14.251449285 945.0
14.277709850 877.0
14.303970416 854.0
14.330230981 889.0
14.356491546 885.0
14.382752112 877.0
14.409012677 955.0
14.435273242 843.0
14.461533808 866.0
14.487794373 929.0
14.514054938 887.0
14.540315504 830.0
14.566576069 872.0
14.592836634 857.0
14.619097200 874.0
14.645357765 889.0
14.671618331 833.0
14.697878896 851.0
14.724139461 839.0
14.750400027 895.0
14.776660592 834.0
14.802921157 866.0
14.829181723 803.0
14.855442288 845.0
14.881702853 815.0
14.907963419 819.0
14.934223984 837.0
14.960484549 774.0
14.986745115 792.0
15.013005680 854.0
15.039266245 841.0
15.065526811 788.0
15.091787376 805.0
15.118047942 800.0
15.144308507 833.0
15.170569072 770.0
15.196829638 828.0
15.223090203 777.0
15.249350768 828.0
15.275611334 792.0
15.301871899 836.0
15.328132464 772.0
15.354393030 784.0
15.380653595 775.0
15.406914160 847.0
15.433174726 821.0
15.459435291 814.0
15.485695857 804.0
15.511956422 788.0
15.538216987 774.0
15.564477553 800.0
15.590738118 738.0
15.616998683 724.0
15.643259249 797.0
15.669519814 791.0
15.695780379 730.0
15.722040945 817.0
15.748301510 783.0
15.774562075 777.0
15.800822641 838.0
15.827083206 769.0
15.853343771 751.0
15.879604337 797.0
15.905864902 755.0
15.932125468 771.0
15.958386033 753.0
15.984646598 770.0
16.010907164 701.0
16.037167729 743.0
16.063428294 769.0
16.089688860 735.0
16.115949425 784.0
16.142209990 750.0
16.168470556 718.0
16.194731121 748.0
16.220991686 764.0
16.247252252 732.0
16.273512817 757.0
16.299773382 721.0
16.326033948 730.0
16.352294513 755.0
16.378555079 802.0
16.404815644 719.0
16.431076209 754.0
16.457336775 759.0
16.483597340 729.0
16.509857905 702.0
16.536118471 694.0
16.562379036 711.0
16.588639601 710.0
16.614900167 709.0
16.641160732 717.0
16.667421297 747.0
16.693681863 691.0
16.719942428 754.0
16.746202994 753.0
16.772463559 746.0
16.798724124 731.0
16.824984690 738.0
16.851245255 736.0
16.877505820 749.0
16.903766386 703.0
16.930026951 763.0
16.956287516 671.0
16.982548082 671.0
17.008808647 747.0
17.035069212 730.0
17.061329778 737.0
17.087590343 701.0
17.113850908 712.0
17.140111474 718.0
17.166372039 684.0
17.192632605 764.0
17.218893170 764.0
17.245153735 701.0
17.271414301 722.0
17.297674866 723.0
17.323935431 685.0
17.350195997 688.0
17.376456562 735.0
17.402717127 683.0
17.428977693 678.0
17.455238258 697.0
17.481498823 731.0
17.507759389 727.0
17.534019954 730.0
17.560280520 665.0
17.586541085 692.0
17.612801650 722.0
17.639062216 725.0
17.665322781 716.0
17.691583346 699.0
17.717843912 720.0
17.744104477 715.0
17.770365042 698.0
17.796625608 681.0
17.822886173 744.0
17.849146738 670.0
17.875407304 730.0
17.901667869 709.0
17.927928434 699.0
17.954189000 711.0
17.980449565 703.0
18.006710131 735.0
18.032970696 700.0
18.059231261 736.0
18.085491827 752.0
18.111752392 721.0
18.138012957 699.0
18.164273523 727.0
18.190534088 750.0
18.216794653 720.0
18.243055219 708.0
18.269315784 710.0
18.295576349 721.0
18.321836915 681.0
18.348097480 728.0
18.374358046 714.0
18.400618611 728.0
18.426879176 702.0
18.453139742 719.0
18.479400307 735.0
18.505660872 707.0
18.531921438 699.0
18.558182003 694.0
18.584442568 765.0
18.610703134 761.0
18.636963699 744.0
18.663224264 666.0
18.689484830 696.0
18.715745395 712.0
18.742005960 702.0
18.768266526 691.0
18.794527091 691.0
18.820787657 691.0
18.847048222 743.0
18.873308787 722.0
18.899569353 726.0
18.925829918 769.0
18.952090483 764.0
18.978351049 746.0
19.004611614 779.0
19.030872179 703.0
19.057132745 716.0
19.083393310 711.0
19.109653875 768.0
19.135914441 701.0
19.162175006 760.0
19.188435572 762.0
19.214696137 700.0
19.240956702 733.0
19.267217268 729.0
19.293477833 774.0
19.319738398 704.0
19.345998964 697.0
19.372259529 703.0
19.398520094 769.0
19.424780660 713.0
19.451041225 715.0
19.477301790 734.0
19.503562356 721.0
19.529822921 730.0
19.556083486 740.0
19.582344052 737.0
19.608604617 771.0
19.634865183 730.0
19.661125748 728.0
19.687386313 766.0
19.713646879 768.0
19.739907444 744.0
19.766168009 739.0
19.792428575 698.0
19.818689140 766.0
19.844949705 756.0
19.871210271 750.0
19.897470836 740.0
19.923731401 737.0
19.949991967 796.0
19.976252532 722.0
20.002513098 698.0
20.028773663 775.0
20.055034228 790.0
20.081294794 752.0
20.107555359 745.0
20.133815924 753.0
20.160076490 791.0
20.186337055 744.0
20.212597620 739.0
20.238858186 719.0
20.265118751 759.0
20.291379316 768.0
20.317639882 724.0
20.343900447 779.0
20.370161012 765.0
20.396421578 771.0
20.422682143 746.0
20.448942709 756.0
20.475203274 792.0
20.501463839 758.0
20.527724405 797.0
20.553984970 785.0
20.580245535 785.0
20.606506101 783.0
20.632766666 816.0
20.659027231 769.0
20.685287797 822.0
20.711548362 789.0
20.737808927 801.0
20.764069493 778.0
20.790330058 752.0
20.816590623 777.0
20.842851189 793.0
20.869111754 818.0
20.895372320 791.0
20.921632885 795.0
20.947893450 836.0
20.974154016 820.0
21.000414581 814.0
21.026675146 834.0
21.052935712 831.0
21.079196277 775.0
21.105456842 848.0
21.131717408 848.0
21.157977973 818.0
21.184238538 875.0
21.210499104 825.0
21.236759669 867.0
21.263020235 813.0
21.289280800 890.0
21.315541365 819.0
21.341801931 897.0
21.368062496 863.0
21.394323061 845.0
21.420583627 841.0
21.446844192 888.0
21.473104757 911.0
21.499365323 916.0
21.525625888 913.0
21.551886453 892.0
21.578147019 921.0
21.604407584 919.0
21.630668149 957.0
21.656928715 930.0
21.683189280 964.0
21.709449846 931.0
21.735710411 908.0
21.761970976 895.0
21.788231542 952.0
21.814492107 919.0
21.840752672 880.0
21.867013238 898.0
21.893273803 925.0
21.919534368 902.0
21.945794934 986.0
21.972055499 957.0
21.998316064 983.0
22.024576630 932.0
22.050837195 999.0
22.077097761 1004.0
22.103358326 934.0
22.129618891 1039.0
22.155879457 996.0
22.182140022 1018.0
22.208400587 1020.0
22.234661153 989.0
22.260921718 1003.0
22.287182283 1001.0
22.313442849 964.0
22.339703414 1025.0
22.365963979 1031.0
22.392224545 1012.0
22.418485110 1061.0
22.444745675 1063.0
22.471006241 1035.0
22.497266806 980.0
22.523527372 1042.0
22.549787937 1012.0
22.576048502 1017.0
22.602309068 1036.0
22.628569633 1054.0
22.654830198 1076.0
22.681090764 1103.0
22.707351329 1025.0
22.733611894 1130.0
22.759872460 1043.0
22.786133025 1052.0
22.812393590 1145.0
22.838654156 996.0
22.864914721 1114.0
22.891175287 1043.0
22.917435852 1062.0
22.943696417 1057.0
22.969956983 1119.0
22.996217548 1020.0
23.022478113 1057.0
23.048738679 1067.0
23.074999244 1057.0
23.101259809 1117.0
23.127520375 1057.0
23.153780940 1103.0
23.180041505 995.0
23.206302071 1100.0
23.232562636 1038.0
23.258823201 1026.0
23.285083767 1112.0
23.311344332 1014.0
23.337604898 1069.0
23.363865463 1051.0
23.390126028 1095.0
23.416386594 1042.0
23.442647159 1063.0
23.468907724 1076.0
23.495168290 1026.0
23.521428855 1106.0
23.547689420 1073.0
23.573949986 1056.0
23.600210551 1075.0
23.626471116 1005.0
23.652731682 1048.0
23.678992247 983.0
23.705252813 1024.0
23.731513378 1037.0
23.757773943 1080.0
23.784034509 964.0
23.810295074 1000.0
23.836555639 1022.0
23.862816205 957.0
23.889076770 955.0
23.915337335 961.0
23.941597901 952.0
23.967858466 991.0
23.994119031 920.0
24.020379597 920.0
24.046640162 962.0
24.072900727 961.0
24.099161293 980.0
24.125421858 944.0
24.151682424 892.0
24.177942989 905.0
24.204203554 1009.0
24.230464120 937.0
24.256724685 902.0
24.282985250 903.0
24.309245816 947.0
24.335506381 876.0
24.361766946 908.0
24.388027512 853.0
24.414288077 877.0
24.440548642 923.0
24.466809208 954.0
24.493069773 873.0
24.519330338 847.0
24.545590904 895.0
24.571851469 815.0
24.598112035 901.0
24.624372600 924.0
24.650633165 854.0
24.676893731 856.0
24.703154296 924.0
24.729414861 908.0
24.755675427 841.0
24.781935992 852.0
24.808196557 896.0
24.834457123 913.0
24.860717688 815.0
24.886978253 888.0
24.913238819 904.0
24.939499384 875.0
24.965759950 833.0
24.992020515 859.0
25.018281080 878.0
25.044541646 908.0
25.070802211 834.0
25.097062776 858.0
25.123323342 824.0
25.149583907 807.0
25.175844472 843.0
25.202105038 856.0
25.228365603 790.0
25.254626168 863.0
25.280886734 879.0
25.307147299 840.0
25.333407864 820.0
25.359668430 872.0
25.385928995 867.0
25.412189561 818.0
25.438450126 843.0
25.464710691 829.0
25.490971257 851.0
25.517231822 838.0
25.543492387 834.0
25.569752953 811.0
25.596013518 816.0
25.622274083 844.0
25.648534649 883.0
25.674795214 846.0
25.701055779 802.0
25.727316345 825.0
25.753576910 820.0
25.779837476 855.0
25.806098041 840.0
25.832358606 816.0
25.858619172 867.0
25.884879737 855.0
25.911140302 848.0
25.937400868 833.0
25.963661433 831.0
25.989921998 877.0
26.016182564 846.0
26.042443129 896.0
26.068703694 877.0
26.094964260 855.0
26.121224825 868.0
26.147485390 878.0
26.173745956 889.0
26.200006521 841.0
26.226267087 870.0
26.252527652 842.0
26.278788217 834.0
26.305048783 877.0
26.331309348 877.0
26.357569913 816.0
26.383830479 851.0
26.410091044 918.0
26.436351609 843.0
26.462612175 900.0
26.488872740 864.0
26.515133305 821.0
26.541393871 828.0
26.567654436 864.0
26.593915002 843.0
26.620175567 895.0
26.646436132 868.0
26.672696698 869.0
26.698957263 857.0
26.725217828 900.0
26.751478394 817.0
26.777738959 894.0
26.803999524 873.0
26.830260090 871.0
26.856520655 843.0
26.882781220 871.0
26.909041786 890.0
26.935302351 872.0
26.961562916 861.0
26.987823482 880.0
27.014084047 861.0
27.040344613 887.0
27.066605178 870.0
27.092865743 858.0
27.119126309 899.0
27.145386874 874.0
27.171647439 869.0
27.197908005 856.0
27.224168570 951.0
27.250429135 879.0
27.276689701 903.0
27.302950266 886.0
27.329210831 910.0
27.355471397 917.0
27.381731962 874.0
27.407992528 921.0
27.434253093 921.0
27.460513658 938.0
27.486774224 886.0
27.513034789 882.0
27.539295354 886.0
27.565555920 869.0
27.591816485 899.0
27.618077050 891.0
27.644337616 897.0
27.670598181 933.0
27.696858746 909.0
27.723119312 952.0
27.749379877 927.0
27.775640442 870.0
27.801901008 898.0
27.828161573 881.0
27.854422139 880.0
27.880682704 900.0
27.906943269 944.0
27.933203835 910.0
27.959464400 892.0
27.985724965 921.0
28.011985531 916.0
28.038246096 936.0
28.064506661 956.0
28.090767227 892.0
28.117027792 894.0
28.143288357 908.0
28.169548923 909.0
28.195809488 938.0
28.222070054 969.0
28.248330619 878.0
28.274591184 944.0
28.300851750 922.0
28.327112315 925.0
28.353372880 926.0
28.379633446 904.0
28.405894011 938.0
28.432154576 922.0
28.458415142 974.0
28.484675707 965.0
28.510936272 884.0
28.537196838 908.0
28.563457403 904.0
28.589717968 911.0
28.615978534 954.0
28.642239099 855.0
28.668499665 848.0
28.694760230 877.0
28.721020795 868.0
28.747281361 913.0
28.773541926 951.0
28.799802491 843.0
28.826063057 937.0
28.852323622 961.0
28.878584187 864.0
28.904844753 895.0
28.931105318 943.0
28.957365883 886.0
28.983626449 931.0
29.009887014 921.0
29.036147579 882.0
29.062408145 889.0
29.088668710 878.0
29.114929276 900.0
29.141189841 974.0
29.167450406 876.0
29.193710972 898.0
29.219971537 906.0
29.246232102 934.0
29.272492668 900.0
29.298753233 863.0
29.325013798 868.0
29.351274364 923.0
29.377534929 884.0
29.403795494 945.0
29.430056060 859.0
29.456316625 905.0
29.482577191 872.0
29.508837756 874.0
29.535098321 909.0
29.561358887 886.0
29.587619452 891.0
29.613880017 861.0
29.640140583 882.0
29.666401148 850.0
29.692661713 878.0
29.718922279 838.0
29.745182844 922.0
29.771443409 907.0
29.797703975 889.0
29.823964540 877.0
29.850225105 848.0
29.876485671 909.0
29.902746236 870.0
29.929006802 871.0
29.955267367 837.0
29.981527932 908.0
30.007788498 877.0
30.034049063 907.0
30.060309628 752.0
30.086570194 926.0
30.112830759 849.0
30.139091324 873.0
30.165351890 883.0
30.191612455 825.0
30.217873020 845.0
30.244133586 875.0
30.270394151 909.0
30.296654717 843.0
30.322915282 840.0
30.349175847 799.0
30.375436413 853.0
30.401696978 776.0
30.427957543 804.0
30.454218109 851.0
30.480478674 868.0
30.506739239 785.0
30.532999805 811.0
30.559260370 791.0
30.585520935 860.0
30.611781501 819.0
30.638042066 850.0
30.664302631 816.0
30.690563197 757.0
30.716823762 812.0
30.743084328 786.0
30.769344893 840.0
30.795605458 825.0
30.821866024 857.0
30.848126589 799.0
30.874387154 751.0
30.900647720 792.0
30.926908285 762.0
30.953168850 794.0
30.979429416 758.0
31.005689981 825.0
31.031950546 798.0
31.058211112 797.0
31.084471677 765.0
31.110732243 785.0
31.136992808 752.0
31.163253373 815.0
31.189513939 763.0
31.215774504 758.0
31.242035069 747.0
31.268295635 785.0
31.294556200 819.0
31.320816765 742.0
31.347077331 782.0
31.373337896 719.0
31.399598461 784.0
31.425859027 724.0
31.452119592 703.0
31.478380157 761.0
31.504640723 791.0
31.530901288 731.0
31.557161854 729.0
31.583422419 736.0
31.609682984 743.0
31.635943550 750.0
31.662204115 776.0
31.688464680 734.0
31.714725246 770.0
31.740985811 760.0
31.767246376 697.0
31.793506942 696.0
31.819767507 745.0
31.846028072 716.0
31.872288638 671.0
31.898549203 742.0
31.924809769 716.0
31.951070334 695.0
31.977330899 742.0
32.003591465 752.0
32.029852030 705.0
32.056112595 726.0
32.082373161 707.0
32.108633726 733.0
32.134894291 690.0
32.161154857 707.0
32.187415422 718.0
32.213675987 721.0
32.239936553 672.0
32.266197118 679.0
32.292457683 701.0
32.318718249 686.0
32.344978814 723.0
32.371239380 732.0
32.397499945 754.0
32.423760510 697.0
32.450021076 690.0
32.476281641 662.0
32.502542206 686.0
32.528802772 660.0
32.555063337 692.0
32.581323902 680.0
32.607584468 678.0
32.633845033 657.0
32.660105598 695.0
32.686366164 674.0
32.712626729 637.0
32.738887295 643.0
32.765147860 651.0
32.791408425 657.0
32.817668991 678.0
32.843929556 666.0
32.870190121 669.0
32.896450687 636.0
32.922711252 683.0
32.948971817 624.0
32.975232383 667.0
33.001492948 638.0
33.027753513 728.0
33.054014079 637.0
33.080274644 675.0
33.106535209 694.0
33.132795775 627.0
33.159056340 656.0
33.185316906 658.0
33.211577471 670.0
33.237838036 678.0
33.264098602 692.0
33.290359167 636.0
33.316619732 680.0
33.342880298 655.0
33.369140863 669.0
33.395401428 656.0
33.421661994 604.0
33.447922559 682.0
33.474183124 655.0
33.500443690 677.0
33.526704255 700.0
33.552964820 724.0
33.579225386 680.0
33.605485951 628.0
33.631746517 649.0
33.658007082 692.0
33.684267647 727.0
33.710528213 679.0
33.736788778 738.0
33.763049343 687.0
33.789309909 649.0
33.815570474 731.0
33.841831039 716.0
33.868091605 684.0
33.894352170 746.0
33.920612735 738.0
33.946873301 771.0
33.973133866 690.0
33.999394432 746.0
34.025654997 784.0
34.051915562 804.0
34.078176128 794.0
34.104436693 804.0
34.130697258 826.0
34.156957824 819.0
34.183218389 836.0
34.209478954 818.0
34.235739520 867.0
34.262000085 877.0
34.288260650 873.0
34.314521216 878.0
34.340781781 910.0
34.367042346 859.0
34.393302912 876.0
34.419563477 945.0
34.445824043 939.0
34.472084608 922.0
34.498345173 947.0
34.524605739 973.0
34.550866304 932.0
34.577126869 1001.0
34.603387435 958.0
34.629648000 934.0
34.655908565 970.0
34.682169131 997.0
34.708429696 935.0
34.734690261 957.0
34.760950827 958.0
34.787211392 951.0
34.813471958 976.0
34.839732523 967.0
34.865993088 994.0
34.892253654 997.0
34.918514219 951.0
34.944774784 996.0
34.971035350 942.0
34.997295915 870.0
35.023556480 992.0
35.049817046 980.0
35.076077611 879.0
35.102338176 887.0
35.128598742 916.0
35.154859307 918.0
35.181119872 932.0
35.207380438 896.0
35.233641003 899.0
35.259901569 854.0
35.286162134 876.0
35.312422699 907.0
35.338683265 850.0
35.364943830 898.0
35.391204395 847.0
35.417464961 848.0
35.443725526 819.0
35.469986091 802.0
35.496246657 844.0
35.522507222 809.0
35.548767787 804.0
35.575028353 858.0
35.601288918 842.0
35.627549484 779.0
35.653810049 809.0
35.680070614 735.0
35.706331180 756.0
35.732591745 708.0
35.758852310 780.0
35.785112876 765.0
35.811373441 774.0
35.837634006 735.0
35.863894572 722.0
35.890155137 692.0
35.916415702 715.0
35.942676268 754.0
35.968936833 768.0
35.995197398 708.0
36.021457964 689.0
36.047718529 695.0
36.073979095 724.0
36.100239660 672.0
36.126500225 711.0
36.152760791 728.0
36.179021356 724.0
36.205281921 674.0
36.231542487 726.0
36.257803052 710.0
36.284063617 699.0
36.310324183 668.0
36.336584748 634.0
36.362845313 665.0
36.389105879 635.0
36.415366444 724.0
36.441627010 625.0
36.467887575 647.0
36.494148140 647.0
36.520408706 669.0
36.546669271 627.0
36.572929836 648.0
36.599190402 653.0
36.625450967 656.0
36.651711532 625.0
36.677972098 676.0
36.704232663 657.0
36.730493228 587.0
36.756753794 640.0
36.783014359 601.0
36.809274924 639.0
36.835535490 617.0
36.861796055 653.0
36.888056621 557.0
36.914317186 594.0
36.940577751 627.0
36.966838317 595.0
36.993098882 558.0
37.019359447 612.0
37.045620013 642.0
37.071880578 612.0
37.098141143 628.0
37.124401709 628.0
37.150662274 636.0
37.176922839 626.0
37.203183405 612.0
37.229443970 626.0
37.255704535 598.0
37.281965101 629.0
37.308225666 626.0
37.334486232 592.0
37.360746797 610.0
37.387007362 614.0
37.413267928 551.0
37.439528493 590.0
37.465789058 604.0
37.492049624 582.0
37.518310189 657.0
37.544570754 634.0
37.570831320 648.0
37.597091885 571.0
37.623352450 593.0
37.649613016 587.0
37.675873581 622.0
37.702134147 645.0
37.728394712 621.0
37.754655277 592.0
37.780915843 600.0
37.807176408 647.0
37.833436973 631.0
37.859697539 613.0
37.885958104 578.0
37.912218669 618.0
37.938479235 617.0
37.964739800 633.0
37.991000365 598.0
38.017260931 645.0
38.043521496 652.0
38.069782061 669.0
38.096042627 592.0
38.122303192 637.0
38.148563758 634.0
38.174824323 589.0
38.201084888 627.0
38.227345454 632.0
38.253606019 652.0
38.279866584 608.0
38.306127150 652.0
38.332387715 598.0
38.358648280 588.0
38.384908846 619.0
38.411169411 636.0
38.437429976 584.0
38.463690542 642.0
38.489951107 663.0
38.516211673 651.0
38.542472238 641.0
38.568732803 622.0
38.594993369 561.0
38.621253934 592.0
38.647514499 628.0
38.673775065 609.0
38.700035630 655.0
38.726296195 629.0
38.752556761 626.0
38.778817326 633.0
38.805077891 686.0
38.831338457 659.0
38.857599022 602.0
38.883859587 578.0
38.910120153 610.0
38.936380718 626.0
38.962641284 628.0
38.988901849 649.0
39.015162414 604.0
39.041422980 689.0
39.067683545 610.0
39.093944110 626.0
39.120204676 640.0
39.146465241 652.0
39.172725806 604.0
39.198986372 592.0
39.225246937 604.0
39.251507502 566.0
39.277768068 630.0
39.304028633 614.0
39.330289199 650.0
39.356549764 596.0
39.382810329 603.0
39.409070895 650.0
39.435331460 601.0
39.461592025 601.0
39.487852591 620.0
39.514113156 567.0
39.540373721 583.0
39.566634287 617.0
39.592894852 633.0
39.619155417 565.0
39.645415983 604.0
39.671676548 564.0
39.697937113 549.0
39.724197679 572.0
39.750458244 567.0
39.776718810 561.0
39.802979375 586.0
39.829239940 571.0
39.855500506 561.0
39.881761071 586.0
39.908021636 606.0
39.934282202 550.0
39.960542767 635.0
39.986803332 579.0
40.013063898 566.0
40.039324463 548.0
40.065585028 525.0
40.091845594 575.0
40.118106159 558.0
40.144366725 545.0
40.170627290 589.0
40.196887855 545.0
40.223148421 559.0
40.249408986 535.0
40.275669551 572.0
40.301930117 534.0
40.328190682 553.0
40.354451247 534.0
40.380711813 508.0
40.406972378 504.0
40.433232943 539.0
40.459493509 562.0
40.485754074 518.0
40.512014639 523.0
40.538275205 549.0
40.564535770 523.0
40.590796336 500.0
40.617056901 526.0
40.643317466 527.0
40.669578032 516.0
40.695838597 489.0
40.722099162 543.0
40.748359728 541.0
40.774620293 492.0
40.800880858 505.0
40.827141424 543.0
40.853401989 539.0
40.879662554 520.0
40.905923120 481.0
40.932183685 497.0
40.958444251 486.0
40.984704816 528.0
41.010965381 543.0
41.037225947 435.0
41.063486512 487.0
41.089747077 462.0
41.116007643 525.0
41.142268208 487.0
41.168528773 500.0
41.194789339 487.0
41.221049904 513.0
41.247310469 504.0
41.273571035 491.0
41.299831600 456.0
41.326092165 458.0
41.352352731 479.0
41.378613296 522.0
41.404873862 438.0
41.431134427 537.0
41.457394992 470.0
41.483655558 496.0
41.509916123 461.0
41.536176688 457.0
41.562437254 474.0
41.588697819 466.0
41.614958384 485.0
41.641218950 464.0
41.667479515 513.0
41.693740080 481.0
41.720000646 436.0
41.746261211 460.0
41.772521776 458.0
41.798782342 491.0
41.825042907 480.0
41.851303473 489.0
41.877564038 441.0
41.903824603 521.0
41.930085169 459.0
41.956345734 496.0
41.982606299 462.0
42.008866865 487.0
42.035127430 447.0
42.061387995 462.0
42.087648561 485.0
42.113909126 481.0
42.140169691 504.0
42.166430257 441.0
42.192690822 504.0
42.218951388 449.0
42.245211953 467.0
42.271472518 436.0
42.297733084 462.0
42.323993649 453.0
42.350254214 461.0
42.376514780 498.0
42.402775345 459.0
42.429035910 424.0
42.455296476 456.0
42.481557041 467.0
42.507817606 463.0
42.534078172 466.0
42.560338737 417.0
42.586599302 430.0
42.612859868 464.0
42.639120433 460.0
42.665380999 438.0
42.691641564 455.0
42.717902129 475.0
42.744162695 436.0
42.770423260 444.0
42.796683825 463.0
42.822944391 419.0
42.849204956 472.0
42.875465521 457.0
42.901726087 460.0
42.927986652 447.0
42.954247217 443.0
42.980507783 434.0
43.006768348 466.0
43.033028914 438.0
43.059289479 440.0
43.085550044 425.0
43.111810610 395.0
43.138071175 475.0
43.164331740 458.0
43.190592306 453.0
43.216852871 459.0
43.243113436 452.0
43.269374002 441.0
43.295634567 415.0
43.321895132 464.0
43.348155698 422.0
43.374416263 438.0
43.400676828 449.0
43.426937394 450.0
43.453197959 426.0
43.479458525 412.0
43.505719090 439.0
43.531979655 398.0
43.558240221 461.0
43.584500786 423.0
43.610761351 402.0
43.637021917 433.0
43.663282482 442.0
43.689543047 402.0
43.715803613 439.0
43.742064178 410.0
43.768324743 401.0
43.794585309 440.0
43.820845874 482.0
43.847106440 433.0
43.873367005 437.0
43.899627570 438.0
43.925888136 460.0
43.952148701 466.0
43.978409266 463.0
44.004669832 433.0
44.030930397 409.0
44.057190962 448.0
44.083451528 461.0
44.109712093 410.0
44.135972658 451.0
44.162233224 463.0
44.188493789 456.0
44.214754354 473.0
44.241014920 465.0
44.267275485 423.0
44.293536051 442.0
44.319796616 449.0
44.346057181 460.0
44.372317747 459.0
44.398578312 409.0
44.424838877 422.0
44.451099443 456.0
44.477360008 482.0
44.503620573 450.0
44.529881139 434.0
44.556141704 438.0
44.582402269 467.0
44.608662835 469.0
44.634923400 459.0
44.661183966 491.0
44.687444531 481.0
44.713705096 433.0
44.739965662 471.0
44.766226227 443.0
44.792486792 465.0
44.818747358 469.0
44.845007923 430.0
44.871268488 429.0
44.897529054 479.0
44.923789619 458.0
44.950050184 452.0
44.976310750 477.0
45.002571315 474.0
45.028831880 462.0
45.055092446 505.0
45.081353011 461.0
45.107613577 474.0
45.133874142 482.0
45.160134707 499.0
45.186395273 460.0
45.212655838 467.0
45.238916403 439.0
45.265176969 488.0
45.291437534 487.0
45.317698099 474.0
45.343958665 465.0
45.370219230 490.0
45.396479795 500.0
45.422740361 462.0
45.449000926 476.0
45.475261492 451.0
45.501522057 471.0
45.527782622 459.0
45.554043188 468.0
45.580303753 484.0
45.606564318 482.0
45.632824884 484.0
45.659085449 433.0
45.685346014 510.0
45.711606580 470.0
45.737867145 479.0
45.764127710 537.0
45.790388276 458.0
45.816648841 492.0
45.842909406 534.0
45.869169972 509.0
45.895430537 459.0
45.921691103 475.0
45.947951668 480.0
45.974212233 459.0
46.000472799 506.0
46.026733364 533.0
46.052993929 467.0
46.079254495 459.0
46.105515060 494.0
46.131775625 479.0
46.158036191 489.0
46.184296756 477.0
46.210557321 502.0
46.236817887 531.0
46.263078452 519.0
46.289339017 469.0
46.315599583 496.0
46.341860148 482.0
46.368120714 487.0
46.394381279 453.0
46.420641844 487.0
46.446902410 489.0
46.473162975 544.0
46.499423540 447.0
46.525684106 536.0
46.551944671 476.0
46.578205236 468.0
46.604465802 453.0
46.630726367 469.0
46.656986932 477.0
46.683247498 481.0
46.709508063 477.0
46.735768629 466.0
46.762029194 424.0
46.788289759 495.0
46.814550325 479.0
46.840810890 498.0
46.867071455 466.0
46.893332021 478.0
46.919592586 437.0
46.945853151 485.0
46.972113717 410.0
46.998374282 493.0
47.024634847 489.0
47.050895413 515.0
47.077155978 459.0
47.103416543 462.0
47.129677109 459.0
47.155937674 511.0
47.182198240 443.0
47.208458805 429.0
47.234719370 492.0
47.260979936 474.0
47.287240501 427.0
47.313501066 465.0
47.339761632 448.0
47.366022197 421.0
47.392282762 411.0
47.418543328 436.0
47.444803893 477.0
47.471064458 483.0
47.497325024 448.0
47.523585589 405.0
47.549846155 424.0
47.576106720 432.0
47.602367285 435.0
47.628627851 409.0
47.654888416 420.0
47.681148981 390.0
47.707409547 424.0
47.733670112 387.0
47.759930677 413.0
47.786191243 402.0
47.812451808 421.0
47.838712373 431.0
47.864972939 419.0
47.891233504 437.0
47.917494069 443.0
47.943754635 418.0
47.970015200 445.0
47.996275766 440.0
48.022536331 452.0
48.048796896 440.0
48.075057462 378.0
48.101318027 431.0
48.127578592 428.0
48.153839158 427.0
48.180099723 444.0
48.206360288 428.0
48.232620854 414.0
48.258881419 355.0
48.285141984 385.0
48.311402550 378.0
48.337663115 427.0
48.363923681 412.0
48.390184246 411.0
48.416444811 388.0
48.442705377 429.0
48.468965942 418.0
48.495226507 421.0
48.521487073 389.0
48.547747638 443.0
48.574008203 411.0
48.600268769 411.0
48.626529334 415.0
48.652789899 445.0
48.679050465 398.0
48.705311030 424.0
48.731571595 382.0
48.757832161 365.0
48.784092726 405.0
48.810353292 405.0
48.836613857 448.0
48.862874422 397.0
48.889134988 431.0
48.915395553 374.0
48.941656118 411.0
48.967916684 400.0
48.994177249 388.0
49.020437814 393.0
49.046698380 367.0
49.072958945 402.0
49.099219510 383.0
49.125480076 401.0
49.151740641 424.0
49.178001207 408.0
49.204261772 426.0
49.230522337 408.0
49.256782903 369.0
49.283043468 416.0
49.309304033 383.0
49.335564599 380.0
49.361825164 378.0
49.388085729 376.0
49.414346295 388.0
49.440606860 393.0
49.466867425 376.0
49.493127991 403.0
49.519388556 367.0
49.545649121 398.0
49.571909687 382.0
49.598170252 352.0
49.624430818 363.0
49.650691383 388.0
49.676951948 359.0
49.703212514 413.0
49.729473079 366.0
49.755733644 387.0
49.781994210 369.0
49.808254775 387.0
49.834515340 410.0
49.860775906 386.0
49.887036471 397.0
49.913297036 358.0
49.939557602 358.0
49.965818167 362.0
49.992078733 369.0
50.018339298 355.0
50.044599863 392.0
50.070860429 358.0
50.097120994 405.0
50.123381559 352.0
50.149642125 369.0
50.175902690 353.0
50.202163255 342.0
50.228423821 380.0
50.254684386 392.0
50.280944951 390.0
50.307205517 405.0
50.333466082 369.0
50.359726647 395.0
50.385987213 396.0
50.412247778 355.0
50.438508344 383.0
50.464768909 400.0
50.491029474 367.0
50.517290040 368.0
50.543550605 372.0
50.569811170 339.0
50.596071736 378.0
50.622332301 335.0
50.648592866 340.0
50.674853432 331.0
50.701113997 365.0
50.727374562 370.0
50.753635128 378.0
50.779895693 345.0
50.806156258 379.0
50.832416824 363.0
50.858677389 311.0
50.884937955 328.0
50.911198520 368.0
50.937459085 353.0
50.963719651 354.0
50.989980216 356.0
51.016240781 382.0
51.042501347 367.0
51.068761912 345.0
51.095022477 321.0
51.121283043 356.0
51.147543608 372.0
51.173804173 385.0
51.200064739 331.0
51.226325304 389.0
51.252585870 329.0
51.278846435 374.0
51.305107000 377.0
51.331367566 394.0
51.357628131 310.0
51.383888696 335.0
51.410149262 370.0
51.436409827 320.0
51.462670392 384.0
51.488930958 360.0
51.515191523 316.0
51.541452088 375.0
51.567712654 333.0
51.593973219 356.0
51.620233784 315.0
51.646494350 314.0
51.672754915 336.0
51.699015481 330.0
51.725276046 340.0
51.751536611 330.0
51.777797177 368.0
51.804057742 364.0
51.830318307 342.0
51.856578873 363.0
51.882839438 317.0
51.909100003 341.0
51.935360569 306.0
51.961621134 303.0
51.987881699 378.0
52.014142265 354.0
52.040402830 337.0
52.066663396 345.0
52.092923961 347.0
52.119184526 321.0
52.145445092 326.0
52.171705657 345.0
52.197966222 312.0
52.224226788 315.0
52.250487353 363.0
52.276747918 362.0
52.303008484 317.0
52.329269049 343.0
52.355529614 334.0
52.381790180 336.0
52.408050745 343.0
52.434311310 353.0
52.460571876 347.0
52.486832441 344.0
52.513093007 310.0
52.539353572 356.0
52.565614137 342.0
52.591874703 329.0
52.618135268 340.0
52.644395833 329.0
52.670656399 310.0
52.696916964 353.0
52.723177529 334.0
52.749438095 318.0
52.775698660 331.0
52.801959225 312.0
52.828219791 318.0
52.854480356 305.0
52.880740922 311.0
52.907001487 374.0
52.933262052 346.0
52.959522618 351.0
52.985783183 352.0
53.012043748 323.0
53.038304314 336.0
53.064564879 349.0
53.090825444 328.0
53.117086010 326.0
53.143346575 345.0
53.169607140 316.0
53.195867706 310.0
53.222128271 332.0
53.248388836 332.0
53.274649402 318.0
53.300909967 324.0
53.327170533 298.0
53.353431098 312.0
53.379691663 312.0
53.405952229 360.0
53.432212794 322.0
53.458473359 345.0
53.484733925 331.0
53.510994490 296.0
53.537255055 303.0
53.563515621 324.0
53.589776186 322.0
53.616036751 327.0
53.642297317 301.0
53.668557882 337.0
53.694818448 365.0
53.721079013 306.0
53.747339578 281.0
53.773600144 349.0
53.799860709 345.0
53.826121274 303.0
53.852381840 316.0
53.878642405 290.0
53.904902970 291.0
53.931163536 303.0
53.957424101 303.0
53.983684666 280.0
54.009945232 360.0
54.036205797 308.0
54.062466362 304.0
54.088726928 334.0
54.114987493 302.0
54.141248059 299.0
54.167508624 296.0
54.193769189 314.0
54.220029755 286.0
54.246290320 280.0
54.272550885 312.0
54.298811451 326.0
54.325072016 289.0
54.351332581 306.0
54.377593147 333.0
54.403853712 281.0
54.430114277 328.0
54.456374843 283.0
54.482635408 316.0
54.508895973 291.0
54.535156539 318.0
54.561417104 301.0
54.587677670 311.0
54.613938235 328.0
54.640198800 321.0
54.666459366 301.0
54.692719931 318.0
54.718980496 292.0
54.745241062 297.0
54.771501627 299.0
54.797762192 281.0
54.824022758 295.0
54.850283323 328.0
54.876543888 287.0
54.902804454 281.0
54.929065019 295.0
54.955325585 286.0
54.981586150 311.0
55.007846715 313.0
55.034107281 299.0
55.060367846 292.0
55.086628411 319.0
55.112888977 308.0
55.139149542 309.0
55.165410107 294.0
55.191670673 304.0
55.217931238 322.0
55.244191803 316.0
55.270452369 289.0
55.296712934 292.0
55.322973499 284.0
55.349234065 325.0
55.375494630 290.0
55.401755196 289.0
55.428015761 270.0
55.454276326 288.0
55.480536892 283.0
55.506797457 324.0
55.533058022 298.0
55.559318588 315.0
55.585579153 326.0
55.611839718 288.0
55.638100284 308.0
55.664360849 348.0
55.690621414 298.0
55.716881980 311.0
55.743142545 330.0
55.769403111 299.0
55.795663676 278.0
55.821924241 270.0
55.848184807 296.0
55.874445372 308.0
55.900705937 279.0
55.926966503 307.0
55.953227068 268.0
55.979487633 297.0
56.005748199 304.0
56.032008764 323.0
56.058269329 298.0
56.084529895 281.0
56.110790460 336.0
56.137051025 296.0
56.163311591 317.0
56.189572156 294.0
56.215832722 329.0
56.242093287 278.0
56.268353852 263.0
56.294614418 293.0
56.320874983 283.0
56.347135548 292.0
56.373396114 318.0
56.399656679 307.0
56.425917244 282.0
56.452177810 298.0
56.478438375 311.0
56.504698940 311.0
56.530959506 298.0
56.557220071 278.0
56.583480637 284.0
56.609741202 300.0
56.636001767 310.0
56.662262333 291.0
56.688522898 278.0
56.714783463 275.0
56.741044029 266.0
56.767304594 291.0
56.793565159 289.0
56.819825725 283.0
56.846086290 307.0
56.872346855 306.0
56.898607421 270.0
56.924867986 318.0
56.951128551 291.0
56.977389117 291.0
57.003649682 295.0
57.029910248 263.0
57.056170813 291.0
57.082431378 287.0
57.108691944 304.0
57.134952509 299.0
57.161213074 320.0
57.187473640 317.0
57.213734205 326.0
57.239994770 300.0
57.266255336 303.0
57.292515901 285.0
57.318776466 293.0
57.345037032 331.0
57.371297597 279.0
57.397558163 297.0
57.423818728 305.0
57.450079293 294.0
57.476339859 306.0
57.502600424 266.0
57.528860989 308.0
57.555121555 312.0
57.581382120 314.0
57.607642685 291.0
57.633903251 325.0
57.660163816 305.0
57.686424381 287.0
57.712684947 330.0
57.738945512 325.0
57.765206077 281.0
57.791466643 271.0
57.817727208 292.0
57.843987774 281.0
57.870248339 320.0
57.896508904 319.0
57.922769470 291.0
57.949030035 309.0
57.975290600 323.0
58.001551166 280.0
58.027811731 299.0
58.054072296 275.0
58.080332862 314.0
58.106593427 321.0
58.132853992 300.0
58.159114558 306.0
58.185375123 270.0
58.211635689 273.0
58.237896254 307.0
58.264156819 285.0
58.290417385 295.0
58.316677950 279.0
58.342938515 287.0
58.369199081 267.0
58.395459646 287.0
58.421720211 266.0
58.447980777 284.0
58.474241342 297.0
58.500501907 293.0
58.526762473 306.0
58.553023038 296.0
58.579283603 276.0
58.605544169 291.0
58.631804734 293.0
58.658065300 301.0
58.684325865 276.0
58.710586430 317.0
58.736846996 310.0
58.763107561 295.0
58.789368126 308.0
58.815628692 299.0
58.841889257 291.0
58.868149822 317.0
58.894410388 280.0
58.920670953 269.0
58.946931518 321.0
58.973192084 292.0
58.999452649 297.0
59.025713214 304.0
59.051973780 307.0
59.078234345 328.0
59.104494911 298.0
59.130755476 305.0
59.157016041 273.0
59.183276607 299.0
59.209537172 305.0
59.235797737 324.0
59.262058303 298.0
59.288318868 320.0
59.314579433 332.0
59.340839999 304.0
59.367100564 281.0
59.393361129 330.0
59.419621695 305.0
59.445882260 337.0
59.472142826 287.0
59.498403391 318.0
59.524663956 325.0
59.550924522 328.0
59.577185087 339.0
59.603445652 334.0
59.629706218 332.0
59.655966783 360.0
59.682227348 328.0
59.708487914 302.0
59.734748479 321.0
59.761009044 346.0
59.787269610 346.0
59.813530175 343.0
59.839790740 337.0
59.866051306 346.0
59.892311871 342.0
59.918572437 351.0
59.944833002 340.0
59.971093567 373.0
59.997354133 354.0
60.023614698 345.0
60.049875263 393.0
60.076135829 371.0
60.102396394 363.0
60.128656959 382.0
60.154917525 399.0
60.181178090 379.0
60.207438655 404.0
60.233699221 419.0
60.259959786 403.0
60.286220352 406.0
60.312480917 420.0
60.338741482 451.0
60.365002048 465.0
60.391262613 419.0
60.417523178 433.0
60.443783744 452.0
60.470044309 457.0
60.496304874 535.0
60.522565440 469.0
60.548826005 553.0
60.575086570 533.0
60.601347136 538.0
60.627607701 519.0
60.653868266 559.0
60.680128832 583.0
60.706389397 558.0
60.732649963 564.0
60.758910528 589.0
60.785171093 537.0
60.811431659 561.0
60.837692224 522.0
60.863952789 558.0
60.890213355 497.0
60.916473920 538.0
60.942734485 585.0
60.968995051 529.0
60.995255616 552.0
61.021516181 582.0
61.047776747 484.0
61.074037312 549.0
61.100297878 501.0
61.126558443 553.0
61.152819008 505.0
61.179079574 490.0
61.205340139 476.0
61.231600704 505.0
61.257861270 475.0
61.284121835 513.0
61.310382400 508.0
61.336642966 471.0
61.362903531 467.0
61.389164096 468.0
61.415424662 506.0
61.441685227 490.0
61.467945792 471.0
61.494206358 447.0
61.520466923 469.0
61.546727489 514.0
61.572988054 466.0
61.599248619 499.0
61.625509185 463.0
61.651769750 464.0
61.678030315 447.0
61.704290881 490.0
61.730551446 452.0
61.756812011 457.0
61.783072577 474.0
61.809333142 456.0
61.835593707 483.0
61.861854273 455.0
61.888114838 510.0
61.914375404 459.0
61.940635969 452.0
61.966896534 431.0
61.993157100 462.0
62.019417665 467.0
62.045678230 448.0
62.071938796 411.0
62.098199361 444.0
62.124459926 442.0
62.150720492 460.0
62.176981057 423.0
62.203241622 453.0
62.229502188 408.0
62.255762753 467.0
62.282023318 419.0
62.308283884 443.0
62.334544449 415.0
62.360805015 381.0
62.387065580 383.0
62.413326145 366.0
62.439586711 417.0
62.465847276 403.0
62.492107841 399.0
62.518368407 387.0
62.544628972 375.0
62.570889537 365.0
62.597150103 403.0
62.623410668 339.0
62.649671233 389.0
62.675931799 353.0
62.702192364 297.0
62.728452930 360.0
62.754713495 372.0
62.780974060 370.0
62.807234626 332.0
62.833495191 349.0
62.859755756 297.0
62.886016322 303.0
62.912276887 307.0
62.938537452 333.0
62.964798018 341.0
62.991058583 287.0
63.017319148 309.0
63.043579714 273.0
63.069840279 324.0
63.096100844 329.0
63.122361410 311.0
63.148621975 300.0
63.174882541 331.0
63.201143106 300.0
63.227403671 327.0
63.253664237 275.0
63.279924802 300.0
63.306185367 275.0
63.332445933 282.0
63.358706498 260.0
63.384967063 282.0
63.411227629 311.0
63.437488194 318.0
63.463748759 272.0
63.490009325 284.0
63.516269890 264.0
63.542530455 289.0
63.568791021 262.0
63.595051586 311.0
63.621312152 262.0
63.647572717 282.0
63.673833282 255.0
63.700093848 295.0
63.726354413 262.0
63.752614978 301.0
63.778875544 271.0
63.805136109 250.0
63.831396674 283.0
63.857657240 257.0
63.883917805 259.0
63.910178370 319.0
63.936438936 269.0
63.962699501 282.0
63.988960067 280.0
64.015220632 261.0
64.041481197 281.0
64.067741763 288.0
64.094002328 276.0
64.120262893 273.0
64.146523459 261.0
64.172784024 259.0
64.199044589 246.0
64.225305155 267.0
64.251565720 257.0
64.277826285 284.0
64.304086851 228.0
64.330347416 285.0
64.356607981 236.0
64.382868547 297.0
64.409129112 249.0
64.435389678 265.0
64.461650243 287.0
64.487910808 300.0
64.514171374 254.0
64.540431939 249.0
64.566692504 248.0
64.592953070 247.0
64.619213635 236.0
64.645474200 250.0
64.671734766 238.0
64.697995331 303.0
64.724255896 262.0
64.750516462 301.0
64.776777027 268.0
64.803037593 240.0
64.829298158 271.0
64.855558723 245.0
64.881819289 286.0
64.908079854 250.0
64.934340419 278.0
64.960600985 254.0
64.986861550 268.0
