[Measurement conditions]
Sample identification,MNASPH_PaxialPC22nov2021
Comment - 1,"Configuration=Stage for Flat Samples/Holders, Owner=User-1, Creation date=7/1/2020 9:53:24 AM"
Comment - 2,"Goniometer=Theta/Theta; Minimum step size 2Theta:0.0001; Minimum step size Omega:0.0001"
Comment - 3,"Sample stage=Stage for flat samples/holders"
Comment - 4,"Diffractometer system=EMPYREAN"
Comment - 5,"Measurement program=C:\Users\ibo5034\OneDrive - The Pennsylvania State University\NEUP - Reed, Titus's files\XRD\Cement\Zerobackground scan.xrdmp, Identifier={98A3B11C-88F9-4AA6-982C-73314A311EF5}"
Anode material,Cu
K-Alpha1 wavelength,1.5405980
K-Alpha2 wavelength,1.5444260
Ratio K-Alpha2/K-Alpha1,0.500
Divergence slit,Fixed,0.25
Monochromator used,NO
Generator voltage, 45
Tube current, 40
File date and time,15/Dec/2021 11:23
Unit cell,
h k l, 0 0 0
Scan axis,Gonio
Scan range,4.994599997,64.999991833
Scan step size,0.0262606
No. of points, 2285
Scan type,CONTINUOUS
Time per step,96.390
[Scan points]
Angle, TimePerStep, Intensity, ESD
5.007730280, 96.390, 4054.0, 63.6710
5.033990845, 96.390, 3960.0, 62.9285
5.060251411, 96.390, 4127.0, 64.2417
5.086511976, 96.390, 4028.0, 63.4665
5.112772541, 96.390, 3868.0, 62.1932
5.139033107, 96.390, 3915.0, 62.5700
5.165293672, 96.390, 4000.0, 63.2456
5.191554237, 96.390, 3843.0, 61.9919
5.217814803, 96.390, 3974.0, 63.0397
5.244075368, 96.390, 3946.0, 62.8172
5.270335934, 96.390, 3775.0, 61.4410
5.296596499, 96.390, 3870.0, 62.2093
5.322857064, 96.390, 3710.0, 60.9098
5.349117630, 96.390, 3741.0, 61.1637
5.375378195, 96.390, 3650.0, 60.4152
5.401638760, 96.390, 3615.0, 60.1249
5.427899326, 96.390, 3759.0, 61.3107
5.454159891, 96.390, 3620.0, 60.1664
5.480420456, 96.390, 3679.0, 60.6548
5.506681022, 96.390, 3716.0, 60.9590
5.532941587, 96.390, 3639.0, 60.3241
5.559202152, 96.390, 3570.0, 59.7495
5.585462718, 96.390, 3657.0, 60.4731
5.611723283, 96.390, 3600.0, 60.0000
5.637983849, 96.390, 3597.0, 59.9750
5.664244414, 96.390, 3534.0, 59.4475
5.690504979, 96.390, 3589.0, 59.9083
5.716765545, 96.390, 3647.0, 60.3904
5.743026110, 96.390, 3407.0, 58.3695
5.769286675, 96.390, 3472.0, 58.9237
5.795547241, 96.390, 3577.0, 59.8080
5.821807806, 96.390, 3356.0, 57.9310
5.848068371, 96.390, 3508.0, 59.2284
5.874328937, 96.390, 3477.0, 58.9661
5.900589502, 96.390, 3519.0, 59.3212
5.926850067, 96.390, 3412.0, 58.4123
5.953110633, 96.390, 3354.0, 57.9137
5.979371198, 96.390, 3481.0, 59.0000
6.005631763, 96.390, 3460.0, 58.8218
6.031892329, 96.390, 3400.0, 58.3095
6.058152894, 96.390, 3439.0, 58.6430
6.084413460, 96.390, 3391.0, 58.2323
6.110674025, 96.390, 3494.0, 59.1101
6.136934590, 96.390, 3410.0, 58.3952
6.163195156, 96.390, 3401.0, 58.3181
6.189455721, 96.390, 3446.0, 58.7026
6.215716286, 96.390, 3436.0, 58.6174
6.241976852, 96.390, 3357.0, 57.9396
6.268237417, 96.390, 3361.0, 57.9741
6.294497982, 96.390, 3402.0, 58.3267
6.320758548, 96.390, 3395.0, 58.2666
6.347019113, 96.390, 3488.0, 59.0593
6.373279678, 96.390, 3330.0, 57.7062
6.399540244, 96.390, 3350.0, 57.8792
6.425800809, 96.390, 3450.0, 58.7367
6.452061375, 96.390, 3226.0, 56.7979
6.478321940, 96.390, 3329.0, 57.6975
6.504582505, 96.390, 3232.0, 56.8507
6.530843071, 96.390, 3280.0, 57.2713
6.557103636, 96.390, 3330.0, 57.7062
6.583364201, 96.390, 3347.0, 57.8533
6.609624767, 96.390, 3309.0, 57.5239
6.635885332, 96.390, 3235.0, 56.8771
6.662145897, 96.390, 3339.0, 57.7841
6.688406463, 96.390, 3308.0, 57.5152
6.714667028, 96.390, 3169.0, 56.2939
6.740927593, 96.390, 3227.0, 56.8067
6.767188159, 96.390, 3272.0, 57.2014
6.793448724, 96.390, 3222.0, 56.7627
6.819709289, 96.390, 3173.0, 56.3294
6.845969855, 96.390, 3209.0, 56.6480
6.872230420, 96.390, 3259.0, 57.0877
6.898490986, 96.390, 3202.0, 56.5862
6.924751551, 96.390, 3170.0, 56.3028
6.951012116, 96.390, 3186.0, 56.4447
6.977272682, 96.390, 3155.0, 56.1694
7.003533247, 96.390, 3127.0, 55.9196
7.029793812, 96.390, 3099.0, 55.6687
7.056054378, 96.390, 3133.0, 55.9732
7.082314943, 96.390, 3145.0, 56.0803
7.108575508, 96.390, 3121.0, 55.8659
7.134836074, 96.390, 3106.0, 55.7315
7.161096639, 96.390, 3151.0, 56.1338
7.187357204, 96.390, 3172.0, 56.3205
7.213617770, 96.390, 3257.0, 57.0701
7.239878335, 96.390, 3143.0, 56.0625
7.266138900, 96.390, 3133.0, 55.9732
7.292399466, 96.390, 3186.0, 56.4447
7.318660031, 96.390, 3109.0, 55.7584
7.344920597, 96.390, 3115.0, 55.8122
7.371181162, 96.390, 3040.0, 55.1362
7.397441727, 96.390, 3149.0, 56.1160
7.423702293, 96.390, 3097.0, 55.6507
7.449962858, 96.390, 3095.0, 55.6327
7.476223423, 96.390, 3115.0, 55.8122
7.502483989, 96.390, 3012.0, 54.8817
7.528744554, 96.390, 3016.0, 54.9181
7.555005119, 96.390, 3111.0, 55.7763
7.581265685, 96.390, 3019.0, 54.9454
7.607526250, 96.390, 3024.0, 54.9909
7.633786815, 96.390, 2997.0, 54.7449
7.660047381, 96.390, 3106.0, 55.7315
7.686307946, 96.390, 2997.0, 54.7449
7.712568512, 96.390, 3031.0, 55.0545
7.738829077, 96.390, 3140.0, 56.0357
7.765089642, 96.390, 2979.0, 54.5802
7.791350208, 96.390, 3057.0, 55.2901
7.817610773, 96.390, 2941.0, 54.2310
7.843871338, 96.390, 2980.0, 54.5894
7.870131904, 96.390, 3048.0, 55.2087
7.896392469, 96.390, 3031.0, 55.0545
7.922653034, 96.390, 3089.0, 55.5788
7.948913600, 96.390, 3096.0, 55.6417
7.975174165, 96.390, 3020.0, 54.9545
8.001434730, 96.390, 2957.0, 54.3783
8.027695296, 96.390, 2894.0, 53.7959
8.053955861, 96.390, 3056.0, 55.2811
8.080216426, 96.390, 2949.0, 54.3047
8.106476992, 96.390, 2941.0, 54.2310
8.132737557, 96.390, 2984.0, 54.6260
8.158998123, 96.390, 2927.0, 54.1018
8.185258688, 96.390, 3042.0, 55.1543
8.211519253, 96.390, 2979.0, 54.5802
8.237779819, 96.390, 2922.0, 54.0555
8.264040384, 96.390, 2973.0, 54.5252
8.290300949, 96.390, 3037.0, 55.1090
8.316561515, 96.390, 3026.0, 55.0091
8.342822080, 96.390, 3001.0, 54.7814
8.369082645, 96.390, 2997.0, 54.7449
8.395343211, 96.390, 2864.0, 53.5164
8.421603776, 96.390, 2963.0, 54.4334
8.447864341, 96.390, 2905.0, 53.8981
8.474124907, 96.390, 2910.0, 53.9444
8.500385472, 96.390, 2911.0, 53.9537
8.526646038, 96.390, 2846.0, 53.3479
8.552906603, 96.390, 2881.0, 53.6749
8.579167168, 96.390, 2829.0, 53.1883
8.605427734, 96.390, 2779.0, 52.7162
8.631688299, 96.390, 2868.0, 53.5537
8.657948864, 96.390, 2833.0, 53.2259
8.684209430, 96.390, 2924.0, 54.0740
8.710469995, 96.390, 2923.0, 54.0648
8.736730560, 96.390, 2854.0, 53.4228
8.762991126, 96.390, 2877.0, 53.6377
8.789251691, 96.390, 2823.0, 53.1319
8.815512256, 96.390, 2897.0, 53.8238
8.841772822, 96.390, 2766.0, 52.5928
8.868033387, 96.390, 2849.0, 53.3760
8.894293952, 96.390, 2809.0, 53.0000
8.920554518, 96.390, 2776.0, 52.6878
8.946815083, 96.390, 2933.0, 54.1572
8.973075649, 96.390, 2806.0, 52.9717
8.999336214, 96.390, 2904.0, 53.8888
9.025596779, 96.390, 2830.0, 53.1977
9.051857345, 96.390, 2831.0, 53.2071
9.078117910, 96.390, 2843.0, 53.3198
9.104378475, 96.390, 2763.0, 52.5642
9.130639041, 96.390, 2823.0, 53.1319
9.156899606, 96.390, 2740.0, 52.3450
9.183160171, 96.390, 2807.0, 52.9811
9.209420737, 96.390, 2706.0, 52.0192
9.235681302, 96.390, 2810.0, 53.0094
9.261941867, 96.390, 2789.0, 52.8110
9.288202433, 96.390, 2717.0, 52.1249
9.314462998, 96.390, 2661.0, 51.5849
9.340723564, 96.390, 2768.0, 52.6118
9.366984129, 96.390, 2788.0, 52.8015
9.393244694, 96.390, 2782.0, 52.7447
9.419505260, 96.390, 2830.0, 53.1977
9.445765825, 96.390, 2781.0, 52.7352
9.472026390, 96.390, 2690.0, 51.8652
9.498286956, 96.390, 2744.0, 52.3832
9.524547521, 96.390, 2744.0, 52.3832
9.550808086, 96.390, 2715.0, 52.1057
9.577068652, 96.390, 2772.0, 52.6498
9.603329217, 96.390, 2709.0, 52.0481
9.629589782, 96.390, 2676.0, 51.7301
9.655850348, 96.390, 2766.0, 52.5928
9.682110913, 96.390, 2679.0, 51.7591
9.708371478, 96.390, 2572.0, 50.7149
9.734632044, 96.390, 2676.0, 51.7301
9.760892609, 96.390, 2666.0, 51.6333
9.787153175, 96.390, 2736.0, 52.3068
9.813413740, 96.390, 2640.0, 51.3809
9.839674305, 96.390, 2697.0, 51.9326
9.865934871, 96.390, 2656.0, 51.5364
9.892195436, 96.390, 2773.0, 52.6593
9.918456001, 96.390, 2778.0, 52.7067
9.944716567, 96.390, 2699.0, 51.9519
9.970977132, 96.390, 2625.0, 51.2348
9.997237697, 96.390, 2714.0, 52.0961
10.023498263, 96.390, 2676.0, 51.7301
10.049758828, 96.390, 2638.0, 51.3615
10.076019393, 96.390, 2643.0, 51.4101
10.102279959, 96.390, 2699.0, 51.9519
10.128540524, 96.390, 2701.0, 51.9711
10.154801090, 96.390, 2618.0, 51.1664
10.181061655, 96.390, 2668.0, 51.6527
10.207322220, 96.390, 2721.0, 52.1632
10.233582786, 96.390, 2651.0, 51.4879
10.259843351, 96.390, 2644.0, 51.4198
10.286103916, 96.390, 2586.0, 50.8527
10.312364482, 96.390, 2537.0, 50.3686
10.338625047, 96.390, 2661.0, 51.5849
10.364885612, 96.390, 2612.0, 51.1077
10.391146178, 96.390, 2642.0, 51.4004
10.417406743, 96.390, 2663.0, 51.6043
10.443667308, 96.390, 2658.0, 51.5558
10.469927874, 96.390, 2591.0, 50.9019
10.496188439, 96.390, 2648.0, 51.4587
10.522449004, 96.390, 2503.0, 50.0300
10.548709570, 96.390, 2607.0, 51.0588
10.574970135, 96.390, 2564.0, 50.6360
10.601230701, 96.390, 2500.0, 50.0000
10.627491266, 96.390, 2692.0, 51.8845
10.653751831, 96.390, 2522.0, 50.2195
10.680012397, 96.390, 2480.0, 49.7996
10.706272962, 96.390, 2583.0, 50.8232
10.732533527, 96.390, 2668.0, 51.6527
10.758794093, 96.390, 2514.0, 50.1398
10.785054658, 96.390, 2647.0, 51.4490
10.811315223, 96.390, 2585.0, 50.8429
10.837575789, 96.390, 2462.0, 49.6185
10.863836354, 96.390, 2554.0, 50.5371
10.890096919, 96.390, 2535.0, 50.3488
10.916357485, 96.390, 2559.0, 50.5866
10.942618050, 96.390, 2536.0, 50.3587
10.968878616, 96.390, 2567.0, 50.6656
10.995139181, 96.390, 2500.0, 50.0000
11.021399746, 96.390, 2578.0, 50.7740
11.047660312, 96.390, 2481.0, 49.8096
11.073920877, 96.390, 2536.0, 50.3587
11.100181442, 96.390, 2568.0, 50.6754
11.126442008, 96.390, 2588.0, 50.8724
11.152702573, 96.390, 2518.0, 50.1797
11.178963138, 96.390, 2410.0, 49.0918
11.205223704, 96.390, 2453.0, 49.5278
11.231484269, 96.390, 2463.0, 49.6286
11.257744834, 96.390, 2551.0, 50.5074
11.284005400, 96.390, 2626.0, 51.2445
11.310265965, 96.390, 2520.0, 50.1996
11.336526530, 96.390, 2476.0, 49.7594
11.362787096, 96.390, 2399.0, 48.9796
11.389047661, 96.390, 2451.0, 49.5076
11.415308227, 96.390, 2584.0, 50.8331
11.441568792, 96.390, 2486.0, 49.8598
11.467829357, 96.390, 2484.0, 49.8397
11.494089923, 96.390, 2445.0, 49.4469
11.520350488, 96.390, 2567.0, 50.6656
11.546611053, 96.390, 2409.0, 49.0816
11.572871619, 96.390, 2429.0, 49.2849
11.599132184, 96.390, 2467.0, 49.6689
11.625392749, 96.390, 2514.0, 50.1398
11.651653315, 96.390, 2458.0, 49.5782
11.677913880, 96.390, 2452.0, 49.5177
11.704174445, 96.390, 2466.0, 49.6588
11.730435011, 96.390, 2474.0, 49.7393
11.756695576, 96.390, 2467.0, 49.6689
11.782956141, 96.390, 2434.0, 49.3356
11.809216707, 96.390, 2396.0, 48.9490
11.835477272, 96.390, 2389.0, 48.8774
11.861737838, 96.390, 2384.0, 48.8262
11.887998403, 96.390, 2415.0, 49.1426
11.914258968, 96.390, 2445.0, 49.4469
11.940519534, 96.390, 2399.0, 48.9796
11.966780099, 96.390, 2397.0, 48.9592
11.993040664, 96.390, 2395.0, 48.9387
12.019301230, 96.390, 2441.0, 49.4065
12.045561795, 96.390, 2392.0, 48.9081
12.071822360, 96.390, 2384.0, 48.8262
12.098082926, 96.390, 2413.0, 49.1223
12.124343491, 96.390, 2406.0, 49.0510
12.150604056, 96.390, 2440.0, 49.3964
12.176864622, 96.390, 2432.0, 49.3153
12.203125187, 96.390, 2462.0, 49.6185
12.229385753, 96.390, 2407.0, 49.0612
12.255646318, 96.390, 2437.0, 49.3660
12.281906883, 96.390, 2416.0, 49.1528
12.308167449, 96.390, 2340.0, 48.3735
12.334428014, 96.390, 2414.0, 49.1325
12.360688579, 96.390, 2363.0, 48.6107
12.386949145, 96.390, 2363.0, 48.6107
12.413209710, 96.390, 2448.0, 49.4773
12.439470275, 96.390, 2339.0, 48.3632
12.465730841, 96.390, 2407.0, 49.0612
12.491991406, 96.390, 2436.0, 49.3559
12.518251971, 96.390, 2350.0, 48.4768
12.544512537, 96.390, 2415.0, 49.1426
12.570773102, 96.390, 2402.0, 49.0102
12.597033667, 96.390, 2363.0, 48.6107
12.623294233, 96.390, 2479.0, 49.7896
12.649554798, 96.390, 2409.0, 49.0816
12.675815364, 96.390, 2406.0, 49.0510
12.702075929, 96.390, 2339.0, 48.3632
12.728336494, 96.390, 2388.0, 48.8672
12.754597060, 96.390, 2493.0, 49.9300
12.780857625, 96.390, 2312.0, 48.0833
12.807118190, 96.390, 2243.0, 47.3603
12.833378756, 96.390, 2404.0, 49.0306
12.859639321, 96.390, 2367.0, 48.6518
12.885899886, 96.390, 2305.0, 48.0104
12.912160452, 96.390, 2255.0, 47.4868
12.938421017, 96.390, 2254.0, 47.4763
12.964681582, 96.390, 2386.0, 48.8467
12.990942148, 96.390, 2315.0, 48.1144
13.017202713, 96.390, 2267.0, 47.6130
13.043463279, 96.390, 2299.0, 47.9479
13.069723844, 96.390, 2394.0, 48.9285
13.095984409, 96.390, 2345.0, 48.4252
13.122244975, 96.390, 2304.0, 48.0000
13.148505540, 96.390, 2331.0, 48.2804
13.174766105, 96.390, 2244.0, 47.3709
13.201026671, 96.390, 2203.0, 46.9361
13.227287236, 96.390, 2404.0, 49.0306
13.253547801, 96.390, 2390.0, 48.8876
13.279808367, 96.390, 2247.0, 47.4025
13.306068932, 96.390, 2254.0, 47.4763
13.332329497, 96.390, 2315.0, 48.1144
13.358590063, 96.390, 2233.0, 47.2546
13.384850628, 96.390, 2272.0, 47.6655
13.411111193, 96.390, 2392.0, 48.9081
13.437371759, 96.390, 2278.0, 47.7284
13.463632324, 96.390, 2366.0, 48.6415
13.489892890, 96.390, 2289.0, 47.8435
13.516153455, 96.390, 2339.0, 48.3632
13.542414020, 96.390, 2311.0, 48.0729
13.568674586, 96.390, 2224.0, 47.1593
13.594935151, 96.390, 2247.0, 47.4025
13.621195716, 96.390, 2282.0, 47.7703
13.647456282, 96.390, 2305.0, 48.0104
13.673716847, 96.390, 2333.0, 48.3011
13.699977412, 96.390, 2281.0, 47.7598
13.726237978, 96.390, 2347.0, 48.4458
13.752498543, 96.390, 2291.0, 47.8644
13.778759108, 96.390, 2247.0, 47.4025
13.805019674, 96.390, 2292.0, 47.8748
13.831280239, 96.390, 2223.0, 47.1487
13.857540805, 96.390, 2218.0, 47.0956
13.883801370, 96.390, 2277.0, 47.7179
13.910061935, 96.390, 2307.0, 48.0312
13.936322501, 96.390, 2176.0, 46.6476
13.962583066, 96.390, 2268.0, 47.6235
13.988843631, 96.390, 2262.0, 47.5605
14.015104197, 96.390, 2346.0, 48.4355
14.041364762, 96.390, 2238.0, 47.3075
14.067625327, 96.390, 2270.0, 47.6445
14.093885893, 96.390, 2214.0, 47.0532
14.120146458, 96.390, 2328.0, 48.2494
14.146407023, 96.390, 2259.0, 47.5289
14.172667589, 96.390, 2323.0, 48.1975
14.198928154, 96.390, 2306.0, 48.0208
14.225188719, 96.390, 2251.0, 47.4447
14.251449285, 96.390, 2206.0, 46.9681
14.277709850, 96.390, 2247.0, 47.4025
14.303970416, 96.390, 2255.0, 47.4868
14.330230981, 96.390, 2383.0, 48.8160
14.356491546, 96.390, 2235.0, 47.2758
14.382752112, 96.390, 2280.0, 47.7493
14.409012677, 96.390, 2240.0, 47.3286
14.435273242, 96.390, 2173.0, 46.6154
14.461533808, 96.390, 2195.0, 46.8508
14.487794373, 96.390, 2337.0, 48.3425
14.514054938, 96.390, 2322.0, 48.1871
14.540315504, 96.390, 2375.0, 48.7340
14.566576069, 96.390, 2248.0, 47.4131
14.592836634, 96.390, 2360.0, 48.5798
14.619097200, 96.390, 2282.0, 47.7703
14.645357765, 96.390, 2287.0, 47.8226
14.671618331, 96.390, 2248.0, 47.4131
14.697878896, 96.390, 2340.0, 48.3735
14.724139461, 96.390, 2288.0, 47.8330
14.750400027, 96.390, 2288.0, 47.8330
14.776660592, 96.390, 2290.0, 47.8539
14.802921157, 96.390, 2364.0, 48.6210
14.829181723, 96.390, 2279.0, 47.7389
14.855442288, 96.390, 2234.0, 47.2652
14.881702853, 96.390, 2208.0, 46.9894
14.907963419, 96.390, 2230.0, 47.2229
14.934223984, 96.390, 2237.0, 47.2969
14.960484549, 96.390, 2298.0, 47.9375
14.986745115, 96.390, 2272.0, 47.6655
15.013005680, 96.390, 2336.0, 48.3322
15.039266245, 96.390, 2265.0, 47.5920
15.065526811, 96.390, 2240.0, 47.3286
15.091787376, 96.390, 2248.0, 47.4131
15.118047942, 96.390, 2289.0, 47.8435
15.144308507, 96.390, 2324.0, 48.2079
15.170569072, 96.390, 2329.0, 48.2597
15.196829638, 96.390, 2248.0, 47.4131
15.223090203, 96.390, 2291.0, 47.8644
15.249350768, 96.390, 2277.0, 47.7179
15.275611334, 96.390, 2284.0, 47.7912
15.301871899, 96.390, 2241.0, 47.3392
15.328132464, 96.390, 2244.0, 47.3709
15.354393030, 96.390, 2296.0, 47.9166
15.380653595, 96.390, 2265.0, 47.5920
15.406914160, 96.390, 2314.0, 48.1041
15.433174726, 96.390, 2234.0, 47.2652
15.459435291, 96.390, 2363.0, 48.6107
15.485695857, 96.390, 2292.0, 47.8748
15.511956422, 96.390, 2391.0, 48.8979
15.538216987, 96.390, 2356.0, 48.5386
15.564477553, 96.390, 2292.0, 47.8748
15.590738118, 96.390, 2320.0, 48.1664
15.616998683, 96.390, 2311.0, 48.0729
15.643259249, 96.390, 2197.0, 46.8722
15.669519814, 96.390, 2322.0, 48.1871
15.695780379, 96.390, 2357.0, 48.5489
15.722040945, 96.390, 2299.0, 47.9479
15.748301510, 96.390, 2294.0, 47.8957
15.774562075, 96.390, 2424.0, 49.2341
15.800822641, 96.390, 2329.0, 48.2597
15.827083206, 96.390, 2309.0, 48.0521
15.853343771, 96.390, 2259.0, 47.5289
15.879604337, 96.390, 2337.0, 48.3425
15.905864902, 96.390, 2342.0, 48.3942
15.932125468, 96.390, 2383.0, 48.8160
15.958386033, 96.390, 2340.0, 48.3735
15.984646598, 96.390, 2413.0, 49.1223
16.010907164, 96.390, 2335.0, 48.3218
16.037167729, 96.390, 2274.0, 47.6865
16.063428294, 96.390, 2406.0, 49.0510
16.089688860, 96.390, 2394.0, 48.9285
16.115949425, 96.390, 2443.0, 49.4267
16.142209990, 96.390, 2294.0, 47.8957
16.168470556, 96.390, 2327.0, 48.2390
16.194731121, 96.390, 2401.0, 49.0000
16.220991686, 96.390, 2470.0, 49.6991
16.247252252, 96.390, 2383.0, 48.8160
16.273512817, 96.390, 2372.0, 48.7032
16.299773382, 96.390, 2421.0, 49.2037
16.326033948, 96.390, 2424.0, 49.2341
16.352294513, 96.390, 2451.0, 49.5076
16.378555079, 96.390, 2452.0, 49.5177
16.404815644, 96.390, 2452.0, 49.5177
16.431076209, 96.390, 2431.0, 49.3052
16.457336775, 96.390, 2435.0, 49.3457
16.483597340, 96.390, 2506.0, 50.0600
16.509857905, 96.390, 2404.0, 49.0306
16.536118471, 96.390, 2411.0, 49.1019
16.562379036, 96.390, 2358.0, 48.5592
16.588639601, 96.390, 2481.0, 49.8096
16.614900167, 96.390, 2478.0, 49.7795
16.641160732, 96.390, 2452.0, 49.5177
16.667421297, 96.390, 2461.0, 49.6085
16.693681863, 96.390, 2451.0, 49.5076
16.719942428, 96.390, 2454.0, 49.5379
16.746202994, 96.390, 2455.0, 49.5480
16.772463559, 96.390, 2428.0, 49.2747
16.798724124, 96.390, 2501.0, 50.0100
16.824984690, 96.390, 2602.0, 51.0098
16.851245255, 96.390, 2605.0, 51.0392
16.877505820, 96.390, 2475.0, 49.7494
16.903766386, 96.390, 2522.0, 50.2195
16.930026951, 96.390, 2522.0, 50.2195
16.956287516, 96.390, 2451.0, 49.5076
16.982548082, 96.390, 2494.0, 49.9400
17.008808647, 96.390, 2566.0, 50.6557
17.035069212, 96.390, 2566.0, 50.6557
17.061329778, 96.390, 2498.0, 49.9800
17.087590343, 96.390, 2549.0, 50.4876
17.113850908, 96.390, 2539.0, 50.3885
17.140111474, 96.390, 2517.0, 50.1697
17.166372039, 96.390, 2579.0, 50.7839
17.192632605, 96.390, 2655.0, 51.5267
17.218893170, 96.390, 2514.0, 50.1398
17.245153735, 96.390, 2638.0, 51.3615
17.271414301, 96.390, 2582.0, 50.8134
17.297674866, 96.390, 2651.0, 51.4879
17.323935431, 96.390, 2662.0, 51.5946
17.350195997, 96.390, 2622.0, 51.2055
17.376456562, 96.390, 2642.0, 51.4004
17.402717127, 96.390, 2709.0, 52.0481
17.428977693, 96.390, 2644.0, 51.4198
17.455238258, 96.390, 2701.0, 51.9711
17.481498823, 96.390, 2705.0, 52.0096
17.507759389, 96.390, 2637.0, 51.3517
17.534019954, 96.390, 2604.0, 51.0294
17.560280520, 96.390, 2700.0, 51.9615
17.586541085, 96.390, 2817.0, 53.0754
17.612801650, 96.390, 2700.0, 51.9615
17.639062216, 96.390, 2745.0, 52.3927
17.665322781, 96.390, 2756.0, 52.4976
17.691583346, 96.390, 2632.0, 51.3030
17.717843912, 96.390, 2796.0, 52.8772
17.744104477, 96.390, 2754.0, 52.4786
17.770365042, 96.390, 2874.0, 53.6097
17.796625608, 96.390, 2761.0, 52.5452
17.822886173, 96.390, 2729.0, 52.2398
17.849146738, 96.390, 2739.0, 52.3355
17.875407304, 96.390, 2713.0, 52.0865
17.901667869, 96.390, 2815.0, 53.0566
17.927928434, 96.390, 2714.0, 52.0961
17.954189000, 96.390, 2885.0, 53.7122
17.980449565, 96.390, 2790.0, 52.8205
18.006710131, 96.390, 2728.0, 52.2303
18.032970696, 96.390, 2844.0, 53.3292
18.059231261, 96.390, 2836.0, 53.2541
18.085491827, 96.390, 2829.0, 53.1883
18.111752392, 96.390, 2853.0, 53.4135
18.138012957, 96.390, 2866.0, 53.5350
18.164273523, 96.390, 2928.0, 54.1110
18.190534088, 96.390, 2905.0, 53.8981
18.216794653, 96.390, 2908.0, 53.9259
18.243055219, 96.390, 2956.0, 54.3691
18.269315784, 96.390, 2974.0, 54.5344
18.295576349, 96.390, 3031.0, 55.0545
18.321836915, 96.390, 2964.0, 54.4426
18.348097480, 96.390, 3018.0, 54.9363
18.374358046, 96.390, 2816.0, 53.0660
18.400618611, 96.390, 3006.0, 54.8270
18.426879176, 96.390, 3046.0, 55.1906
18.453139742, 96.390, 2907.0, 53.9166
18.479400307, 96.390, 3136.0, 56.0000
18.505660872, 96.390, 3024.0, 54.9909
18.531921438, 96.390, 3089.0, 55.5788
18.558182003, 96.390, 3132.0, 55.9643
18.584442568, 96.390, 2976.0, 54.5527
18.610703134, 96.390, 3106.0, 55.7315
18.636963699, 96.390, 3043.0, 55.1634
18.663224264, 96.390, 3068.0, 55.3895
18.689484830, 96.390, 3064.0, 55.3534
18.715745395, 96.390, 3126.0, 55.9106
18.742005960, 96.390, 3148.0, 56.1070
18.768266526, 96.390, 3211.0, 56.6657
18.794527091, 96.390, 3262.0, 57.1139
18.820787657, 96.390, 3234.0, 56.8683
18.847048222, 96.390, 3249.0, 57.0000
18.873308787, 96.390, 3084.0, 55.5338
18.899569353, 96.390, 3206.0, 56.6216
18.925829918, 96.390, 3256.0, 57.0614
18.952090483, 96.390, 3223.0, 56.7715
18.978351049, 96.390, 3230.0, 56.8331
19.004611614, 96.390, 3300.0, 57.4456
19.030872179, 96.390, 3211.0, 56.6657
19.057132745, 96.390, 3219.0, 56.7362
19.083393310, 96.390, 3302.0, 57.4630
19.109653875, 96.390, 3284.0, 57.3062
19.135914441, 96.390, 3251.0, 57.0175
19.162175006, 96.390, 3182.0, 56.4092
19.188435572, 96.390, 3315.0, 57.5760
19.214696137, 96.390, 3304.0, 57.4804
19.240956702, 96.390, 3340.0, 57.7927
19.267217268, 96.390, 3486.0, 59.0424
19.293477833, 96.390, 3368.0, 58.0345
19.319738398, 96.390, 3462.0, 58.8388
19.345998964, 96.390, 3439.0, 58.6430
19.372259529, 96.390, 3418.0, 58.4637
19.398520094, 96.390, 3431.0, 58.5747
19.424780660, 96.390, 3457.0, 58.7963
19.451041225, 96.390, 3434.0, 58.6003
19.477301790, 96.390, 3553.0, 59.6070
19.503562356, 96.390, 3522.0, 59.3464
19.529822921, 96.390, 3566.0, 59.7160
19.556083486, 96.390, 3513.0, 59.2706
19.582344052, 96.390, 3626.0, 60.2163
19.608604617, 96.390, 3552.0, 59.5987
19.634865183, 96.390, 3550.0, 59.5819
19.661125748, 96.390, 3632.0, 60.2661
19.687386313, 96.390, 3647.0, 60.3904
19.713646879, 96.390, 3626.0, 60.2163
19.739907444, 96.390, 3783.0, 61.5061
19.766168009, 96.390, 3679.0, 60.6548
19.792428575, 96.390, 3647.0, 60.3904
19.818689140, 96.390, 3718.0, 60.9754
19.844949705, 96.390, 3775.0, 61.4410
19.871210271, 96.390, 3771.0, 61.4085
19.897470836, 96.390, 3865.0, 62.1691
19.923731401, 96.390, 3707.0, 60.8851
19.949991967, 96.390, 3962.0, 62.9444
19.976252532, 96.390, 3927.0, 62.6658
20.002513097, 96.390, 3989.0, 63.1585
20.028773663, 96.390, 3959.0, 62.9206
20.055034228, 96.390, 3999.0, 63.2376
20.081294794, 96.390, 4208.0, 64.8691
20.107555359, 96.390, 4106.0, 64.0781
20.133815924, 96.390, 4227.0, 65.0154
20.160076490, 96.390, 4329.0, 65.7951
20.186337055, 96.390, 4348.0, 65.9394
20.212597620, 96.390, 4384.0, 66.2118
20.238858186, 96.390, 4453.0, 66.7308
20.265118751, 96.390, 4561.0, 67.5352
20.291379316, 96.390, 4522.0, 67.2458
20.317639882, 96.390, 4699.0, 68.5493
20.343900447, 96.390, 4547.0, 67.4314
20.370161012, 96.390, 4535.0, 67.3424
20.396421578, 96.390, 4535.0, 67.3424
20.422682143, 96.390, 4544.0, 67.4092
20.448942709, 96.390, 4655.0, 68.2276
20.475203274, 96.390, 4658.0, 68.2495
20.501463839, 96.390, 4580.0, 67.6757
20.527724405, 96.390, 4497.0, 67.0597
20.553984970, 96.390, 4619.0, 67.9632
20.580245535, 96.390, 4400.0, 66.3325
20.606506101, 96.390, 4456.0, 66.7533
20.632766666, 96.390, 4469.0, 66.8506
20.659027231, 96.390, 4600.0, 67.8233
20.685287797, 96.390, 4549.0, 67.4463
20.711548362, 96.390, 4528.0, 67.2904
20.737808927, 96.390, 4344.0, 65.9090
20.764069493, 96.390, 4371.0, 66.1135
20.790330058, 96.390, 4501.0, 67.0895
20.816590623, 96.390, 4577.0, 67.6535
20.842851189, 96.390, 4485.0, 66.9701
20.869111754, 96.390, 4436.0, 66.6033
20.895372320, 96.390, 4512.0, 67.1714
20.921632885, 96.390, 4480.0, 66.9328
20.947893450, 96.390, 4504.0, 67.1118
20.974154016, 96.390, 4446.0, 66.6783
21.000414581, 96.390, 4542.0, 67.3944
21.026675146, 96.390, 4467.0, 66.8356
21.052935712, 96.390, 4457.0, 66.7608
21.079196277, 96.390, 4524.0, 67.2607
21.105456842, 96.390, 4606.0, 67.8675
21.131717408, 96.390, 4626.0, 68.0147
21.157977973, 96.390, 4681.0, 68.4178
21.184238538, 96.390, 4741.0, 68.8549
21.210499104, 96.390, 4822.0, 69.4406
21.236759669, 96.390, 4697.0, 68.5347
21.263020235, 96.390, 4822.0, 69.4406
21.289280800, 96.390, 4915.0, 70.1071
21.315541365, 96.390, 4935.0, 70.2496
21.341801931, 96.390, 5081.0, 71.2811
21.368062496, 96.390, 5154.0, 71.7914
21.394323061, 96.390, 5271.0, 72.6017
21.420583627, 96.390, 5207.0, 72.1595
21.446844192, 96.390, 5054.0, 71.0915
21.473104757, 96.390, 5415.0, 73.5867
21.499365323, 96.390, 5234.0, 72.3464
21.525625888, 96.390, 5171.0, 71.9097
21.551886453, 96.390, 5076.0, 71.2461
21.578147019, 96.390, 5024.0, 70.8802
21.604407584, 96.390, 4888.0, 69.9142
21.630668149, 96.390, 5028.0, 70.9084
21.656928715, 96.390, 4736.0, 68.8186
21.683189280, 96.390, 4833.0, 69.5198
21.709449846, 96.390, 4692.0, 68.4982
21.735710411, 96.390, 4821.0, 69.4334
21.761970976, 96.390, 4761.0, 69.0000
21.788231542, 96.390, 4616.0, 67.9412
21.814492107, 96.390, 4541.0, 67.3869
21.840752672, 96.390, 4667.0, 68.3154
21.867013238, 96.390, 4527.0, 67.2830
21.893273803, 96.390, 4438.0, 66.6183
21.919534368, 96.390, 4530.0, 67.3053
21.945794934, 96.390, 4608.0, 67.8823
21.972055499, 96.390, 4485.0, 66.9701
21.998316064, 96.390, 4534.0, 67.3350
22.024576630, 96.390, 4492.0, 67.0224
22.050837195, 96.390, 4587.0, 67.7274
22.077097761, 96.390, 4627.0, 68.0221
22.103358326, 96.390, 4398.0, 66.3174
22.129618891, 96.390, 4442.0, 66.6483
22.155879457, 96.390, 4383.0, 66.2042
22.182140022, 96.390, 4468.0, 66.8431
22.208400587, 96.390, 4635.0, 68.0808
22.234661153, 96.390, 4411.0, 66.4154
22.260921718, 96.390, 4576.0, 67.6461
22.287182283, 96.390, 4533.0, 67.3276
22.313442849, 96.390, 4516.0, 67.2012
22.339703414, 96.390, 4473.0, 66.8805
22.365963979, 96.390, 4377.0, 66.1589
22.392224545, 96.390, 4514.0, 67.1863
22.418485110, 96.390, 4410.0, 66.4078
22.444745675, 96.390, 4515.0, 67.1937
22.471006241, 96.390, 4460.0, 66.7832
22.497266806, 96.390, 4428.0, 66.5432
22.523527372, 96.390, 4463.0, 66.8057
22.549787937, 96.390, 4461.0, 66.7907
22.576048502, 96.390, 4393.0, 66.2797
22.602309068, 96.390, 4451.0, 66.7158
22.628569633, 96.390, 4474.0, 66.8880
22.654830198, 96.390, 4444.0, 66.6633
22.681090764, 96.390, 4441.0, 66.6408
22.707351329, 96.390, 4460.0, 66.7832
22.733611894, 96.390, 4423.0, 66.5056
22.759872460, 96.390, 4417.0, 66.4605
22.786133025, 96.390, 4427.0, 66.5357
22.812393590, 96.390, 4410.0, 66.4078
22.838654156, 96.390, 4413.0, 66.4304
22.864914721, 96.390, 4326.0, 65.7723
22.891175287, 96.390, 4380.0, 66.1816
22.917435852, 96.390, 4335.0, 65.8407
22.943696417, 96.390, 4419.0, 66.4756
22.969956983, 96.390, 4429.0, 66.5507
22.996217548, 96.390, 4229.0, 65.0308
23.022478113, 96.390, 4263.0, 65.2917
23.048738679, 96.390, 4340.0, 65.8787
23.074999244, 96.390, 4338.0, 65.8635
23.101259809, 96.390, 4254.0, 65.2227
23.127520375, 96.390, 4330.0, 65.8027
23.153780940, 96.390, 4182.0, 64.6684
23.180041505, 96.390, 4192.0, 64.7457
23.206302071, 96.390, 4161.0, 64.5058
23.232562636, 96.390, 4194.0, 64.7611
23.258823201, 96.390, 4122.0, 64.2028
23.285083767, 96.390, 4246.0, 65.1613
23.311344332, 96.390, 4098.0, 64.0156
23.337604898, 96.390, 4120.0, 64.1872
23.363865463, 96.390, 4110.0, 64.1093
23.390126028, 96.390, 3976.0, 63.0555
23.416386594, 96.390, 4072.0, 63.8122
23.442647159, 96.390, 4031.0, 63.4902
23.468907724, 96.390, 4011.0, 63.3325
23.495168290, 96.390, 4008.0, 63.3088
23.521428855, 96.390, 4143.0, 64.3661
23.547689420, 96.390, 4075.0, 63.8357
23.573949986, 96.390, 4000.0, 63.2456
23.600210551, 96.390, 3924.0, 62.6418
23.626471116, 96.390, 3907.0, 62.5060
23.652731682, 96.390, 3916.0, 62.5780
23.678992247, 96.390, 3894.0, 62.4019
23.705252813, 96.390, 3934.0, 62.7216
23.731513378, 96.390, 3801.0, 61.6523
23.757773943, 96.390, 3851.0, 62.0564
23.784034509, 96.390, 3893.0, 62.3939
23.810295074, 96.390, 3786.0, 61.5305
23.836555639, 96.390, 3897.0, 62.4260
23.862816205, 96.390, 3825.0, 61.8466
23.889076770, 96.390, 3902.0, 62.4660
23.915337335, 96.390, 3874.0, 62.2415
23.941597901, 96.390, 3887.0, 62.3458
23.967858466, 96.390, 3634.0, 60.2827
23.994119031, 96.390, 3752.0, 61.2536
24.020379597, 96.390, 3714.0, 60.9426
24.046640162, 96.390, 3703.0, 60.8523
24.072900727, 96.390, 3778.0, 61.4654
24.099161293, 96.390, 3765.0, 61.3596
24.125421858, 96.390, 3658.0, 60.4814
24.151682424, 96.390, 3705.0, 60.8687
24.177942989, 96.390, 3653.0, 60.4401
24.204203554, 96.390, 3788.0, 61.5467
24.230464120, 96.390, 3670.0, 60.5805
24.256724685, 96.390, 3697.0, 60.8030
24.282985250, 96.390, 3657.0, 60.4731
24.309245816, 96.390, 3773.0, 61.4248
24.335506381, 96.390, 3684.0, 60.6960
24.361766946, 96.390, 3655.0, 60.4566
24.388027512, 96.390, 3582.0, 59.8498
24.414288077, 96.390, 3648.0, 60.3987
24.440548642, 96.390, 3543.0, 59.5231
24.466809208, 96.390, 3579.0, 59.8247
24.493069773, 96.390, 3601.0, 60.0083
24.519330338, 96.390, 3565.0, 59.7076
24.545590904, 96.390, 3584.0, 59.8665
24.571851469, 96.390, 3498.0, 59.1439
24.598112035, 96.390, 3516.0, 59.2959
24.624372600, 96.390, 3460.0, 58.8218
24.650633165, 96.390, 3521.0, 59.3380
24.676893731, 96.390, 3518.0, 59.3127
24.703154296, 96.390, 3497.0, 59.1354
24.729414861, 96.390, 3388.0, 58.2065
24.755675427, 96.390, 3537.0, 59.4727
24.781935992, 96.390, 3446.0, 58.7026
24.808196557, 96.390, 3477.0, 58.9661
24.834457123, 96.390, 3388.0, 58.2065
24.860717688, 96.390, 3382.0, 58.1550
24.886978253, 96.390, 3428.0, 58.5491
24.913238819, 96.390, 3499.0, 59.1523
24.939499384, 96.390, 3315.0, 57.5760
24.965759950, 96.390, 3377.0, 58.1120
24.992020515, 96.390, 3387.0, 58.1979
25.018281080, 96.390, 3408.0, 58.3781
25.044541646, 96.390, 3412.0, 58.4123
25.070802211, 96.390, 3258.0, 57.0789
25.097062776, 96.390, 3310.0, 57.5326
25.123323342, 96.390, 3269.0, 57.1752
25.149583907, 96.390, 3322.0, 57.6368
25.175844472, 96.390, 3409.0, 58.3866
25.202105038, 96.390, 3314.0, 57.5674
25.228365603, 96.390, 3451.0, 58.7452
25.254626168, 96.390, 3237.0, 56.8946
25.280886734, 96.390, 3196.0, 56.5332
25.307147299, 96.390, 3306.0, 57.4978
25.333407864, 96.390, 3188.0, 56.4624
25.359668430, 96.390, 3299.0, 57.4369
25.385928995, 96.390, 3158.0, 56.1961
25.412189561, 96.390, 3188.0, 56.4624
25.438450126, 96.390, 3215.0, 56.7010
25.464710691, 96.390, 3098.0, 55.6597
25.490971257, 96.390, 3244.0, 56.9561
25.517231822, 96.390, 3073.0, 55.4346
25.543492387, 96.390, 3163.0, 56.2406
25.569752953, 96.390, 3066.0, 55.3715
25.596013518, 96.390, 3184.0, 56.4269
25.622274083, 96.390, 3194.0, 56.5155
25.648534649, 96.390, 3114.0, 55.8032
25.674795214, 96.390, 3173.0, 56.3294
25.701055779, 96.390, 3166.0, 56.2672
25.727316345, 96.390, 3093.0, 55.6147
25.753576910, 96.390, 3194.0, 56.5155
25.779837476, 96.390, 3117.0, 55.8301
25.806098041, 96.390, 2985.0, 54.6352
25.832358606, 96.390, 2969.0, 54.4885
25.858619172, 96.390, 3052.0, 55.2449
25.884879737, 96.390, 3117.0, 55.8301
25.911140302, 96.390, 3093.0, 55.6147
25.937400868, 96.390, 3021.0, 54.9636
25.963661433, 96.390, 3055.0, 55.2721
25.989921998, 96.390, 2997.0, 54.7449
26.016182564, 96.390, 3052.0, 55.2449
26.042443129, 96.390, 2968.0, 54.4794
26.068703694, 96.390, 3036.0, 55.0999
26.094964260, 96.390, 3046.0, 55.1906
26.121224825, 96.390, 2967.0, 54.4702
26.147485390, 96.390, 3014.0, 54.8999
26.173745956, 96.390, 2945.0, 54.2679
26.200006521, 96.390, 2902.0, 53.8702
26.226267087, 96.390, 2901.0, 53.8609
26.252527652, 96.390, 3004.0, 54.8088
26.278788217, 96.390, 2982.0, 54.6077
26.305048783, 96.390, 2861.0, 53.4883
26.331309348, 96.390, 2857.0, 53.4509
26.357569913, 96.390, 2869.0, 53.5630
26.383830479, 96.390, 2854.0, 53.4228
26.410091044, 96.390, 2979.0, 54.5802
26.436351609, 96.390, 2881.0, 53.6749
26.462612175, 96.390, 2948.0, 54.2955
26.488872740, 96.390, 2806.0, 52.9717
26.515133305, 96.390, 2824.0, 53.1413
26.541393871, 96.390, 2855.0, 53.4322
26.567654436, 96.390, 2878.0, 53.6470
26.593915002, 96.390, 2928.0, 54.1110
26.620175567, 96.390, 2795.0, 52.8678
26.646436132, 96.390, 2769.0, 52.6213
26.672696698, 96.390, 2830.0, 53.1977
26.698957263, 96.390, 2810.0, 53.0094
26.725217828, 96.390, 2800.0, 52.9150
26.751478394, 96.390, 2817.0, 53.0754
26.777738959, 96.390, 2886.0, 53.7215
26.803999524, 96.390, 2762.0, 52.5547
26.830260090, 96.390, 2757.0, 52.5071
26.856520655, 96.390, 2804.0, 52.9528
26.882781220, 96.390, 2775.0, 52.6783
26.909041786, 96.390, 2796.0, 52.8772
26.935302351, 96.390, 2677.0, 51.7397
26.961562916, 96.390, 2735.0, 52.2972
26.987823482, 96.390, 2692.0, 51.8845
27.014084047, 96.390, 2729.0, 52.2398
27.040344613, 96.390, 2762.0, 52.5547
27.066605178, 96.390, 2758.0, 52.5167
27.092865743, 96.390, 2725.0, 52.2015
27.119126309, 96.390, 2702.0, 51.9808
27.145386874, 96.390, 2636.0, 51.3420
27.171647439, 96.390, 2579.0, 50.7839
27.197908005, 96.390, 2603.0, 51.0196
27.224168570, 96.390, 2691.0, 51.8748
27.250429135, 96.390, 2617.0, 51.1566
27.276689701, 96.390, 2708.0, 52.0384
27.302950266, 96.390, 2687.0, 51.8363
27.329210831, 96.390, 2664.0, 51.6140
27.355471397, 96.390, 2593.0, 50.9215
27.381731962, 96.390, 2576.0, 50.7543
27.407992528, 96.390, 2685.0, 51.8170
27.434253093, 96.390, 2658.0, 51.5558
27.460513658, 96.390, 2655.0, 51.5267
27.486774224, 96.390, 2528.0, 50.2792
27.513034789, 96.390, 2561.0, 50.6063
27.539295354, 96.390, 2589.0, 50.8822
27.565555920, 96.390, 2487.0, 49.8698
27.591816485, 96.390, 2601.0, 51.0000
27.618077050, 96.390, 2493.0, 49.9300
27.644337616, 96.390, 2577.0, 50.7642
27.670598181, 96.390, 2530.0, 50.2991
27.696858746, 96.390, 2602.0, 51.0098
27.723119312, 96.390, 2479.0, 49.7896
27.749379877, 96.390, 2452.0, 49.5177
27.775640442, 96.390, 2400.0, 48.9898
27.801901008, 96.390, 2450.0, 49.4975
27.828161573, 96.390, 2510.0, 50.0999
27.854422139, 96.390, 2462.0, 49.6185
27.880682704, 96.390, 2411.0, 49.1019
27.906943269, 96.390, 2473.0, 49.7293
27.933203835, 96.390, 2498.0, 49.9800
27.959464400, 96.390, 2491.0, 49.9099
27.985724965, 96.390, 2404.0, 49.0306
28.011985531, 96.390, 2466.0, 49.6588
28.038246096, 96.390, 2373.0, 48.7134
28.064506661, 96.390, 2464.0, 49.6387
28.090767227, 96.390, 2514.0, 50.1398
28.117027792, 96.390, 2564.0, 50.6360
28.143288357, 96.390, 2510.0, 50.0999
28.169548923, 96.390, 2447.0, 49.4672
28.195809488, 96.390, 2430.0, 49.2950
28.222070054, 96.390, 2348.0, 48.4562
28.248330619, 96.390, 2359.0, 48.5695
28.274591184, 96.390, 2444.0, 49.4368
28.300851750, 96.390, 2298.0, 47.9375
28.327112315, 96.390, 2405.0, 49.0408
28.353372880, 96.390, 2414.0, 49.1325
28.379633446, 96.390, 2425.0, 49.2443
28.405894011, 96.390, 2417.0, 49.1630
28.432154576, 96.390, 2338.0, 48.3529
28.458415142, 96.390, 2301.0, 47.9687
28.484675707, 96.390, 2439.0, 49.3862
28.510936272, 96.390, 2365.0, 48.6313
28.537196838, 96.390, 2413.0, 49.1223
28.563457403, 96.390, 2261.0, 47.5500
28.589717968, 96.390, 2394.0, 48.9285
28.615978534, 96.390, 2283.0, 47.7807
28.642239099, 96.390, 2302.0, 47.9792
28.668499665, 96.390, 2343.0, 48.4045
28.694760230, 96.390, 2342.0, 48.3942
28.721020795, 96.390, 2301.0, 47.9687
28.747281361, 96.390, 2252.0, 47.4552
28.773541926, 96.390, 2225.0, 47.1699
28.799802491, 96.390, 2315.0, 48.1144
28.826063057, 96.390, 2252.0, 47.4552
28.852323622, 96.390, 2308.0, 48.0416
28.878584187, 96.390, 2240.0, 47.3286
28.904844753, 96.390, 2308.0, 48.0416
28.931105318, 96.390, 2341.0, 48.3839
28.957365883, 96.390, 2284.0, 47.7912
28.983626449, 96.390, 2292.0, 47.8748
29.009887014, 96.390, 2313.0, 48.0937
29.036147579, 96.390, 2177.0, 46.6583
29.062408145, 96.390, 2221.0, 47.1275
29.088668710, 96.390, 2227.0, 47.1911
29.114929276, 96.390, 2280.0, 47.7493
29.141189841, 96.390, 2128.0, 46.1303
29.167450406, 96.390, 2256.0, 47.4974
29.193710972, 96.390, 2179.0, 46.6798
29.219971537, 96.390, 2164.0, 46.5188
29.246232102, 96.390, 2167.0, 46.5510
29.272492668, 96.390, 2172.0, 46.6047
29.298753233, 96.390, 2215.0, 47.0638
29.325013798, 96.390, 2162.0, 46.4973
29.351274364, 96.390, 2220.0, 47.1169
29.377534929, 96.390, 2108.0, 45.9130
29.403795494, 96.390, 2111.0, 45.9456
29.430056060, 96.390, 2158.0, 46.4543
29.456316625, 96.390, 2185.0, 46.7440
29.482577191, 96.390, 2126.0, 46.1086
29.508837756, 96.390, 2238.0, 47.3075
29.535098321, 96.390, 2158.0, 46.4543
29.561358887, 96.390, 2101.0, 45.8367
29.587619452, 96.390, 2141.0, 46.2709
29.613880017, 96.390, 2141.0, 46.2709
29.640140583, 96.390, 2176.0, 46.6476
29.666401148, 96.390, 2089.0, 45.7056
29.692661713, 96.390, 2135.0, 46.2061
29.718922279, 96.390, 2115.0, 45.9891
29.745182844, 96.390, 2183.0, 46.7226
29.771443409, 96.390, 2141.0, 46.2709
29.797703975, 96.390, 2145.0, 46.3141
29.823964540, 96.390, 2156.0, 46.4327
29.850225105, 96.390, 2071.0, 45.5082
29.876485671, 96.390, 2131.0, 46.1628
29.902746236, 96.390, 2032.0, 45.0777
29.929006802, 96.390, 2030.0, 45.0555
29.955267367, 96.390, 2039.0, 45.1553
29.981527932, 96.390, 2074.0, 45.5412
30.007788498, 96.390, 2003.0, 44.7549
30.034049063, 96.390, 2041.0, 45.1774
30.060309628, 96.390, 2023.0, 44.9778
30.086570194, 96.390, 2082.0, 45.6289
30.112830759, 96.390, 2086.0, 45.6727
30.139091324, 96.390, 2002.0, 44.7437
30.165351890, 96.390, 2073.0, 45.5302
30.191612455, 96.390, 2043.0, 45.1996
30.217873020, 96.390, 1921.0, 43.8292
30.244133586, 96.390, 2063.0, 45.4203
30.270394151, 96.390, 2013.0, 44.8665
30.296654717, 96.390, 2004.0, 44.7661
30.322915282, 96.390, 1948.0, 44.1362
30.349175847, 96.390, 2008.0, 44.8107
30.375436413, 96.390, 1981.0, 44.5084
30.401696978, 96.390, 1961.0, 44.2832
30.427957543, 96.390, 1957.0, 44.2380
30.454218109, 96.390, 2074.0, 45.5412
30.480478674, 96.390, 1888.0, 43.4511
30.506739239, 96.390, 1975.0, 44.4410
30.532999805, 96.390, 1885.0, 43.4166
30.559260370, 96.390, 1814.0, 42.5911
30.585520935, 96.390, 2018.0, 44.9222
30.611781501, 96.390, 1876.0, 43.3128
30.638042066, 96.390, 1955.0, 44.2154
30.664302631, 96.390, 1913.0, 43.7379
30.690563197, 96.390, 1968.0, 44.3621
30.716823762, 96.390, 1928.0, 43.9090
30.743084328, 96.390, 1942.0, 44.0681
30.769344893, 96.390, 1900.0, 43.5890
30.795605458, 96.390, 1937.0, 44.0114
30.821866024, 96.390, 1909.0, 43.6921
30.848126589, 96.390, 1957.0, 44.2380
30.874387154, 96.390, 1953.0, 44.1928
30.900647720, 96.390, 1963.0, 44.3058
30.926908285, 96.390, 1833.0, 42.8135
30.953168850, 96.390, 1868.0, 43.2204
30.979429416, 96.390, 1860.0, 43.1277
31.005689981, 96.390, 1927.0, 43.8976
31.031950546, 96.390, 1873.0, 43.2782
31.058211112, 96.390, 1856.0, 43.0813
31.084471677, 96.390, 1899.0, 43.5775
31.110732243, 96.390, 1858.0, 43.1045
31.136992808, 96.390, 1900.0, 43.5890
31.163253373, 96.390, 1916.0, 43.7721
31.189513939, 96.390, 1902.0, 43.6119
31.215774504, 96.390, 1836.0, 42.8486
31.242035069, 96.390, 1835.0, 42.8369
31.268295635, 96.390, 1737.0, 41.6773
31.294556200, 96.390, 1935.0, 43.9886
31.320816765, 96.390, 1770.0, 42.0714
31.347077331, 96.390, 1738.0, 41.6893
31.373337896, 96.390, 1860.0, 43.1277
31.399598461, 96.390, 1883.0, 43.3935
31.425859027, 96.390, 1837.0, 42.8602
31.452119592, 96.390, 1901.0, 43.6005
31.478380157, 96.390, 1802.0, 42.4500
31.504640723, 96.390, 1782.0, 42.2137
31.530901288, 96.390, 1725.0, 41.5331
31.557161854, 96.390, 1785.0, 42.2493
31.583422419, 96.390, 1781.0, 42.2019
31.609682984, 96.390, 1825.0, 42.7200
31.635943550, 96.390, 1792.0, 42.3320
31.662204115, 96.390, 1732.0, 41.6173
31.688464680, 96.390, 1788.0, 42.2847
31.714725246, 96.390, 1751.0, 41.8450
31.740985811, 96.390, 1728.0, 41.5692
31.767246376, 96.390, 1787.0, 42.2729
31.793506942, 96.390, 1785.0, 42.2493
31.819767507, 96.390, 1764.0, 42.0000
31.846028072, 96.390, 1709.0, 41.3401
31.872288638, 96.390, 1744.0, 41.7612
31.898549203, 96.390, 1799.0, 42.4146
31.924809769, 96.390, 1686.0, 41.0609
31.951070334, 96.390, 1724.0, 41.5211
31.977330899, 96.390, 1743.0, 41.7493
32.003591465, 96.390, 1708.0, 41.3280
32.029852030, 96.390, 1728.0, 41.5692
32.056112595, 96.390, 1745.0, 41.7732
32.082373161, 96.390, 1584.0, 39.7995
32.108633726, 96.390, 1763.0, 41.9881
32.134894291, 96.390, 1654.0, 40.6694
32.161154857, 96.390, 1751.0, 41.8450
32.187415422, 96.390, 1743.0, 41.7493
32.213675987, 96.390, 1582.0, 39.7744
32.239936553, 96.390, 1644.0, 40.5463
32.266197118, 96.390, 1655.0, 40.6817
32.292457683, 96.390, 1729.0, 41.5812
32.318718249, 96.390, 1651.0, 40.6325
32.344978814, 96.390, 1618.0, 40.2244
32.371239380, 96.390, 1618.0, 40.2244
32.397499945, 96.390, 1648.0, 40.5956
32.423760510, 96.390, 1644.0, 40.5463
32.450021076, 96.390, 1652.0, 40.6448
32.476281641, 96.390, 1677.0, 40.9512
32.502542206, 96.390, 1604.0, 40.0500
32.528802772, 96.390, 1632.0, 40.3980
32.555063337, 96.390, 1677.0, 40.9512
32.581323902, 96.390, 1676.0, 40.9390
32.607584468, 96.390, 1650.0, 40.6202
32.633845033, 96.390, 1615.0, 40.1871
32.660105598, 96.390, 1699.0, 41.2189
32.686366164, 96.390, 1591.0, 39.8873
32.712626729, 96.390, 1595.0, 39.9375
32.738887295, 96.390, 1583.0, 39.7869
32.765147860, 96.390, 1576.0, 39.6989
32.791408425, 96.390, 1649.0, 40.6079
32.817668991, 96.390, 1593.0, 39.9124
32.843929556, 96.390, 1628.0, 40.3485
32.870190121, 96.390, 1607.0, 40.0874
32.896450687, 96.390, 1594.0, 39.9249
32.922711252, 96.390, 1587.0, 39.8372
32.948971817, 96.390, 1616.0, 40.1995
32.975232383, 96.390, 1566.0, 39.5727
33.001492948, 96.390, 1566.0, 39.5727
33.027753513, 96.390, 1618.0, 40.2244
33.054014079, 96.390, 1509.0, 38.8458
33.080274644, 96.390, 1609.0, 40.1123
33.106535209, 96.390, 1605.0, 40.0625
33.132795775, 96.390, 1618.0, 40.2244
33.159056340, 96.390, 1537.0, 39.2046
33.185316906, 96.390, 1594.0, 39.9249
33.211577471, 96.390, 1561.0, 39.5095
33.237838036, 96.390, 1598.0, 39.9750
33.264098602, 96.390, 1605.0, 40.0625
33.290359167, 96.390, 1525.0, 39.0512
33.316619732, 96.390, 1585.0, 39.8121
33.342880298, 96.390, 1515.0, 38.9230
33.369140863, 96.390, 1530.0, 39.1152
33.395401428, 96.390, 1561.0, 39.5095
33.421661994, 96.390, 1493.0, 38.6394
33.447922559, 96.390, 1454.0, 38.1314
33.474183124, 96.390, 1508.0, 38.8330
33.500443690, 96.390, 1594.0, 39.9249
33.526704255, 96.390, 1560.0, 39.4968
33.552964820, 96.390, 1489.0, 38.5876
33.579225386, 96.390, 1545.0, 39.3065
33.605485951, 96.390, 1563.0, 39.5348
33.631746517, 96.390, 1487.0, 38.5616
33.658007082, 96.390, 1538.0, 39.2173
33.684267647, 96.390, 1512.0, 38.8844
33.710528213, 96.390, 1496.0, 38.6782
33.736788778, 96.390, 1526.0, 39.0640
33.763049343, 96.390, 1507.0, 38.8201
33.789309909, 96.390, 1478.0, 38.4448
33.815570474, 96.390, 1496.0, 38.6782
33.841831039, 96.390, 1544.0, 39.2938
33.868091605, 96.390, 1520.0, 38.9872
33.894352170, 96.390, 1435.0, 37.8814
33.920612735, 96.390, 1538.0, 39.2173
33.946873301, 96.390, 1479.0, 38.4578
33.973133866, 96.390, 1533.0, 39.1535
33.999394432, 96.390, 1461.0, 38.2230
34.025654997, 96.390, 1467.0, 38.3014
34.051915562, 96.390, 1477.0, 38.4318
34.078176128, 96.390, 1506.0, 38.8072
34.104436693, 96.390, 1495.0, 38.6652
34.130697258, 96.390, 1492.0, 38.6264
34.156957824, 96.390, 1471.0, 38.3536
34.183218389, 96.390, 1453.0, 38.1182
34.209478954, 96.390, 1452.0, 38.1051
34.235739520, 96.390, 1552.0, 39.3954
34.262000085, 96.390, 1531.0, 39.1280
34.288260650, 96.390, 1391.0, 37.2961
34.314521216, 96.390, 1478.0, 38.4448
34.340781781, 96.390, 1480.0, 38.4708
34.367042346, 96.390, 1497.0, 38.6911
34.393302912, 96.390, 1442.0, 37.9737
34.419563477, 96.390, 1407.0, 37.5100
34.445824043, 96.390, 1443.0, 37.9868
34.472084608, 96.390, 1389.0, 37.2693
34.498345173, 96.390, 1474.0, 38.3927
34.524605739, 96.390, 1476.0, 38.4187
34.550866304, 96.390, 1360.0, 36.8782
34.577126869, 96.390, 1439.0, 37.9342
34.603387435, 96.390, 1411.0, 37.5633
34.629648000, 96.390, 1430.0, 37.8153
34.655908565, 96.390, 1416.0, 37.6298
34.682169131, 96.390, 1432.0, 37.8418
34.708429696, 96.390, 1422.0, 37.7094
34.734690261, 96.390, 1317.0, 36.2905
34.760950827, 96.390, 1389.0, 37.2693
34.787211392, 96.390, 1387.0, 37.2424
34.813471958, 96.390, 1456.0, 38.1576
34.839732523, 96.390, 1370.0, 37.0135
34.865993088, 96.390, 1443.0, 37.9868
34.892253654, 96.390, 1488.0, 38.5746
34.918514219, 96.390, 1458.0, 38.1838
34.944774784, 96.390, 1425.0, 37.7492
34.971035350, 96.390, 1335.0, 36.5377
34.997295915, 96.390, 1399.0, 37.4032
35.023556480, 96.390, 1444.0, 38.0000
35.049817046, 96.390, 1437.0, 37.9078
35.076077611, 96.390, 1458.0, 38.1838
35.102338176, 96.390, 1495.0, 38.6652
35.128598742, 96.390, 1481.0, 38.4838
35.154859307, 96.390, 1429.0, 37.8021
35.181119872, 96.390, 1439.0, 37.9342
35.207380438, 96.390, 1459.0, 38.1969
35.233641003, 96.390, 1492.0, 38.6264
35.259901569, 96.390, 1499.0, 38.7169
35.286162134, 96.390, 1427.0, 37.7757
35.312422699, 96.390, 1549.0, 39.3573
35.338683265, 96.390, 1514.0, 38.9102
35.364943830, 96.390, 1568.0, 39.5980
35.391204395, 96.390, 1513.0, 38.8973
35.417464961, 96.390, 1506.0, 38.8072
35.443725526, 96.390, 1556.0, 39.4462
35.469986091, 96.390, 1514.0, 38.9102
35.496246657, 96.390, 1487.0, 38.5616
35.522507222, 96.390, 1537.0, 39.2046
35.548767787, 96.390, 1505.0, 38.7943
35.575028353, 96.390, 1499.0, 38.7169
35.601288918, 96.390, 1503.0, 38.7685
35.627549484, 96.390, 1462.0, 38.2361
35.653810049, 96.390, 1400.0, 37.4166
35.680070614, 96.390, 1454.0, 38.1314
35.706331180, 96.390, 1431.0, 37.8286
35.732591745, 96.390, 1403.0, 37.4566
35.758852310, 96.390, 1357.0, 36.8375
35.785112876, 96.390, 1445.0, 38.0132
35.811373441, 96.390, 1331.0, 36.4829
35.837634006, 96.390, 1378.0, 37.1214
35.863894572, 96.390, 1347.0, 36.7015
35.890155137, 96.390, 1361.0, 36.8917
35.916415702, 96.390, 1331.0, 36.4829
35.942676268, 96.390, 1332.0, 36.4966
35.968936833, 96.390, 1305.0, 36.1248
35.995197398, 96.390, 1375.0, 37.0810
36.021457964, 96.390, 1239.0, 35.1994
36.047718529, 96.390, 1310.0, 36.1939
36.073979095, 96.390, 1370.0, 37.0135
36.100239660, 96.390, 1304.0, 36.1109
36.126500225, 96.390, 1297.0, 36.0139
36.152760791, 96.390, 1365.0, 36.9459
36.179021356, 96.390, 1324.0, 36.3868
36.205281921, 96.390, 1291.0, 35.9305
36.231542487, 96.390, 1299.0, 36.0416
36.257803052, 96.390, 1317.0, 36.2905
36.284063617, 96.390, 1301.0, 36.0694
36.310324183, 96.390, 1327.0, 36.4280
36.336584748, 96.390, 1284.0, 35.8329
36.362845313, 96.390, 1312.0, 36.2215
36.389105879, 96.390, 1283.0, 35.8190
36.415366444, 96.390, 1277.0, 35.7351
36.441627010, 96.390, 1306.0, 36.1386
36.467887575, 96.390, 1318.0, 36.3043
36.494148140, 96.390, 1227.0, 35.0286
36.520408706, 96.390, 1280.0, 35.7771
36.546669271, 96.390, 1297.0, 36.0139
36.572929836, 96.390, 1209.0, 34.7707
36.599190402, 96.390, 1313.0, 36.2353
36.625450967, 96.390, 1249.0, 35.3412
36.651711532, 96.390, 1196.0, 34.5832
36.677972098, 96.390, 1165.0, 34.1321
36.704232663, 96.390, 1213.0, 34.8281
36.730493228, 96.390, 1293.0, 35.9583
36.756753794, 96.390, 1240.0, 35.2136
36.783014359, 96.390, 1297.0, 36.0139
36.809274924, 96.390, 1221.0, 34.9428
36.835535490, 96.390, 1236.0, 35.1568
36.861796055, 96.390, 1219.0, 34.9142
36.888056621, 96.390, 1248.0, 35.3270
36.914317186, 96.390, 1250.0, 35.3553
36.940577751, 96.390, 1234.0, 35.1283
36.966838317, 96.390, 1205.0, 34.7131
36.993098882, 96.390, 1111.0, 33.3317
37.019359447, 96.390, 1231.0, 35.0856
37.045620013, 96.390, 1247.0, 35.3129
37.071880578, 96.390, 1188.0, 34.4674
37.098141143, 96.390, 1135.0, 33.6898
37.124401709, 96.390, 1187.0, 34.4529
37.150662274, 96.390, 1206.0, 34.7275
37.176922839, 96.390, 1199.0, 34.6266
37.203183405, 96.390, 1221.0, 34.9428
37.229443970, 96.390, 1211.0, 34.7994
37.255704535, 96.390, 1166.0, 34.1467
37.281965101, 96.390, 1154.0, 33.9706
37.308225666, 96.390, 1150.0, 33.9116
37.334486232, 96.390, 1116.0, 33.4066
37.360746797, 96.390, 1192.0, 34.5254
37.387007362, 96.390, 1161.0, 34.0735
37.413267928, 96.390, 1218.0, 34.8999
37.439528493, 96.390, 1110.0, 33.3167
37.465789058, 96.390, 1122.0, 33.4963
37.492049624, 96.390, 1189.0, 34.4819
37.518310189, 96.390, 1108.0, 33.2866
37.544570754, 96.390, 1146.0, 33.8526
37.570831320, 96.390, 1152.0, 33.9411
37.597091885, 96.390, 1163.0, 34.1028
37.623352450, 96.390, 1173.0, 34.2491
37.649613016, 96.390, 1171.0, 34.2199
37.675873581, 96.390, 1136.0, 33.7046
37.702134147, 96.390, 1153.0, 33.9559
37.728394712, 96.390, 1137.0, 33.7194
37.754655277, 96.390, 1174.0, 34.2637
37.780915843, 96.390, 1144.0, 33.8231
37.807176408, 96.390, 1170.0, 34.2053
37.833436973, 96.390, 1060.0, 32.5576
37.859697539, 96.390, 1155.0, 33.9853
37.885958104, 96.390, 1100.0, 33.1662
37.912218669, 96.390, 1138.0, 33.7343
37.938479235, 96.390, 1157.0, 34.0147
37.964739800, 96.390, 1097.0, 33.1210
37.991000365, 96.390, 1132.0, 33.6452
38.017260931, 96.390, 1141.0, 33.7787
38.043521496, 96.390, 1067.0, 32.6650
38.069782061, 96.390, 1139.0, 33.7491
38.096042627, 96.390, 1157.0, 34.0147
38.122303192, 96.390, 1055.0, 32.4808
38.148563758, 96.390, 1143.0, 33.8083
38.174824323, 96.390, 1107.0, 33.2716
38.201084888, 96.390, 1113.0, 33.3617
38.227345454, 96.390, 1096.0, 33.1059
38.253606019, 96.390, 1061.0, 32.5730
38.279866584, 96.390, 1062.0, 32.5883
38.306127150, 96.390, 1089.0, 33.0000
38.332387715, 96.390, 1121.0, 33.4813
38.358648280, 96.390, 1068.0, 32.6803
38.384908846, 96.390, 1112.0, 33.3467
38.411169411, 96.390, 1090.0, 33.0151
38.437429976, 96.390, 1054.0, 32.4654
38.463690542, 96.390, 1038.0, 32.2180
38.489951107, 96.390, 1115.0, 33.3916
38.516211673, 96.390, 1120.0, 33.4664
38.542472238, 96.390, 1099.0, 33.1512
38.568732803, 96.390, 1050.0, 32.4037
38.594993369, 96.390, 1149.0, 33.8969
38.621253934, 96.390, 1130.0, 33.6155
38.647514499, 96.390, 1044.0, 32.3110
38.673775065, 96.390, 1069.0, 32.6956
38.700035630, 96.390, 1038.0, 32.2180
38.726296195, 96.390, 1061.0, 32.5730
38.752556761, 96.390, 1043.0, 32.2955
38.778817326, 96.390, 1041.0, 32.2645
38.805077891, 96.390, 1110.0, 33.3167
38.831338457, 96.390, 1030.0, 32.0936
38.857599022, 96.390, 999.0, 31.6070
38.883859587, 96.390, 1015.0, 31.8591
38.910120153, 96.390, 1072.0, 32.7414
38.936380718, 96.390, 1031.0, 32.1092
38.962641284, 96.390, 1030.0, 32.0936
38.988901849, 96.390, 1032.0, 32.1248
39.015162414, 96.390, 968.0, 31.1127
39.041422980, 96.390, 1085.0, 32.9393
39.067683545, 96.390, 1012.0, 31.8119
39.093944110, 96.390, 1051.0, 32.4191
39.120204676, 96.390, 994.0, 31.5278
39.146465241, 96.390, 1030.0, 32.0936
39.172725806, 96.390, 951.0, 30.8383
39.198986372, 96.390, 1014.0, 31.8434
39.225246937, 96.390, 1011.0, 31.7962
39.251507502, 96.390, 1074.0, 32.7719
39.277768068, 96.390, 999.0, 31.6070
39.304028633, 96.390, 1009.0, 31.7648
39.330289199, 96.390, 1028.0, 32.0624
39.356549764, 96.390, 988.0, 31.4325
39.382810329, 96.390, 983.0, 31.3528
39.409070895, 96.390, 986.0, 31.4006
39.435331460, 96.390, 1020.0, 31.9374
39.461592025, 96.390, 974.0, 31.2090
39.487852591, 96.390, 966.0, 31.0805
39.514113156, 96.390, 1062.0, 32.5883
39.540373721, 96.390, 992.0, 31.4960
39.566634287, 96.390, 988.0, 31.4325
39.592894852, 96.390, 1019.0, 31.9218
39.619155417, 96.390, 971.0, 31.1609
39.645415983, 96.390, 1036.0, 32.1870
39.671676548, 96.390, 1001.0, 31.6386
39.697937113, 96.390, 1031.0, 32.1092
39.724197679, 96.390, 923.0, 30.3809
39.750458244, 96.390, 1013.0, 31.8277
39.776718810, 96.390, 1003.0, 31.6702
39.802979375, 96.390, 964.0, 31.0483
39.829239940, 96.390, 966.0, 31.0805
39.855500506, 96.390, 1001.0, 31.6386
39.881761071, 96.390, 998.0, 31.5911
39.908021636, 96.390, 1021.0, 31.9531
39.934282202, 96.390, 1005.0, 31.7017
39.960542767, 96.390, 1004.0, 31.6860
39.986803332, 96.390, 960.0, 30.9839
40.013063898, 96.390, 1017.0, 31.8904
40.039324463, 96.390, 965.0, 31.0644
40.065585028, 96.390, 1024.0, 32.0000
40.091845594, 96.390, 972.0, 31.1769
40.118106159, 96.390, 986.0, 31.4006
40.144366725, 96.390, 1021.0, 31.9531
40.170627290, 96.390, 1016.0, 31.8748
40.196887855, 96.390, 993.0, 31.5119
40.223148421, 96.390, 966.0, 31.0805
40.249408986, 96.390, 1014.0, 31.8434
40.275669551, 96.390, 962.0, 31.0161
40.301930117, 96.390, 926.0, 30.4302
40.328190682, 96.390, 939.0, 30.6431
40.354451247, 96.390, 932.0, 30.5287
40.380711813, 96.390, 1013.0, 31.8277
40.406972378, 96.390, 966.0, 31.0805
40.433232943, 96.390, 946.0, 30.7571
40.459493509, 96.390, 938.0, 30.6268
40.485754074, 96.390, 951.0, 30.8383
40.512014639, 96.390, 971.0, 31.1609
40.538275205, 96.390, 904.0, 30.0666
40.564535770, 96.390, 999.0, 31.6070
40.590796336, 96.390, 955.0, 30.9031
40.617056901, 96.390, 956.0, 30.9192
40.643317466, 96.390, 987.0, 31.4166
40.669578032, 96.390, 902.0, 30.0333
40.695838597, 96.390, 958.0, 30.9516
40.722099162, 96.390, 978.0, 31.2730
40.748359728, 96.390, 935.0, 30.5778
40.774620293, 96.390, 977.0, 31.2570
40.800880858, 96.390, 931.0, 30.5123
40.827141424, 96.390, 1036.0, 32.1870
40.853401989, 96.390, 990.0, 31.4643
40.879662554, 96.390, 958.0, 30.9516
40.905923120, 96.390, 917.0, 30.2820
40.932183685, 96.390, 1007.0, 31.7333
40.958444251, 96.390, 966.0, 31.0805
40.984704816, 96.390, 951.0, 30.8383
41.010965381, 96.390, 1001.0, 31.6386
41.037225947, 96.390, 980.0, 31.3050
41.063486512, 96.390, 914.0, 30.2324
41.089747077, 96.390, 941.0, 30.6757
41.116007643, 96.390, 985.0, 31.3847
41.142268208, 96.390, 1011.0, 31.7962
41.168528773, 96.390, 965.0, 31.0644
41.194789339, 96.390, 960.0, 30.9839
41.221049904, 96.390, 924.0, 30.3974
41.247310469, 96.390, 987.0, 31.4166
41.273571035, 96.390, 952.0, 30.8545
41.299831600, 96.390, 921.0, 30.3480
41.326092165, 96.390, 961.0, 31.0000
41.352352731, 96.390, 950.0, 30.8221
41.378613296, 96.390, 921.0, 30.3480
41.404873862, 96.390, 973.0, 31.1929
41.431134427, 96.390, 930.0, 30.4959
41.457394992, 96.390, 993.0, 31.5119
41.483655558, 96.390, 908.0, 30.1330
41.509916123, 96.390, 989.0, 31.4484
41.536176688, 96.390, 963.0, 31.0322
41.562437254, 96.390, 892.0, 29.8664
41.588697819, 96.390, 1000.0, 31.6228
41.614958384, 96.390, 911.0, 30.1828
41.641218950, 96.390, 855.0, 29.2404
41.667479515, 96.390, 979.0, 31.2890
41.693740080, 96.390, 999.0, 31.6070
41.720000646, 96.390, 966.0, 31.0805
41.746261211, 96.390, 975.0, 31.2250
41.772521776, 96.390, 963.0, 31.0322
41.798782342, 96.390, 898.0, 29.9666
41.825042907, 96.390, 970.0, 31.1448
41.851303473, 96.390, 983.0, 31.3528
41.877564038, 96.390, 970.0, 31.1448
41.903824603, 96.390, 967.0, 31.0966
41.930085169, 96.390, 940.0, 30.6594
41.956345734, 96.390, 992.0, 31.4960
41.982606299, 96.390, 1004.0, 31.6860
42.008866865, 96.390, 913.0, 30.2159
42.035127430, 96.390, 941.0, 30.6757
42.061387995, 96.390, 979.0, 31.2890
42.087648561, 96.390, 964.0, 31.0483
42.113909126, 96.390, 978.0, 31.2730
42.140169691, 96.390, 918.0, 30.2985
42.166430257, 96.390, 922.0, 30.3645
42.192690822, 96.390, 1026.0, 32.0312
42.218951388, 96.390, 929.0, 30.4795
42.245211953, 96.390, 950.0, 30.8221
42.271472518, 96.390, 963.0, 31.0322
42.297733084, 96.390, 967.0, 31.0966
42.323993649, 96.390, 888.0, 29.7993
42.350254214, 96.390, 930.0, 30.4959
42.376514780, 96.390, 949.0, 30.8058
42.402775345, 96.390, 934.0, 30.5614
42.429035910, 96.390, 1008.0, 31.7490
42.455296476, 96.390, 989.0, 31.4484
42.481557041, 96.390, 934.0, 30.5614
42.507817606, 96.390, 891.0, 29.8496
42.534078172, 96.390, 946.0, 30.7571
42.560338737, 96.390, 967.0, 31.0966
42.586599302, 96.390, 981.0, 31.3209
42.612859868, 96.390, 913.0, 30.2159
42.639120433, 96.390, 1015.0, 31.8591
42.665380999, 96.390, 993.0, 31.5119
42.691641564, 96.390, 918.0, 30.2985
42.717902129, 96.390, 1003.0, 31.6702
42.744162695, 96.390, 969.0, 31.1288
42.770423260, 96.390, 986.0, 31.4006
42.796683825, 96.390, 1005.0, 31.7017
42.822944391, 96.390, 940.0, 30.6594
42.849204956, 96.390, 1010.0, 31.7805
42.875465521, 96.390, 983.0, 31.3528
42.901726087, 96.390, 979.0, 31.2890
42.927986652, 96.390, 1004.0, 31.6860
42.954247217, 96.390, 948.0, 30.7896
42.980507783, 96.390, 936.0, 30.5941
43.006768348, 96.390, 951.0, 30.8383
43.033028914, 96.390, 983.0, 31.3528
43.059289479, 96.390, 944.0, 30.7246
43.085550044, 96.390, 979.0, 31.2890
43.111810610, 96.390, 975.0, 31.2250
43.138071175, 96.390, 956.0, 30.9192
43.164331740, 96.390, 989.0, 31.4484
43.190592306, 96.390, 954.0, 30.8869
43.216852871, 96.390, 949.0, 30.8058
43.243113436, 96.390, 950.0, 30.8221
43.269374002, 96.390, 991.0, 31.4802
43.295634567, 96.390, 907.0, 30.1164
43.321895132, 96.390, 899.0, 29.9833
43.348155698, 96.390, 951.0, 30.8383
43.374416263, 96.390, 926.0, 30.4302
43.400676828, 96.390, 932.0, 30.5287
43.426937394, 96.390, 936.0, 30.5941
43.453197959, 96.390, 894.0, 29.8998
43.479458525, 96.390, 989.0, 31.4484
43.505719090, 96.390, 995.0, 31.5436
43.531979655, 96.390, 954.0, 30.8869
43.558240221, 96.390, 985.0, 31.3847
43.584500786, 96.390, 1002.0, 31.6544
43.610761351, 96.390, 992.0, 31.4960
43.637021917, 96.390, 917.0, 30.2820
43.663282482, 96.390, 929.0, 30.4795
43.689543047, 96.390, 973.0, 31.1929
43.715803613, 96.390, 949.0, 30.8058
43.742064178, 96.390, 958.0, 30.9516
43.768324743, 96.390, 979.0, 31.2890
43.794585309, 96.390, 987.0, 31.4166
43.820845874, 96.390, 962.0, 31.0161
43.847106440, 96.390, 986.0, 31.4006
43.873367005, 96.390, 967.0, 31.0966
43.899627570, 96.390, 962.0, 31.0161
43.925888136, 96.390, 987.0, 31.4166
43.952148701, 96.390, 1043.0, 32.2955
43.978409266, 96.390, 909.0, 30.1496
44.004669832, 96.390, 965.0, 31.0644
44.030930397, 96.390, 934.0, 30.5614
44.057190962, 96.390, 989.0, 31.4484
44.083451528, 96.390, 924.0, 30.3974
44.109712093, 96.390, 934.0, 30.5614
44.135972658, 96.390, 929.0, 30.4795
44.162233224, 96.390, 909.0, 30.1496
44.188493789, 96.390, 957.0, 30.9354
44.214754354, 96.390, 960.0, 30.9839
44.241014920, 96.390, 989.0, 31.4484
44.267275485, 96.390, 854.0, 29.2233
44.293536051, 96.390, 897.0, 29.9500
44.319796616, 96.390, 900.0, 30.0000
44.346057181, 96.390, 900.0, 30.0000
44.372317747, 96.390, 930.0, 30.4959
44.398578312, 96.390, 939.0, 30.6431
44.424838877, 96.390, 912.0, 30.1993
44.451099443, 96.390, 944.0, 30.7246
44.477360008, 96.390, 959.0, 30.9677
44.503620573, 96.390, 917.0, 30.2820
44.529881139, 96.390, 911.0, 30.1828
44.556141704, 96.390, 942.0, 30.6920
44.582402269, 96.390, 909.0, 30.1496
44.608662835, 96.390, 959.0, 30.9677
44.634923400, 96.390, 867.0, 29.4449
44.661183966, 96.390, 902.0, 30.0333
44.687444531, 96.390, 937.0, 30.6105
44.713705096, 96.390, 958.0, 30.9516
44.739965662, 96.390, 872.0, 29.5296
44.766226227, 96.390, 908.0, 30.1330
44.792486792, 96.390, 919.0, 30.3150
44.818747358, 96.390, 924.0, 30.3974
44.845007923, 96.390, 893.0, 29.8831
44.871268488, 96.390, 863.0, 29.3769
44.897529054, 96.390, 938.0, 30.6268
44.923789619, 96.390, 973.0, 31.1929
44.950050184, 96.390, 943.0, 30.7083
44.976310750, 96.390, 895.0, 29.9166
45.002571315, 96.390, 978.0, 31.2730
45.028831880, 96.390, 893.0, 29.8831
45.055092446, 96.390, 918.0, 30.2985
45.081353011, 96.390, 945.0, 30.7409
45.107613577, 96.390, 913.0, 30.2159
45.133874142, 96.390, 946.0, 30.7571
45.160134707, 96.390, 896.0, 29.9333
45.186395273, 96.390, 921.0, 30.3480
45.212655838, 96.390, 960.0, 30.9839
45.238916403, 96.390, 904.0, 30.0666
45.265176969, 96.390, 903.0, 30.0500
45.291437534, 96.390, 914.0, 30.2324
45.317698099, 96.390, 952.0, 30.8545
45.343958665, 96.390, 905.0, 30.0832
45.370219230, 96.390, 869.0, 29.4788
45.396479795, 96.390, 892.0, 29.8664
45.422740361, 96.390, 868.0, 29.4618
45.449000926, 96.390, 925.0, 30.4138
45.475261492, 96.390, 932.0, 30.5287
45.501522057, 96.390, 892.0, 29.8664
45.527782622, 96.390, 886.0, 29.7658
45.554043188, 96.390, 917.0, 30.2820
45.580303753, 96.390, 897.0, 29.9500
45.606564318, 96.390, 872.0, 29.5296
45.632824884, 96.390, 856.0, 29.2575
45.659085449, 96.390, 878.0, 29.6311
45.685346014, 96.390, 850.0, 29.1548
45.711606580, 96.390, 913.0, 30.2159
45.737867145, 96.390, 874.0, 29.5635
45.764127710, 96.390, 922.0, 30.3645
45.790388276, 96.390, 899.0, 29.9833
45.816648841, 96.390, 899.0, 29.9833
45.842909406, 96.390, 889.0, 29.8161
45.869169972, 96.390, 918.0, 30.2985
45.895430537, 96.390, 900.0, 30.0000
45.921691103, 96.390, 925.0, 30.4138
45.947951668, 96.390, 915.0, 30.2490
45.974212233, 96.390, 939.0, 30.6431
46.000472799, 96.390, 893.0, 29.8831
46.026733364, 96.390, 895.0, 29.9166
46.052993929, 96.390, 867.0, 29.4449
46.079254495, 96.390, 840.0, 28.9828
46.105515060, 96.390, 878.0, 29.6311
46.131775625, 96.390, 845.0, 29.0689
46.158036191, 96.390, 913.0, 30.2159
46.184296756, 96.390, 885.0, 29.7489
46.210557321, 96.390, 869.0, 29.4788
46.236817887, 96.390, 867.0, 29.4449
46.263078452, 96.390, 905.0, 30.0832
46.289339017, 96.390, 885.0, 29.7489
46.315599583, 96.390, 908.0, 30.1330
46.341860148, 96.390, 887.0, 29.7825
46.368120714, 96.390, 859.0, 29.3087
46.394381279, 96.390, 925.0, 30.4138
46.420641844, 96.390, 946.0, 30.7571
46.446902410, 96.390, 879.0, 29.6479
46.473162975, 96.390, 905.0, 30.0832
46.499423540, 96.390, 871.0, 29.5127
46.525684106, 96.390, 894.0, 29.8998
46.551944671, 96.390, 899.0, 29.9833
46.578205236, 96.390, 881.0, 29.6816
46.604465802, 96.390, 883.0, 29.7153
46.630726367, 96.390, 871.0, 29.5127
46.656986932, 96.390, 897.0, 29.9500
46.683247498, 96.390, 859.0, 29.3087
46.709508063, 96.390, 915.0, 30.2490
46.735768629, 96.390, 886.0, 29.7658
46.762029194, 96.390, 828.0, 28.7750
46.788289759, 96.390, 861.0, 29.3428
46.814550325, 96.390, 869.0, 29.4788
46.840810890, 96.390, 873.0, 29.5466
46.867071455, 96.390, 866.0, 29.4279
46.893332021, 96.390, 850.0, 29.1548
46.919592586, 96.390, 867.0, 29.4449
46.945853151, 96.390, 841.0, 29.0000
46.972113717, 96.390, 892.0, 29.8664
46.998374282, 96.390, 879.0, 29.6479
47.024634847, 96.390, 892.0, 29.8664
47.050895413, 96.390, 891.0, 29.8496
47.077155978, 96.390, 892.0, 29.8664
47.103416543, 96.390, 921.0, 30.3480
47.129677109, 96.390, 941.0, 30.6757
47.155937674, 96.390, 874.0, 29.5635
47.182198240, 96.390, 874.0, 29.5635
47.208458805, 96.390, 862.0, 29.3598
47.234719370, 96.390, 890.0, 29.8329
47.260979936, 96.390, 880.0, 29.6648
47.287240501, 96.390, 871.0, 29.5127
47.313501066, 96.390, 826.0, 28.7402
47.339761632, 96.390, 901.0, 30.0167
47.366022197, 96.390, 944.0, 30.7246
47.392282762, 96.390, 877.0, 29.6142
47.418543328, 96.390, 825.0, 28.7228
47.444803893, 96.390, 934.0, 30.5614
47.471064458, 96.390, 879.0, 29.6479
47.497325024, 96.390, 855.0, 29.2404
47.523585589, 96.390, 911.0, 30.1828
47.549846155, 96.390, 899.0, 29.9833
47.576106720, 96.390, 825.0, 28.7228
47.602367285, 96.390, 872.0, 29.5296
47.628627851, 96.390, 890.0, 29.8329
47.654888416, 96.390, 884.0, 29.7321
47.681148981, 96.390, 853.0, 29.2062
47.707409547, 96.390, 886.0, 29.7658
47.733670112, 96.390, 912.0, 30.1993
47.759930677, 96.390, 790.0, 28.1069
47.786191243, 96.390, 869.0, 29.4788
47.812451808, 96.390, 856.0, 29.2575
47.838712373, 96.390, 885.0, 29.7489
47.864972939, 96.390, 880.0, 29.6648
47.891233504, 96.390, 828.0, 28.7750
47.917494069, 96.390, 854.0, 29.2233
47.943754635, 96.390, 872.0, 29.5296
47.970015200, 96.390, 878.0, 29.6311
47.996275766, 96.390, 835.0, 28.8964
48.022536331, 96.390, 907.0, 30.1164
48.048796896, 96.390, 833.0, 28.8617
48.075057462, 96.390, 903.0, 30.0500
48.101318027, 96.390, 891.0, 29.8496
48.127578592, 96.390, 840.0, 28.9828
48.153839158, 96.390, 875.0, 29.5804
48.180099723, 96.390, 855.0, 29.2404
48.206360288, 96.390, 832.0, 28.8444
48.232620854, 96.390, 856.0, 29.2575
48.258881419, 96.390, 883.0, 29.7153
48.285141984, 96.390, 874.0, 29.5635
48.311402550, 96.390, 875.0, 29.5804
48.337663115, 96.390, 889.0, 29.8161
48.363923681, 96.390, 853.0, 29.2062
48.390184246, 96.390, 830.0, 28.8097
48.416444811, 96.390, 860.0, 29.3258
48.442705377, 96.390, 858.0, 29.2916
48.468965942, 96.390, 862.0, 29.3598
48.495226507, 96.390, 844.0, 29.0517
48.521487073, 96.390, 838.0, 28.9482
48.547747638, 96.390, 820.0, 28.6356
48.574008203, 96.390, 875.0, 29.5804
48.600268769, 96.390, 830.0, 28.8097
48.626529334, 96.390, 871.0, 29.5127
48.652789899, 96.390, 882.0, 29.6985
48.679050465, 96.390, 825.0, 28.7228
48.705311030, 96.390, 890.0, 29.8329
48.731571595, 96.390, 869.0, 29.4788
48.757832161, 96.390, 859.0, 29.3087
48.784092726, 96.390, 836.0, 28.9137
48.810353292, 96.390, 862.0, 29.3598
48.836613857, 96.390, 867.0, 29.4449
48.862874422, 96.390, 823.0, 28.6880
48.889134988, 96.390, 893.0, 29.8831
48.915395553, 96.390, 874.0, 29.5635
48.941656118, 96.390, 832.0, 28.8444
48.967916684, 96.390, 832.0, 28.8444
48.994177249, 96.390, 829.0, 28.7924
49.020437814, 96.390, 876.0, 29.5973
49.046698380, 96.390, 871.0, 29.5127
49.072958945, 96.390, 869.0, 29.4788
49.099219510, 96.390, 842.0, 29.0172
49.125480076, 96.390, 848.0, 29.1204
49.151740641, 96.390, 840.0, 28.9828
49.178001207, 96.390, 820.0, 28.6356
49.204261772, 96.390, 849.0, 29.1376
49.230522337, 96.390, 832.0, 28.8444
49.256782903, 96.390, 833.0, 28.8617
49.283043468, 96.390, 823.0, 28.6880
49.309304033, 96.390, 855.0, 29.2404
49.335564599, 96.390, 875.0, 29.5804
49.361825164, 96.390, 904.0, 30.0666
49.388085729, 96.390, 848.0, 29.1204
49.414346295, 96.390, 848.0, 29.1204
49.440606860, 96.390, 803.0, 28.3373
49.466867425, 96.390, 812.0, 28.4956
49.493127991, 96.390, 793.0, 28.1603
49.519388556, 96.390, 790.0, 28.1069
49.545649121, 96.390, 808.0, 28.4253
49.571909687, 96.390, 815.0, 28.5482
49.598170252, 96.390, 818.0, 28.6007
49.624430818, 96.390, 854.0, 29.2233
49.650691383, 96.390, 809.0, 28.4429
49.676951948, 96.390, 860.0, 29.3258
49.703212514, 96.390, 859.0, 29.3087
49.729473079, 96.390, 875.0, 29.5804
49.755733644, 96.390, 814.0, 28.5307
49.781994210, 96.390, 829.0, 28.7924
49.808254775, 96.390, 852.0, 29.1890
49.834515340, 96.390, 856.0, 29.2575
49.860775906, 96.390, 825.0, 28.7228
49.887036471, 96.390, 832.0, 28.8444
49.913297036, 96.390, 811.0, 28.4781
49.939557602, 96.390, 796.0, 28.2135
49.965818167, 96.390, 850.0, 29.1548
49.992078732, 96.390, 846.0, 29.0861
50.018339298, 96.390, 876.0, 29.5973
50.044599863, 96.390, 837.0, 28.9310
50.070860429, 96.390, 781.0, 27.9464
50.097120994, 96.390, 856.0, 29.2575
50.123381559, 96.390, 891.0, 29.8496
50.149642125, 96.390, 844.0, 29.0517
50.175902690, 96.390, 864.0, 29.3939
50.202163255, 96.390, 836.0, 28.9137
50.228423821, 96.390, 822.0, 28.6705
50.254684386, 96.390, 765.0, 27.6586
50.280944951, 96.390, 875.0, 29.5804
50.307205517, 96.390, 805.0, 28.3725
50.333466082, 96.390, 836.0, 28.9137
50.359726647, 96.390, 837.0, 28.9310
50.385987213, 96.390, 880.0, 29.6648
50.412247778, 96.390, 845.0, 29.0689
50.438508344, 96.390, 805.0, 28.3725
50.464768909, 96.390, 847.0, 29.1033
50.491029474, 96.390, 848.0, 29.1204
50.517290040, 96.390, 828.0, 28.7750
50.543550605, 96.390, 822.0, 28.6705
50.569811170, 96.390, 881.0, 29.6816
50.596071736, 96.390, 812.0, 28.4956
50.622332301, 96.390, 868.0, 29.4618
50.648592866, 96.390, 872.0, 29.5296
50.674853432, 96.390, 809.0, 28.4429
50.701113997, 96.390, 827.0, 28.7576
50.727374562, 96.390, 851.0, 29.1719
50.753635128, 96.390, 858.0, 29.2916
50.779895693, 96.390, 813.0, 28.5132
50.806156258, 96.390, 808.0, 28.4253
50.832416824, 96.390, 784.0, 28.0000
50.858677389, 96.390, 824.0, 28.7054
50.884937955, 96.390, 810.0, 28.4605
50.911198520, 96.390, 809.0, 28.4429
50.937459085, 96.390, 845.0, 29.0689
50.963719651, 96.390, 880.0, 29.6648
50.989980216, 96.390, 802.0, 28.3196
51.016240781, 96.390, 791.0, 28.1247
51.042501347, 96.390, 775.0, 27.8388
51.068761912, 96.390, 868.0, 29.4618
51.095022477, 96.390, 776.0, 27.8568
51.121283043, 96.390, 824.0, 28.7054
51.147543608, 96.390, 838.0, 28.9482
51.173804173, 96.390, 788.0, 28.0713
51.200064739, 96.390, 829.0, 28.7924
51.226325304, 96.390, 815.0, 28.5482
51.252585870, 96.390, 796.0, 28.2135
51.278846435, 96.390, 781.0, 27.9464
51.305107000, 96.390, 804.0, 28.3549
51.331367566, 96.390, 827.0, 28.7576
51.357628131, 96.390, 835.0, 28.8964
51.383888696, 96.390, 860.0, 29.3258
51.410149262, 96.390, 829.0, 28.7924
51.436409827, 96.390, 766.0, 27.6767
51.462670392, 96.390, 823.0, 28.6880
51.488930958, 96.390, 777.0, 27.8747
51.515191523, 96.390, 827.0, 28.7576
51.541452088, 96.390, 778.0, 27.8927
51.567712654, 96.390, 819.0, 28.6182
51.593973219, 96.390, 747.0, 27.3313
51.620233784, 96.390, 801.0, 28.3019
51.646494350, 96.390, 831.0, 28.8271
51.672754915, 96.390, 783.0, 27.9821
51.699015481, 96.390, 837.0, 28.9310
51.725276046, 96.390, 832.0, 28.8444
51.751536611, 96.390, 791.0, 28.1247
51.777797177, 96.390, 803.0, 28.3373
51.804057742, 96.390, 846.0, 29.0861
51.830318307, 96.390, 788.0, 28.0713
51.856578873, 96.390, 784.0, 28.0000
51.882839438, 96.390, 751.0, 27.4044
51.909100003, 96.390, 809.0, 28.4429
51.935360569, 96.390, 837.0, 28.9310
51.961621134, 96.390, 808.0, 28.4253
51.987881699, 96.390, 826.0, 28.7402
52.014142265, 96.390, 749.0, 27.3679
52.040402830, 96.390, 821.0, 28.6531
52.066663396, 96.390, 764.0, 27.6405
52.092923961, 96.390, 848.0, 29.1204
52.119184526, 96.390, 785.0, 28.0179
52.145445092, 96.390, 833.0, 28.8617
52.171705657, 96.390, 745.0, 27.2947
52.197966222, 96.390, 765.0, 27.6586
52.224226788, 96.390, 860.0, 29.3258
52.250487353, 96.390, 770.0, 27.7489
52.276747918, 96.390, 802.0, 28.3196
52.303008484, 96.390, 800.0, 28.2843
52.329269049, 96.390, 779.0, 27.9106
52.355529614, 96.390, 855.0, 29.2404
52.381790180, 96.390, 774.0, 27.8209
52.408050745, 96.390, 792.0, 28.1425
52.434311310, 96.390, 817.0, 28.5832
52.460571876, 96.390, 865.0, 29.4109
52.486832441, 96.390, 835.0, 28.8964
52.513093007, 96.390, 814.0, 28.5307
52.539353572, 96.390, 805.0, 28.3725
52.565614137, 96.390, 782.0, 27.9643
52.591874703, 96.390, 788.0, 28.0713
52.618135268, 96.390, 840.0, 28.9828
52.644395833, 96.390, 833.0, 28.8617
52.670656399, 96.390, 776.0, 27.8568
52.696916964, 96.390, 791.0, 28.1247
52.723177529, 96.390, 802.0, 28.3196
52.749438095, 96.390, 782.0, 27.9643
52.775698660, 96.390, 819.0, 28.6182
52.801959225, 96.390, 801.0, 28.3019
52.828219791, 96.390, 792.0, 28.1425
52.854480356, 96.390, 796.0, 28.2135
52.880740922, 96.390, 814.0, 28.5307
52.907001487, 96.390, 797.0, 28.2312
52.933262052, 96.390, 772.0, 27.7849
52.959522618, 96.390, 819.0, 28.6182
52.985783183, 96.390, 834.0, 28.8791
53.012043748, 96.390, 801.0, 28.3019
53.038304314, 96.390, 791.0, 28.1247
53.064564879, 96.390, 802.0, 28.3196
53.090825444, 96.390, 798.0, 28.2489
53.117086010, 96.390, 773.0, 27.8029
53.143346575, 96.390, 835.0, 28.8964
53.169607140, 96.390, 853.0, 29.2062
53.195867706, 96.390, 813.0, 28.5132
53.222128271, 96.390, 773.0, 27.8029
53.248388836, 96.390, 814.0, 28.5307
53.274649402, 96.390, 803.0, 28.3373
53.300909967, 96.390, 811.0, 28.4781
53.327170533, 96.390, 789.0, 28.0891
53.353431098, 96.390, 774.0, 27.8209
53.379691663, 96.390, 812.0, 28.4956
53.405952229, 96.390, 793.0, 28.1603
53.432212794, 96.390, 823.0, 28.6880
53.458473359, 96.390, 791.0, 28.1247
53.484733925, 96.390, 789.0, 28.0891
53.510994490, 96.390, 801.0, 28.3019
53.537255055, 96.390, 774.0, 27.8209
53.563515621, 96.390, 775.0, 27.8388
53.589776186, 96.390, 771.0, 27.7669
53.616036751, 96.390, 786.0, 28.0357
53.642297317, 96.390, 811.0, 28.4781
53.668557882, 96.390, 828.0, 28.7750
53.694818448, 96.390, 855.0, 29.2404
53.721079013, 96.390, 794.0, 28.1780
53.747339578, 96.390, 875.0, 29.5804
53.773600144, 96.390, 852.0, 29.1890
53.799860709, 96.390, 827.0, 28.7576
53.826121274, 96.390, 814.0, 28.5307
53.852381840, 96.390, 773.0, 27.8029
53.878642405, 96.390, 839.0, 28.9655
53.904902970, 96.390, 789.0, 28.0891
53.931163536, 96.390, 783.0, 27.9821
53.957424101, 96.390, 810.0, 28.4605
53.983684666, 96.390, 816.0, 28.5657
54.009945232, 96.390, 832.0, 28.8444
54.036205797, 96.390, 822.0, 28.6705
54.062466362, 96.390, 799.0, 28.2666
54.088726928, 96.390, 766.0, 27.6767
54.114987493, 96.390, 817.0, 28.5832
54.141248059, 96.390, 798.0, 28.2489
54.167508624, 96.390, 798.0, 28.2489
54.193769189, 96.390, 808.0, 28.4253
54.220029755, 96.390, 708.0, 26.6083
54.246290320, 96.390, 781.0, 27.9464
54.272550885, 96.390, 831.0, 28.8271
54.298811451, 96.390, 729.0, 27.0000
54.325072016, 96.390, 789.0, 28.0891
54.351332581, 96.390, 728.0, 26.9815
54.377593147, 96.390, 796.0, 28.2135
54.403853712, 96.390, 851.0, 29.1719
54.430114277, 96.390, 837.0, 28.9310
54.456374843, 96.390, 783.0, 27.9821
54.482635408, 96.390, 806.0, 28.3901
54.508895973, 96.390, 790.0, 28.1069
54.535156539, 96.390, 761.0, 27.5862
54.561417104, 96.390, 805.0, 28.3725
54.587677670, 96.390, 797.0, 28.2312
54.613938235, 96.390, 775.0, 27.8388
54.640198800, 96.390, 783.0, 27.9821
54.666459366, 96.390, 810.0, 28.4605
54.692719931, 96.390, 827.0, 28.7576
54.718980496, 96.390, 797.0, 28.2312
54.745241062, 96.390, 816.0, 28.5657
54.771501627, 96.390, 786.0, 28.0357
54.797762192, 96.390, 777.0, 27.8747
54.824022758, 96.390, 780.0, 27.9285
54.850283323, 96.390, 824.0, 28.7054
54.876543888, 96.390, 775.0, 27.8388
54.902804454, 96.390, 818.0, 28.6007
54.929065019, 96.390, 776.0, 27.8568
54.955325585, 96.390, 800.0, 28.2843
54.981586150, 96.390, 817.0, 28.5832
55.007846715, 96.390, 821.0, 28.6531
55.034107281, 96.390, 826.0, 28.7402
55.060367846, 96.390, 776.0, 27.8568
55.086628411, 96.390, 857.0, 29.2746
55.112888977, 96.390, 755.0, 27.4773
55.139149542, 96.390, 763.0, 27.6225
55.165410107, 96.390, 824.0, 28.7054
55.191670673, 96.390, 794.0, 28.1780
55.217931238, 96.390, 798.0, 28.2489
55.244191803, 96.390, 721.0, 26.8514
55.270452369, 96.390, 815.0, 28.5482
55.296712934, 96.390, 775.0, 27.8388
55.322973499, 96.390, 808.0, 28.4253
55.349234065, 96.390, 820.0, 28.6356
55.375494630, 96.390, 791.0, 28.1247
55.401755196, 96.390, 808.0, 28.4253
55.428015761, 96.390, 838.0, 28.9482
55.454276326, 96.390, 775.0, 27.8388
55.480536892, 96.390, 847.0, 29.1033
55.506797457, 96.390, 817.0, 28.5832
55.533058022, 96.390, 839.0, 28.9655
55.559318588, 96.390, 816.0, 28.5657
55.585579153, 96.390, 859.0, 29.3087
55.611839718, 96.390, 783.0, 27.9821
55.638100284, 96.390, 802.0, 28.3196
55.664360849, 96.390, 815.0, 28.5482
55.690621414, 96.390, 770.0, 27.7489
55.716881980, 96.390, 818.0, 28.6007
55.743142545, 96.390, 797.0, 28.2312
55.769403111, 96.390, 865.0, 29.4109
55.795663676, 96.390, 846.0, 29.0861
55.821924241, 96.390, 817.0, 28.5832
55.848184807, 96.390, 797.0, 28.2312
55.874445372, 96.390, 754.0, 27.4591
55.900705937, 96.390, 797.0, 28.2312
55.926966503, 96.390, 791.0, 28.1247
55.953227068, 96.390, 810.0, 28.4605
55.979487633, 96.390, 840.0, 28.9828
56.005748199, 96.390, 768.0, 27.7128
56.032008764, 96.390, 790.0, 28.1069
56.058269329, 96.390, 853.0, 29.2062
56.084529895, 96.390, 796.0, 28.2135
56.110790460, 96.390, 797.0, 28.2312
56.137051025, 96.390, 820.0, 28.6356
56.163311591, 96.390, 781.0, 27.9464
56.189572156, 96.390, 827.0, 28.7576
56.215832722, 96.390, 775.0, 27.8388
56.242093287, 96.390, 838.0, 28.9482
56.268353852, 96.390, 789.0, 28.0891
56.294614418, 96.390, 790.0, 28.1069
56.320874983, 96.390, 837.0, 28.9310
56.347135548, 96.390, 765.0, 27.6586
56.373396114, 96.390, 837.0, 28.9310
56.399656679, 96.390, 824.0, 28.7054
56.425917244, 96.390, 811.0, 28.4781
56.452177810, 96.390, 778.0, 27.8927
56.478438375, 96.390, 795.0, 28.1957
56.504698940, 96.390, 766.0, 27.6767
56.530959506, 96.390, 783.0, 27.9821
56.557220071, 96.390, 810.0, 28.4605
56.583480637, 96.390, 782.0, 27.9643
56.609741202, 96.390, 802.0, 28.3196
56.636001767, 96.390, 768.0, 27.7128
56.662262333, 96.390, 836.0, 28.9137
56.688522898, 96.390, 769.0, 27.7308
56.714783463, 96.390, 771.0, 27.7669
56.741044029, 96.390, 848.0, 29.1204
56.767304594, 96.390, 811.0, 28.4781
56.793565159, 96.390, 781.0, 27.9464
56.819825725, 96.390, 815.0, 28.5482
56.846086290, 96.390, 785.0, 28.0179
56.872346855, 96.390, 814.0, 28.5307
56.898607421, 96.390, 825.0, 28.7228
56.924867986, 96.390, 828.0, 28.7750
56.951128551, 96.390, 809.0, 28.4429
56.977389117, 96.390, 880.0, 29.6648
57.003649682, 96.390, 816.0, 28.5657
57.029910248, 96.390, 751.0, 27.4044
57.056170813, 96.390, 791.0, 28.1247
57.082431378, 96.390, 784.0, 28.0000
57.108691944, 96.390, 801.0, 28.3019
57.134952509, 96.390, 829.0, 28.7924
57.161213074, 96.390, 780.0, 27.9285
57.187473640, 96.390, 823.0, 28.6880
57.213734205, 96.390, 827.0, 28.7576
57.239994770, 96.390, 833.0, 28.8617
57.266255336, 96.390, 755.0, 27.4773
57.292515901, 96.390, 822.0, 28.6705
57.318776466, 96.390, 835.0, 28.8964
57.345037032, 96.390, 802.0, 28.3196
57.371297597, 96.390, 796.0, 28.2135
57.397558163, 96.390, 778.0, 27.8927
57.423818728, 96.390, 753.0, 27.4408
57.450079293, 96.390, 799.0, 28.2666
57.476339859, 96.390, 772.0, 27.7849
57.502600424, 96.390, 768.0, 27.7128
57.528860989, 96.390, 821.0, 28.6531
57.555121555, 96.390, 772.0, 27.7849
57.581382120, 96.390, 780.0, 27.9285
57.607642685, 96.390, 784.0, 28.0000
57.633903251, 96.390, 764.0, 27.6405
57.660163816, 96.390, 778.0, 27.8927
57.686424381, 96.390, 784.0, 28.0000
57.712684947, 96.390, 734.0, 27.0924
57.738945512, 96.390, 794.0, 28.1780
57.765206077, 96.390, 800.0, 28.2843
57.791466643, 96.390, 767.0, 27.6948
57.817727208, 96.390, 785.0, 28.0179
57.843987774, 96.390, 790.0, 28.1069
57.870248339, 96.390, 794.0, 28.1780
57.896508904, 96.390, 826.0, 28.7402
57.922769470, 96.390, 797.0, 28.2312
57.949030035, 96.390, 788.0, 28.0713
57.975290600, 96.390, 808.0, 28.4253
58.001551166, 96.390, 775.0, 27.8388
58.027811731, 96.390, 800.0, 28.2843
58.054072296, 96.390, 782.0, 27.9643
58.080332862, 96.390, 803.0, 28.3373
58.106593427, 96.390, 771.0, 27.7669
58.132853992, 96.390, 776.0, 27.8568
58.159114558, 96.390, 769.0, 27.7308
58.185375123, 96.390, 779.0, 27.9106
58.211635689, 96.390, 832.0, 28.8444
58.237896254, 96.390, 828.0, 28.7750
58.264156819, 96.390, 826.0, 28.7402
58.290417385, 96.390, 790.0, 28.1069
58.316677950, 96.390, 785.0, 28.0179
58.342938515, 96.390, 812.0, 28.4956
58.369199081, 96.390, 865.0, 29.4109
58.395459646, 96.390, 739.0, 27.1846
58.421720211, 96.390, 803.0, 28.3373
58.447980777, 96.390, 795.0, 28.1957
58.474241342, 96.390, 753.0, 27.4408
58.500501907, 96.390, 774.0, 27.8209
58.526762473, 96.390, 809.0, 28.4429
58.553023038, 96.390, 792.0, 28.1425
58.579283603, 96.390, 765.0, 27.6586
58.605544169, 96.390, 717.0, 26.7769
58.631804734, 96.390, 802.0, 28.3196
58.658065300, 96.390, 771.0, 27.7669
58.684325865, 96.390, 799.0, 28.2666
58.710586430, 96.390, 792.0, 28.1425
58.736846996, 96.390, 803.0, 28.3373
58.763107561, 96.390, 801.0, 28.3019
58.789368126, 96.390, 837.0, 28.9310
58.815628692, 96.390, 785.0, 28.0179
58.841889257, 96.390, 799.0, 28.2666
58.868149822, 96.390, 837.0, 28.9310
58.894410388, 96.390, 767.0, 27.6948
58.920670953, 96.390, 852.0, 29.1890
58.946931518, 96.390, 783.0, 27.9821
58.973192084, 96.390, 801.0, 28.3019
58.999452649, 96.390, 744.0, 27.2764
59.025713214, 96.390, 869.0, 29.4788
59.051973780, 96.390, 807.0, 28.4077
59.078234345, 96.390, 823.0, 28.6880
59.104494911, 96.390, 764.0, 27.6405
59.130755476, 96.390, 771.0, 27.7669
59.157016041, 96.390, 807.0, 28.4077
59.183276607, 96.390, 796.0, 28.2135
59.209537172, 96.390, 814.0, 28.5307
59.235797737, 96.390, 738.0, 27.1662
59.262058303, 96.390, 849.0, 29.1376
59.288318868, 96.390, 821.0, 28.6531
59.314579433, 96.390, 788.0, 28.0713
59.340839999, 96.390, 798.0, 28.2489
59.367100564, 96.390, 724.0, 26.9072
59.393361129, 96.390, 803.0, 28.3373
59.419621695, 96.390, 816.0, 28.5657
59.445882260, 96.390, 760.0, 27.5681
59.472142826, 96.390, 794.0, 28.1780
59.498403391, 96.390, 814.0, 28.5307
59.524663956, 96.390, 799.0, 28.2666
59.550924522, 96.390, 809.0, 28.4429
59.577185087, 96.390, 836.0, 28.9137
59.603445652, 96.390, 840.0, 28.9828
59.629706218, 96.390, 812.0, 28.4956
59.655966783, 96.390, 796.0, 28.2135
59.682227348, 96.390, 804.0, 28.3549
59.708487914, 96.390, 748.0, 27.3496
59.734748479, 96.390, 852.0, 29.1890
59.761009044, 96.390, 814.0, 28.5307
59.787269610, 96.390, 748.0, 27.3496
59.813530175, 96.390, 827.0, 28.7576
59.839790740, 96.390, 816.0, 28.5657
59.866051306, 96.390, 795.0, 28.1957
59.892311871, 96.390, 795.0, 28.1957
59.918572437, 96.390, 814.0, 28.5307
59.944833002, 96.390, 784.0, 28.0000
59.971093567, 96.390, 833.0, 28.8617
59.997354133, 96.390, 793.0, 28.1603
60.023614698, 96.390, 810.0, 28.4605
60.049875263, 96.390, 804.0, 28.3549
60.076135829, 96.390, 739.0, 27.1846
60.102396394, 96.390, 752.0, 27.4226
60.128656959, 96.390, 827.0, 28.7576
60.154917525, 96.390, 760.0, 27.5681
60.181178090, 96.390, 824.0, 28.7054
60.207438655, 96.390, 787.0, 28.0535
60.233699221, 96.390, 809.0, 28.4429
60.259959786, 96.390, 832.0, 28.8444
60.286220352, 96.390, 844.0, 29.0517
60.312480917, 96.390, 788.0, 28.0713
60.338741482, 96.390, 796.0, 28.2135
60.365002048, 96.390, 803.0, 28.3373
60.391262613, 96.390, 776.0, 27.8568
60.417523178, 96.390, 844.0, 29.0517
60.443783744, 96.390, 833.0, 28.8617
60.470044309, 96.390, 758.0, 27.5318
60.496304874, 96.390, 817.0, 28.5832
60.522565440, 96.390, 802.0, 28.3196
60.548826005, 96.390, 776.0, 27.8568
60.575086570, 96.390, 775.0, 27.8388
60.601347136, 96.390, 785.0, 28.0179
60.627607701, 96.390, 846.0, 29.0861
60.653868266, 96.390, 810.0, 28.4605
60.680128832, 96.390, 801.0, 28.3019
60.706389397, 96.390, 827.0, 28.7576
60.732649963, 96.390, 804.0, 28.3549
60.758910528, 96.390, 817.0, 28.5832
60.785171093, 96.390, 788.0, 28.0713
60.811431659, 96.390, 806.0, 28.3901
60.837692224, 96.390, 786.0, 28.0357
60.863952789, 96.390, 773.0, 27.8029
60.890213355, 96.390, 783.0, 27.9821
60.916473920, 96.390, 793.0, 28.1603
60.942734485, 96.390, 796.0, 28.2135
60.968995051, 96.390, 758.0, 27.5318
60.995255616, 96.390, 803.0, 28.3373
61.021516181, 96.390, 821.0, 28.6531
61.047776747, 96.390, 835.0, 28.8964
61.074037312, 96.390, 783.0, 27.9821
61.100297878, 96.390, 821.0, 28.6531
61.126558443, 96.390, 808.0, 28.4253
61.152819008, 96.390, 780.0, 27.9285
61.179079574, 96.390, 797.0, 28.2312
61.205340139, 96.390, 869.0, 29.4788
61.231600704, 96.390, 787.0, 28.0535
61.257861270, 96.390, 843.0, 29.0345
61.284121835, 96.390, 838.0, 28.9482
61.310382400, 96.390, 804.0, 28.3549
61.336642966, 96.390, 809.0, 28.4429
61.362903531, 96.390, 782.0, 27.9643
61.389164096, 96.390, 817.0, 28.5832
61.415424662, 96.390, 821.0, 28.6531
61.441685227, 96.390, 793.0, 28.1603
61.467945792, 96.390, 813.0, 28.5132
61.494206358, 96.390, 779.0, 27.9106
61.520466923, 96.390, 737.0, 27.1477
61.546727489, 96.390, 832.0, 28.8444
61.572988054, 96.390, 819.0, 28.6182
61.599248619, 96.390, 789.0, 28.0891
61.625509185, 96.390, 842.0, 29.0172
61.651769750, 96.390, 782.0, 27.9643
61.678030315, 96.390, 840.0, 28.9828
61.704290881, 96.390, 817.0, 28.5832
61.730551446, 96.390, 792.0, 28.1425
61.756812011, 96.390, 817.0, 28.5832
61.783072577, 96.390, 808.0, 28.4253
61.809333142, 96.390, 796.0, 28.2135
61.835593707, 96.390, 762.0, 27.6043
61.861854273, 96.390, 835.0, 28.8964
61.888114838, 96.390, 780.0, 27.9285
61.914375404, 96.390, 769.0, 27.7308
61.940635969, 96.390, 757.0, 27.5136
61.966896534, 96.390, 779.0, 27.9106
61.993157100, 96.390, 749.0, 27.3679
62.019417665, 96.390, 815.0, 28.5482
62.045678230, 96.390, 801.0, 28.3019
62.071938796, 96.390, 795.0, 28.1957
62.098199361, 96.390, 798.0, 28.2489
62.124459926, 96.390, 789.0, 28.0891
62.150720492, 96.390, 815.0, 28.5482
62.176981057, 96.390, 793.0, 28.1603
62.203241622, 96.390, 759.0, 27.5500
62.229502188, 96.390, 731.0, 27.0370
62.255762753, 96.390, 794.0, 28.1780
62.282023318, 96.390, 875.0, 29.5804
62.308283884, 96.390, 858.0, 29.2916
62.334544449, 96.390, 827.0, 28.7576
62.360805015, 96.390, 750.0, 27.3861
62.387065580, 96.390, 806.0, 28.3901
62.413326145, 96.390, 772.0, 27.7849
62.439586711, 96.390, 834.0, 28.8791
62.465847276, 96.390, 779.0, 27.9106
62.492107841, 96.390, 834.0, 28.8791
62.518368407, 96.390, 843.0, 29.0345
62.544628972, 96.390, 811.0, 28.4781
62.570889537, 96.390, 815.0, 28.5482
62.597150103, 96.390, 799.0, 28.2666
62.623410668, 96.390, 839.0, 28.9655
62.649671233, 96.390, 791.0, 28.1247
62.675931799, 96.390, 780.0, 27.9285
62.702192364, 96.390, 838.0, 28.9482
62.728452930, 96.390, 811.0, 28.4781
62.754713495, 96.390, 816.0, 28.5657
62.780974060, 96.390, 815.0, 28.5482
62.807234626, 96.390, 849.0, 29.1376
62.833495191, 96.390, 765.0, 27.6586
62.859755756, 96.390, 795.0, 28.1957
62.886016322, 96.390, 828.0, 28.7750
62.912276887, 96.390, 823.0, 28.6880
62.938537452, 96.390, 783.0, 27.9821
62.964798018, 96.390, 814.0, 28.5307
62.991058583, 96.390, 821.0, 28.6531
63.017319148, 96.390, 772.0, 27.7849
63.043579714, 96.390, 807.0, 28.4077
63.069840279, 96.390, 790.0, 28.1069
63.096100844, 96.390, 812.0, 28.4956
63.122361410, 96.390, 778.0, 27.8927
63.148621975, 96.390, 825.0, 28.7228
63.174882541, 96.390, 824.0, 28.7054
63.201143106, 96.390, 784.0, 28.0000
63.227403671, 96.390, 796.0, 28.2135
63.253664237, 96.390, 783.0, 27.9821
63.279924802, 96.390, 873.0, 29.5466
63.306185367, 96.390, 827.0, 28.7576
63.332445933, 96.390, 833.0, 28.8617
63.358706498, 96.390, 798.0, 28.2489
63.384967063, 96.390, 857.0, 29.2746
63.411227629, 96.390, 786.0, 28.0357
63.437488194, 96.390, 818.0, 28.6007
63.463748759, 96.390, 836.0, 28.9137
63.490009325, 96.390, 820.0, 28.6356
63.516269890, 96.390, 870.0, 29.4958
63.542530455, 96.390, 831.0, 28.8271
63.568791021, 96.390, 809.0, 28.4429
63.595051586, 96.390, 742.0, 27.2397
63.621312152, 96.390, 779.0, 27.9106
63.647572717, 96.390, 774.0, 27.8209
63.673833282, 96.390, 798.0, 28.2489
63.700093848, 96.390, 838.0, 28.9482
63.726354413, 96.390, 782.0, 27.9643
63.752614978, 96.390, 821.0, 28.6531
63.778875544, 96.390, 800.0, 28.2843
63.805136109, 96.390, 815.0, 28.5482
63.831396674, 96.390, 787.0, 28.0535
63.857657240, 96.390, 779.0, 27.9106
63.883917805, 96.390, 811.0, 28.4781
63.910178370, 96.390, 805.0, 28.3725
63.936438936, 96.390, 816.0, 28.5657
63.962699501, 96.390, 839.0, 28.9655
63.988960067, 96.390, 791.0, 28.1247
64.015220632, 96.390, 780.0, 27.9285
64.041481197, 96.390, 780.0, 27.9285
64.067741763, 96.390, 736.0, 27.1293
64.094002328, 96.390, 815.0, 28.5482
64.120262893, 96.390, 792.0, 28.1425
64.146523459, 96.390, 804.0, 28.3549
64.172784024, 96.390, 723.0, 26.8887
64.199044589, 96.390, 827.0, 28.7576
64.225305155, 96.390, 838.0, 28.9482
64.251565720, 96.390, 781.0, 27.9464
64.277826285, 96.390, 786.0, 28.0357
64.304086851, 96.390, 802.0, 28.3196
64.330347416, 96.390, 837.0, 28.9310
64.356607981, 96.390, 815.0, 28.5482
64.382868547, 96.390, 741.0, 27.2213
64.409129112, 96.390, 801.0, 28.3019
64.435389678, 96.390, 816.0, 28.5657
64.461650243, 96.390, 821.0, 28.6531
64.487910808, 96.390, 832.0, 28.8444
64.514171374, 96.390, 752.0, 27.4226
64.540431939, 96.390, 765.0, 27.6586
64.566692504, 96.390, 784.0, 28.0000
64.592953070, 96.390, 825.0, 28.7228
64.619213635, 96.390, 786.0, 28.0357
64.645474200, 96.390, 777.0, 27.8747
64.671734766, 96.390, 809.0, 28.4429
64.697995331, 96.390, 816.0, 28.5657
64.724255896, 96.390, 759.0, 27.5500
64.750516462, 96.390, 771.0, 27.7669
64.776777027, 96.390, 800.0, 28.2843
64.803037593, 96.390, 854.0, 29.2233
64.829298158, 96.390, 763.0, 27.6225
64.855558723, 96.390, 784.0, 28.0000
64.881819289, 96.390, 786.0, 28.0357
64.908079854, 96.390, 787.0, 28.0535
64.934340419, 96.390, 757.0, 27.5136
64.960600985, 96.390, 778.0, 27.8927
64.986861550, 96.390, 742.0, 27.2397
