[Measurement conditions]
Sample identification,XRD_MgAxialPrecursor24Jan22_B2_1
Comment - 1,"Configuration=Stage for Flat Samples/Holders, Owner=User-1, Creation date=7/1/2020 9:53:24 AM"
Comment - 2,"Goniometer=Theta/Theta; Minimum step size 2Theta:0.0001; Minimum step size Omega:0.0001"
Comment - 3,"Sample stage=Stage for flat samples/holders"
Comment - 4,"Diffractometer system=EMPYREAN"
Comment - 5,"Measurement program=C:\Users\ibo5034\OneDrive - The Pennsylvania State University\NEUP - Reed, Titus's files\XRD\Cement\Zerobackground scan.xrdmp, Identifier={98A3B11C-88F9-4AA6-982C-73314A311EF5}"
Anode material,Cu
K-Alpha1 wavelength,1.5405980
K-Alpha2 wavelength,1.5444260
Ratio K-Alpha2/K-Alpha1,0.500
Divergence slit,Fixed,0.25
Monochromator used,NO
Generator voltage, 45
Tube current, 40
File date and time,10/Mar/2022 13:35
Unit cell,
h k l, 0 0 0
Scan axis,Gonio
Scan range,4.994599997,64.999991833
Scan step size,0.0262606
No. of points, 2285
Scan type,CONTINUOUS
Time per step,96.390
[Scan points]
Angle, TimePerStep, Intensity, ESD
5.007730280, 96.390, 4642.0, 68.1322
5.033990845, 96.390, 4550.0, 67.4537
5.060251411, 96.390, 4653.0, 68.2129
5.086511976, 96.390, 4522.0, 67.2458
5.112772541, 96.390, 4441.0, 66.6408
5.139033107, 96.390, 4395.0, 66.2948
5.165293672, 96.390, 4433.0, 66.5808
5.191554237, 96.390, 4446.0, 66.6783
5.217814803, 96.390, 4353.0, 65.9773
5.244075368, 96.390, 4303.0, 65.5973
5.270335934, 96.390, 4146.0, 64.3894
5.296596499, 96.390, 4186.0, 64.6993
5.322857064, 96.390, 4300.0, 65.5744
5.349117630, 96.390, 4114.0, 64.1405
5.375378195, 96.390, 4193.0, 64.7534
5.401638760, 96.390, 4039.0, 63.5531
5.427899326, 96.390, 3975.0, 63.0476
5.454159891, 96.390, 3979.0, 63.0793
5.480420456, 96.390, 3979.0, 63.0793
5.506681022, 96.390, 3981.0, 63.0952
5.532941587, 96.390, 3940.0, 62.7694
5.559202152, 96.390, 3955.0, 62.8888
5.585462718, 96.390, 3867.0, 62.1852
5.611723283, 96.390, 3993.0, 63.1902
5.637983849, 96.390, 3909.0, 62.5220
5.664244414, 96.390, 3820.0, 61.8061
5.690504979, 96.390, 3858.0, 62.1128
5.716765545, 96.390, 3849.0, 62.0403
5.743026110, 96.390, 3831.0, 61.8951
5.769286675, 96.390, 3681.0, 60.6712
5.795547241, 96.390, 3912.0, 62.5460
5.821807806, 96.390, 3710.0, 60.9098
5.848068371, 96.390, 3711.0, 60.9180
5.874328937, 96.390, 3782.0, 61.4980
5.900589502, 96.390, 3773.0, 61.4248
5.926850067, 96.390, 3803.0, 61.6685
5.953110633, 96.390, 3788.0, 61.5467
5.979371198, 96.390, 3741.0, 61.1637
6.005631763, 96.390, 3610.0, 60.0833
6.031892329, 96.390, 3499.0, 59.1523
6.058152894, 96.390, 3511.0, 59.2537
6.084413460, 96.390, 3593.0, 59.9416
6.110674025, 96.390, 3696.0, 60.7947
6.136934590, 96.390, 3603.0, 60.0250
6.163195156, 96.390, 3450.0, 58.7367
6.189455721, 96.390, 3627.0, 60.2246
6.215716286, 96.390, 3571.0, 59.7578
6.241976852, 96.390, 3522.0, 59.3464
6.268237417, 96.390, 3543.0, 59.5231
6.294497982, 96.390, 3526.0, 59.3801
6.320758548, 96.390, 3558.0, 59.6490
6.347019113, 96.390, 3589.0, 59.9083
6.373279678, 96.390, 3470.0, 58.9067
6.399540244, 96.390, 3457.0, 58.7963
6.425800809, 96.390, 3379.0, 58.1292
6.452061375, 96.390, 3522.0, 59.3464
6.478321940, 96.390, 3347.0, 57.8533
6.504582505, 96.390, 3445.0, 58.6941
6.530843071, 96.390, 3339.0, 57.7841
6.557103636, 96.390, 3335.0, 57.7495
6.583364201, 96.390, 3409.0, 58.3866
6.609624767, 96.390, 3351.0, 57.8878
6.635885332, 96.390, 3291.0, 57.3672
6.662145897, 96.390, 3332.0, 57.7235
6.688406463, 96.390, 3274.0, 57.2189
6.714667028, 96.390, 3324.0, 57.6541
6.740927593, 96.390, 3412.0, 58.4123
6.767188159, 96.390, 3175.0, 56.3471
6.793448724, 96.390, 3317.0, 57.5934
6.819709289, 96.390, 3206.0, 56.6216
6.845969855, 96.390, 3204.0, 56.6039
6.872230420, 96.390, 3216.0, 56.7098
6.898490986, 96.390, 3210.0, 56.6569
6.924751551, 96.390, 3172.0, 56.3205
6.951012116, 96.390, 3185.0, 56.4358
6.977272682, 96.390, 3247.0, 56.9825
7.003533247, 96.390, 3135.0, 55.9911
7.029793812, 96.390, 3180.0, 56.3915
7.056054378, 96.390, 3304.0, 57.4804
7.082314943, 96.390, 3159.0, 56.2050
7.108575508, 96.390, 3242.0, 56.9386
7.134836074, 96.390, 3219.0, 56.7362
7.161096639, 96.390, 3121.0, 55.8659
7.187357204, 96.390, 3173.0, 56.3294
7.213617770, 96.390, 3070.0, 55.4076
7.239878335, 96.390, 3155.0, 56.1694
7.266138900, 96.390, 3191.0, 56.4889
7.292399466, 96.390, 3099.0, 55.6687
7.318660031, 96.390, 3208.0, 56.6392
7.344920597, 96.390, 3146.0, 56.0892
7.371181162, 96.390, 3099.0, 55.6687
7.397441727, 96.390, 3021.0, 54.9636
7.423702293, 96.390, 3089.0, 55.5788
7.449962858, 96.390, 3113.0, 55.7943
7.476223423, 96.390, 3046.0, 55.1906
7.502483989, 96.390, 3084.0, 55.5338
7.528744554, 96.390, 3066.0, 55.3715
7.555005119, 96.390, 3037.0, 55.1090
7.581265685, 96.390, 3075.0, 55.4527
7.607526250, 96.390, 2943.0, 54.2494
7.633786815, 96.390, 3072.0, 55.4256
7.660047381, 96.390, 2967.0, 54.4702
7.686307946, 96.390, 3059.0, 55.3082
7.712568512, 96.390, 2941.0, 54.2310
7.738829077, 96.390, 2978.0, 54.5711
7.765089642, 96.390, 3009.0, 54.8544
7.791350208, 96.390, 3013.0, 54.8908
7.817610773, 96.390, 2943.0, 54.2494
7.843871338, 96.390, 2973.0, 54.5252
7.870131904, 96.390, 3018.0, 54.9363
7.896392469, 96.390, 2884.0, 53.7029
7.922653034, 96.390, 2919.0, 54.0278
7.948913600, 96.390, 2976.0, 54.5527
7.975174165, 96.390, 2939.0, 54.2125
8.001434730, 96.390, 2850.0, 53.3854
8.027695296, 96.390, 2971.0, 54.5069
8.053955861, 96.390, 2929.0, 54.1202
8.080216426, 96.390, 2940.0, 54.2218
8.106476992, 96.390, 2905.0, 53.8981
8.132737557, 96.390, 2892.0, 53.7773
8.158998123, 96.390, 2936.0, 54.1849
8.185258688, 96.390, 2917.0, 54.0093
8.211519253, 96.390, 2884.0, 53.7029
8.237779819, 96.390, 2756.0, 52.4976
8.264040384, 96.390, 2873.0, 53.6004
8.290300949, 96.390, 2808.0, 52.9906
8.316561515, 96.390, 2803.0, 52.9434
8.342822080, 96.390, 2939.0, 54.2125
8.369082645, 96.390, 2900.0, 53.8516
8.395343211, 96.390, 2864.0, 53.5164
8.421603776, 96.390, 2862.0, 53.4977
8.447864341, 96.390, 2747.0, 52.4118
8.474124907, 96.390, 2859.0, 53.4696
8.500385472, 96.390, 2890.0, 53.7587
8.526646038, 96.390, 2763.0, 52.5642
8.552906603, 96.390, 2729.0, 52.2398
8.579167168, 96.390, 2809.0, 53.0000
8.605427734, 96.390, 2723.0, 52.1824
8.631688299, 96.390, 2862.0, 53.4977
8.657948864, 96.390, 2844.0, 53.3292
8.684209430, 96.390, 2815.0, 53.0566
8.710469995, 96.390, 2838.0, 53.2729
8.736730560, 96.390, 2809.0, 53.0000
8.762991126, 96.390, 2753.0, 52.4690
8.789251691, 96.390, 2702.0, 51.9808
8.815512256, 96.390, 2851.0, 53.3948
8.841772822, 96.390, 2846.0, 53.3479
8.868033387, 96.390, 2609.0, 51.0784
8.894293952, 96.390, 2728.0, 52.2303
8.920554518, 96.390, 2706.0, 52.0192
8.946815083, 96.390, 2719.0, 52.1440
8.973075649, 96.390, 2766.0, 52.5928
8.999336214, 96.390, 2738.0, 52.3259
9.025596779, 96.390, 2628.0, 51.2640
9.051857345, 96.390, 2702.0, 51.9808
9.078117910, 96.390, 2719.0, 52.1440
9.104378475, 96.390, 2759.0, 52.5262
9.130639041, 96.390, 2741.0, 52.3546
9.156899606, 96.390, 2697.0, 51.9326
9.183160171, 96.390, 2634.0, 51.3225
9.209420737, 96.390, 2789.0, 52.8110
9.235681302, 96.390, 2627.0, 51.2543
9.261941867, 96.390, 2728.0, 52.2303
9.288202433, 96.390, 2663.0, 51.6043
9.314462998, 96.390, 2698.0, 51.9423
9.340723564, 96.390, 2655.0, 51.5267
9.366984129, 96.390, 2708.0, 52.0384
9.393244694, 96.390, 2649.0, 51.4684
9.419505260, 96.390, 2649.0, 51.4684
9.445765825, 96.390, 2667.0, 51.6430
9.472026390, 96.390, 2641.0, 51.3907
9.498286956, 96.390, 2654.0, 51.5170
9.524547521, 96.390, 2671.0, 51.6817
9.550808086, 96.390, 2607.0, 51.0588
9.577068652, 96.390, 2635.0, 51.3323
9.603329217, 96.390, 2589.0, 50.8822
9.629589782, 96.390, 2599.0, 50.9804
9.655850348, 96.390, 2615.0, 51.1371
9.682110913, 96.390, 2651.0, 51.4879
9.708371478, 96.390, 2547.0, 50.4678
9.734632044, 96.390, 2635.0, 51.3323
9.760892609, 96.390, 2665.0, 51.6236
9.787153175, 96.390, 2577.0, 50.7642
9.813413740, 96.390, 2559.0, 50.5866
9.839674305, 96.390, 2486.0, 49.8598
9.865934871, 96.390, 2646.0, 51.4393
9.892195436, 96.390, 2531.0, 50.3090
9.918456001, 96.390, 2577.0, 50.7642
9.944716567, 96.390, 2545.0, 50.4480
9.970977132, 96.390, 2522.0, 50.2195
9.997237697, 96.390, 2590.0, 50.8920
10.023498263, 96.390, 2544.0, 50.4381
10.049758828, 96.390, 2538.0, 50.3786
10.076019393, 96.390, 2558.0, 50.5767
10.102279959, 96.390, 2524.0, 50.2394
10.128540524, 96.390, 2530.0, 50.2991
10.154801090, 96.390, 2503.0, 50.0300
10.181061655, 96.390, 2487.0, 49.8698
10.207322220, 96.390, 2558.0, 50.5767
10.233582786, 96.390, 2549.0, 50.4876
10.259843351, 96.390, 2492.0, 49.9199
10.286103916, 96.390, 2449.0, 49.4874
10.312364482, 96.390, 2524.0, 50.2394
10.338625047, 96.390, 2531.0, 50.3090
10.364885612, 96.390, 2425.0, 49.2443
10.391146178, 96.390, 2477.0, 49.7695
10.417406743, 96.390, 2545.0, 50.4480
10.443667308, 96.390, 2500.0, 50.0000
10.469927874, 96.390, 2463.0, 49.6286
10.496188439, 96.390, 2478.0, 49.7795
10.522449004, 96.390, 2479.0, 49.7896
10.548709570, 96.390, 2539.0, 50.3885
10.574970135, 96.390, 2407.0, 49.0612
10.601230701, 96.390, 2419.0, 49.1833
10.627491266, 96.390, 2501.0, 50.0100
10.653751831, 96.390, 2348.0, 48.4562
10.680012397, 96.390, 2398.0, 48.9694
10.706272962, 96.390, 2433.0, 49.3254
10.732533527, 96.390, 2391.0, 48.8979
10.758794093, 96.390, 2316.0, 48.1248
10.785054658, 96.390, 2386.0, 48.8467
10.811315223, 96.390, 2485.0, 49.8498
10.837575789, 96.390, 2355.0, 48.5283
10.863836354, 96.390, 2359.0, 48.5695
10.890096919, 96.390, 2431.0, 49.3052
10.916357485, 96.390, 2387.0, 48.8569
10.942618050, 96.390, 2327.0, 48.2390
10.968878616, 96.390, 2358.0, 48.5592
10.995139181, 96.390, 2389.0, 48.8774
11.021399746, 96.390, 2329.0, 48.2597
11.047660312, 96.390, 2317.0, 48.1352
11.073920877, 96.390, 2406.0, 49.0510
11.100181442, 96.390, 2398.0, 48.9694
11.126442008, 96.390, 2351.0, 48.4871
11.152702573, 96.390, 2390.0, 48.8876
11.178963138, 96.390, 2374.0, 48.7237
11.205223704, 96.390, 2393.0, 48.9183
11.231484269, 96.390, 2367.0, 48.6518
11.257744834, 96.390, 2395.0, 48.9387
11.284005400, 96.390, 2284.0, 47.7912
11.310265965, 96.390, 2305.0, 48.0104
11.336526530, 96.390, 2345.0, 48.4252
11.362787096, 96.390, 2299.0, 47.9479
11.389047661, 96.390, 2277.0, 47.7179
11.415308227, 96.390, 2299.0, 47.9479
11.441568792, 96.390, 2334.0, 48.3115
11.467829357, 96.390, 2355.0, 48.5283
11.494089923, 96.390, 2358.0, 48.5592
11.520350488, 96.390, 2277.0, 47.7179
11.546611053, 96.390, 2252.0, 47.4552
11.572871619, 96.390, 2306.0, 48.0208
11.599132184, 96.390, 2292.0, 47.8748
11.625392749, 96.390, 2322.0, 48.1871
11.651653315, 96.390, 2269.0, 47.6340
11.677913880, 96.390, 2359.0, 48.5695
11.704174445, 96.390, 2297.0, 47.9270
11.730435011, 96.390, 2324.0, 48.2079
11.756695576, 96.390, 2185.0, 46.7440
11.782956141, 96.390, 2214.0, 47.0532
11.809216707, 96.390, 2312.0, 48.0833
11.835477272, 96.390, 2311.0, 48.0729
11.861737838, 96.390, 2301.0, 47.9687
11.887998403, 96.390, 2251.0, 47.4447
11.914258968, 96.390, 2225.0, 47.1699
11.940519534, 96.390, 2250.0, 47.4342
11.966780099, 96.390, 2202.0, 46.9255
11.993040664, 96.390, 2216.0, 47.0744
12.019301230, 96.390, 2208.0, 46.9894
12.045561795, 96.390, 2251.0, 47.4447
12.071822360, 96.390, 2109.0, 45.9239
12.098082926, 96.390, 2174.0, 46.6262
12.124343491, 96.390, 2177.0, 46.6583
12.150604056, 96.390, 2227.0, 47.1911
12.176864622, 96.390, 2220.0, 47.1169
12.203125187, 96.390, 2246.0, 47.3920
12.229385753, 96.390, 2234.0, 47.2652
12.255646318, 96.390, 2219.0, 47.1063
12.281906883, 96.390, 2157.0, 46.4435
12.308167449, 96.390, 2195.0, 46.8508
12.334428014, 96.390, 2264.0, 47.5815
12.360688579, 96.390, 2179.0, 46.6798
12.386949145, 96.390, 2215.0, 47.0638
12.413209710, 96.390, 2201.0, 46.9148
12.439470275, 96.390, 2217.0, 47.0850
12.465730841, 96.390, 2131.0, 46.1628
12.491991406, 96.390, 2142.0, 46.2817
12.518251971, 96.390, 2162.0, 46.4973
12.544512537, 96.390, 2186.0, 46.7547
12.570773102, 96.390, 2194.0, 46.8402
12.597033667, 96.390, 2151.0, 46.3789
12.623294233, 96.390, 2211.0, 47.0213
12.649554798, 96.390, 2158.0, 46.4543
12.675815364, 96.390, 2170.0, 46.5833
12.702075929, 96.390, 2126.0, 46.1086
12.728336494, 96.390, 2183.0, 46.7226
12.754597060, 96.390, 2083.0, 45.6399
12.780857625, 96.390, 2086.0, 45.6727
12.807118190, 96.390, 2155.0, 46.4220
12.833378756, 96.390, 2117.0, 46.0109
12.859639321, 96.390, 2164.0, 46.5188
12.885899886, 96.390, 2064.0, 45.4313
12.912160452, 96.390, 2181.0, 46.7012
12.938421017, 96.390, 2093.0, 45.7493
12.964681582, 96.390, 2110.0, 45.9347
12.990942148, 96.390, 2110.0, 45.9347
13.017202713, 96.390, 2133.0, 46.1844
13.043463279, 96.390, 2035.0, 45.1110
13.069723844, 96.390, 2150.0, 46.3681
13.095984409, 96.390, 2140.0, 46.2601
13.122244975, 96.390, 2087.0, 45.6837
13.148505540, 96.390, 2098.0, 45.8039
13.174766105, 96.390, 2043.0, 45.1996
13.201026671, 96.390, 2056.0, 45.3431
13.227287236, 96.390, 2007.0, 44.7996
13.253547801, 96.390, 2134.0, 46.1952
13.279808367, 96.390, 2117.0, 46.0109
13.306068932, 96.390, 2095.0, 45.7712
13.332329497, 96.390, 2016.0, 44.8999
13.358590063, 96.390, 2001.0, 44.7325
13.384850628, 96.390, 2157.0, 46.4435
13.411111193, 96.390, 2016.0, 44.8999
13.437371759, 96.390, 2108.0, 45.9130
13.463632324, 96.390, 2025.0, 45.0000
13.489892890, 96.390, 2052.0, 45.2990
13.516153455, 96.390, 2000.0, 44.7214
13.542414020, 96.390, 2068.0, 45.4753
13.568674586, 96.390, 2034.0, 45.0999
13.594935151, 96.390, 2072.0, 45.5192
13.621195716, 96.390, 2069.0, 45.4863
13.647456282, 96.390, 2064.0, 45.4313
13.673716847, 96.390, 2067.0, 45.4643
13.699977412, 96.390, 2038.0, 45.1442
13.726237978, 96.390, 2111.0, 45.9456
13.752498543, 96.390, 2078.0, 45.5851
13.778759108, 96.390, 2041.0, 45.1774
13.805019674, 96.390, 2060.0, 45.3872
13.831280239, 96.390, 1955.0, 44.2154
13.857540805, 96.390, 1985.0, 44.5533
13.883801370, 96.390, 1888.0, 43.4511
13.910061935, 96.390, 2009.0, 44.8219
13.936322501, 96.390, 2014.0, 44.8776
13.962583066, 96.390, 2011.0, 44.8442
13.988843631, 96.390, 2074.0, 45.5412
14.015104197, 96.390, 2042.0, 45.1885
14.041364762, 96.390, 2080.0, 45.6070
14.067625327, 96.390, 2005.0, 44.7772
14.093885893, 96.390, 1970.0, 44.3847
14.120146458, 96.390, 2034.0, 45.0999
14.146407023, 96.390, 2041.0, 45.1774
14.172667589, 96.390, 1968.0, 44.3621
14.198928154, 96.390, 2030.0, 45.0555
14.225188719, 96.390, 2027.0, 45.0222
14.251449285, 96.390, 1940.0, 44.0454
14.277709850, 96.390, 2004.0, 44.7661
14.303970416, 96.390, 1996.0, 44.6766
14.330230981, 96.390, 1950.0, 44.1588
14.356491546, 96.390, 1994.0, 44.6542
14.382752112, 96.390, 2035.0, 45.1110
14.409012677, 96.390, 1976.0, 44.4522
14.435273242, 96.390, 1967.0, 44.3509
14.461533808, 96.390, 1955.0, 44.2154
14.487794373, 96.390, 1984.0, 44.5421
14.514054938, 96.390, 2050.0, 45.2769
14.540315504, 96.390, 1942.0, 44.0681
14.566576069, 96.390, 2113.0, 45.9674
14.592836634, 96.390, 1993.0, 44.6430
14.619097200, 96.390, 2048.0, 45.2548
14.645357765, 96.390, 1894.0, 43.5201
14.671618331, 96.390, 1936.0, 44.0000
14.697878896, 96.390, 1910.0, 43.7035
14.724139461, 96.390, 1861.0, 43.1393
14.750400027, 96.390, 1996.0, 44.6766
14.776660592, 96.390, 1989.0, 44.5982
14.802921157, 96.390, 1988.0, 44.5870
14.829181723, 96.390, 2011.0, 44.8442
14.855442288, 96.390, 2007.0, 44.7996
14.881702853, 96.390, 1943.0, 44.0795
14.907963419, 96.390, 1971.0, 44.3959
14.934223984, 96.390, 1925.0, 43.8748
14.960484549, 96.390, 1994.0, 44.6542
14.986745115, 96.390, 1961.0, 44.2832
15.013005680, 96.390, 1978.0, 44.4747
15.039266245, 96.390, 1946.0, 44.1135
15.065526811, 96.390, 1876.0, 43.3128
15.091787376, 96.390, 1973.0, 44.4185
15.118047942, 96.390, 1952.0, 44.1814
15.144308507, 96.390, 2058.0, 45.3652
15.170569072, 96.390, 1928.0, 43.9090
15.196829638, 96.390, 1972.0, 44.4072
15.223090203, 96.390, 1904.0, 43.6348
15.249350768, 96.390, 1962.0, 44.2945
15.275611334, 96.390, 1947.0, 44.1248
15.301871899, 96.390, 1962.0, 44.2945
15.328132464, 96.390, 1879.0, 43.3474
15.354393030, 96.390, 1884.0, 43.4051
15.380653595, 96.390, 2010.0, 44.8330
15.406914160, 96.390, 1875.0, 43.3013
15.433174726, 96.390, 1908.0, 43.6807
15.459435291, 96.390, 1889.0, 43.4626
15.485695857, 96.390, 1952.0, 44.1814
15.511956422, 96.390, 1928.0, 43.9090
15.538216987, 96.390, 2020.0, 44.9444
15.564477553, 96.390, 1950.0, 44.1588
15.590738118, 96.390, 1881.0, 43.3705
15.616998683, 96.390, 1969.0, 44.3734
15.643259249, 96.390, 2026.0, 45.0111
15.669519814, 96.390, 1983.0, 44.5309
15.695780379, 96.390, 1922.0, 43.8406
15.722040945, 96.390, 1925.0, 43.8748
15.748301510, 96.390, 1906.0, 43.6578
15.774562075, 96.390, 1889.0, 43.4626
15.800822641, 96.390, 1989.0, 44.5982
15.827083206, 96.390, 1907.0, 43.6692
15.853343771, 96.390, 1966.0, 44.3396
15.879604337, 96.390, 1960.0, 44.2719
15.905864902, 96.390, 1864.0, 43.1741
15.932125468, 96.390, 2045.0, 45.2217
15.958386033, 96.390, 2043.0, 45.1996
15.984646598, 96.390, 1984.0, 44.5421
16.010907164, 96.390, 1954.0, 44.2041
16.037167729, 96.390, 1949.0, 44.1475
16.063428294, 96.390, 1953.0, 44.1928
16.089688860, 96.390, 1865.0, 43.1856
16.115949425, 96.390, 1977.0, 44.4635
16.142209990, 96.390, 1979.0, 44.4860
16.168470556, 96.390, 1908.0, 43.6807
16.194731121, 96.390, 1892.0, 43.4971
16.220991686, 96.390, 1829.0, 42.7668
16.247252252, 96.390, 1883.0, 43.3935
16.273512817, 96.390, 1914.0, 43.7493
16.299773382, 96.390, 2014.0, 44.8776
16.326033948, 96.390, 1946.0, 44.1135
16.352294513, 96.390, 1869.0, 43.2319
16.378555079, 96.390, 1890.0, 43.4741
16.404815644, 96.390, 2016.0, 44.8999
16.431076209, 96.390, 1919.0, 43.8064
16.457336775, 96.390, 1929.0, 43.9204
16.483597340, 96.390, 1978.0, 44.4747
16.509857905, 96.390, 2014.0, 44.8776
16.536118471, 96.390, 1931.0, 43.9431
16.562379036, 96.390, 1932.0, 43.9545
16.588639601, 96.390, 1933.0, 43.9659
16.614900167, 96.390, 1886.0, 43.4281
16.641160732, 96.390, 1984.0, 44.5421
16.667421297, 96.390, 1985.0, 44.5533
16.693681863, 96.390, 1869.0, 43.2319
16.719942428, 96.390, 1905.0, 43.6463
16.746202994, 96.390, 1907.0, 43.6692
16.772463559, 96.390, 1946.0, 44.1135
16.798724124, 96.390, 2018.0, 44.9222
16.824984690, 96.390, 2049.0, 45.2659
16.851245255, 96.390, 1949.0, 44.1475
16.877505820, 96.390, 2022.0, 44.9667
16.903766386, 96.390, 2093.0, 45.7493
16.930026951, 96.390, 1970.0, 44.3847
16.956287516, 96.390, 1910.0, 43.7035
16.982548082, 96.390, 2013.0, 44.8665
17.008808647, 96.390, 1958.0, 44.2493
17.035069212, 96.390, 1978.0, 44.4747
17.061329778, 96.390, 1965.0, 44.3283
17.087590343, 96.390, 1961.0, 44.2832
17.113850908, 96.390, 1958.0, 44.2493
17.140111474, 96.390, 2069.0, 45.4863
17.166372039, 96.390, 2027.0, 45.0222
17.192632605, 96.390, 1966.0, 44.3396
17.218893170, 96.390, 1946.0, 44.1135
17.245153735, 96.390, 1941.0, 44.0568
17.271414301, 96.390, 1962.0, 44.2945
17.297674866, 96.390, 2013.0, 44.8665
17.323935431, 96.390, 1918.0, 43.7950
17.350195997, 96.390, 1990.0, 44.6094
17.376456562, 96.390, 1936.0, 44.0000
17.402717127, 96.390, 2027.0, 45.0222
17.428977693, 96.390, 1921.0, 43.8292
17.455238258, 96.390, 1956.0, 44.2267
17.481498823, 96.390, 1916.0, 43.7721
17.507759389, 96.390, 1930.0, 43.9318
17.534019954, 96.390, 1992.0, 44.6318
17.560280520, 96.390, 1991.0, 44.6206
17.586541085, 96.390, 1957.0, 44.2380
17.612801650, 96.390, 1989.0, 44.5982
17.639062216, 96.390, 2078.0, 45.5851
17.665322781, 96.390, 1941.0, 44.0568
17.691583346, 96.390, 2109.0, 45.9239
17.717843912, 96.390, 2031.0, 45.0666
17.744104477, 96.390, 2033.0, 45.0888
17.770365042, 96.390, 1978.0, 44.4747
17.796625608, 96.390, 1983.0, 44.5309
17.822886173, 96.390, 2100.0, 45.8258
17.849146738, 96.390, 2116.0, 46.0000
17.875407304, 96.390, 2040.0, 45.1664
17.901667869, 96.390, 2000.0, 44.7214
17.927928434, 96.390, 2043.0, 45.1996
17.954189000, 96.390, 2147.0, 46.3357
17.980449565, 96.390, 2065.0, 45.4423
18.006710131, 96.390, 2039.0, 45.1553
18.032970696, 96.390, 2128.0, 46.1303
18.059231261, 96.390, 2125.0, 46.0977
18.085491827, 96.390, 2040.0, 45.1664
18.111752392, 96.390, 2017.0, 44.9110
18.138012957, 96.390, 2082.0, 45.6289
18.164273523, 96.390, 2074.0, 45.5412
18.190534088, 96.390, 2015.0, 44.8888
18.216794653, 96.390, 2169.0, 46.5725
18.243055219, 96.390, 2075.0, 45.5522
18.269315784, 96.390, 2085.0, 45.6618
18.295576349, 96.390, 2185.0, 46.7440
18.321836915, 96.390, 2013.0, 44.8665
18.348097480, 96.390, 2049.0, 45.2659
18.374358046, 96.390, 2083.0, 45.6399
18.400618611, 96.390, 2128.0, 46.1303
18.426879176, 96.390, 2141.0, 46.2709
18.453139742, 96.390, 2148.0, 46.3465
18.479400307, 96.390, 2194.0, 46.8402
18.505660872, 96.390, 2114.0, 45.9783
18.531921438, 96.390, 2096.0, 45.7821
18.558182003, 96.390, 2107.0, 45.9021
18.584442568, 96.390, 2148.0, 46.3465
18.610703134, 96.390, 2118.0, 46.0217
18.636963699, 96.390, 2035.0, 45.1110
18.663224264, 96.390, 2088.0, 45.6946
18.689484830, 96.390, 2220.0, 47.1169
18.715745395, 96.390, 2134.0, 46.1952
18.742005960, 96.390, 2102.0, 45.8476
18.768266526, 96.390, 2157.0, 46.4435
18.794527091, 96.390, 2211.0, 47.0213
18.820787657, 96.390, 2245.0, 47.3814
18.847048222, 96.390, 2221.0, 47.1275
18.873308787, 96.390, 2170.0, 46.5833
18.899569353, 96.390, 2168.0, 46.5618
18.925829918, 96.390, 2213.0, 47.0425
18.952090483, 96.390, 2274.0, 47.6865
18.978351049, 96.390, 2183.0, 46.7226
19.004611614, 96.390, 2182.0, 46.7119
19.030872179, 96.390, 2299.0, 47.9479
19.057132745, 96.390, 2238.0, 47.3075
19.083393310, 96.390, 2219.0, 47.1063
19.109653875, 96.390, 2236.0, 47.2864
19.135914441, 96.390, 2297.0, 47.9270
19.162175006, 96.390, 2273.0, 47.6760
19.188435572, 96.390, 2316.0, 48.1248
19.214696137, 96.390, 2344.0, 48.4149
19.240956702, 96.390, 2291.0, 47.8644
19.267217268, 96.390, 2277.0, 47.7179
19.293477833, 96.390, 2265.0, 47.5920
19.319738398, 96.390, 2317.0, 48.1352
19.345998964, 96.390, 2240.0, 47.3286
19.372259529, 96.390, 2307.0, 48.0312
19.398520094, 96.390, 2360.0, 48.5798
19.424780660, 96.390, 2261.0, 47.5500
19.451041225, 96.390, 2335.0, 48.3218
19.477301790, 96.390, 2262.0, 47.5605
19.503562356, 96.390, 2252.0, 47.4552
19.529822921, 96.390, 2235.0, 47.2758
19.556083486, 96.390, 2387.0, 48.8569
19.582344052, 96.390, 2294.0, 47.8957
19.608604617, 96.390, 2352.0, 48.4974
19.634865183, 96.390, 2277.0, 47.7179
19.661125748, 96.390, 2374.0, 48.7237
19.687386313, 96.390, 2259.0, 47.5289
19.713646879, 96.390, 2360.0, 48.5798
19.739907444, 96.390, 2374.0, 48.7237
19.766168009, 96.390, 2361.0, 48.5901
19.792428575, 96.390, 2413.0, 49.1223
19.818689140, 96.390, 2350.0, 48.4768
19.844949705, 96.390, 2438.0, 49.3761
19.871210271, 96.390, 2489.0, 49.8899
19.897470836, 96.390, 2449.0, 49.4874
19.923731401, 96.390, 2402.0, 49.0102
19.949991967, 96.390, 2523.0, 50.2295
19.976252532, 96.390, 2461.0, 49.6085
20.002513097, 96.390, 2443.0, 49.4267
20.028773663, 96.390, 2457.0, 49.5681
20.055034228, 96.390, 2472.0, 49.7192
20.081294794, 96.390, 2423.0, 49.2240
20.107555359, 96.390, 2461.0, 49.6085
20.133815924, 96.390, 2568.0, 50.6754
20.160076490, 96.390, 2465.0, 49.6488
20.186337055, 96.390, 2425.0, 49.2443
20.212597620, 96.390, 2506.0, 50.0600
20.238858186, 96.390, 2505.0, 50.0500
20.265118751, 96.390, 2451.0, 49.5076
20.291379316, 96.390, 2477.0, 49.7695
20.317639882, 96.390, 2542.0, 50.4183
20.343900447, 96.390, 2498.0, 49.9800
20.370161012, 96.390, 2534.0, 50.3389
20.396421578, 96.390, 2486.0, 49.8598
20.422682143, 96.390, 2552.0, 50.5173
20.448942709, 96.390, 2584.0, 50.8331
20.475203274, 96.390, 2484.0, 49.8397
20.501463839, 96.390, 2543.0, 50.4282
20.527724405, 96.390, 2474.0, 49.7393
20.553984970, 96.390, 2635.0, 51.3323
20.580245535, 96.390, 2580.0, 50.7937
20.606506101, 96.390, 2588.0, 50.8724
20.632766666, 96.390, 2453.0, 49.5278
20.659027231, 96.390, 2620.0, 51.1859
20.685287797, 96.390, 2608.0, 51.0686
20.711548362, 96.390, 2623.0, 51.2152
20.737808927, 96.390, 2569.0, 50.6853
20.764069493, 96.390, 2621.0, 51.1957
20.790330058, 96.390, 2640.0, 51.3809
20.816590623, 96.390, 2549.0, 50.4876
20.842851189, 96.390, 2669.0, 51.6624
20.869111754, 96.390, 2593.0, 50.9215
20.895372320, 96.390, 2743.0, 52.3737
20.921632885, 96.390, 2661.0, 51.5849
20.947893450, 96.390, 2675.0, 51.7204
20.974154016, 96.390, 2633.0, 51.3128
21.000414581, 96.390, 2714.0, 52.0961
21.026675146, 96.390, 2734.0, 52.2877
21.052935712, 96.390, 2753.0, 52.4690
21.079196277, 96.390, 2660.0, 51.5752
21.105456842, 96.390, 2654.0, 51.5170
21.131717408, 96.390, 2737.0, 52.3163
21.157977973, 96.390, 2680.0, 51.7687
21.184238538, 96.390, 2699.0, 51.9519
21.210499104, 96.390, 2752.0, 52.4595
21.236759669, 96.390, 2772.0, 52.6498
21.263020235, 96.390, 2684.0, 51.8073
21.289280800, 96.390, 2681.0, 51.7784
21.315541365, 96.390, 2797.0, 52.8867
21.341801931, 96.390, 2831.0, 53.2071
21.368062496, 96.390, 2802.0, 52.9339
21.394323061, 96.390, 2735.0, 52.2972
21.420583627, 96.390, 2788.0, 52.8015
21.446844192, 96.390, 2811.0, 53.0189
21.473104757, 96.390, 2850.0, 53.3854
21.499365323, 96.390, 2844.0, 53.3292
21.525625888, 96.390, 2883.0, 53.6936
21.551886453, 96.390, 2921.0, 54.0463
21.578147019, 96.390, 2968.0, 54.4794
21.604407584, 96.390, 2736.0, 52.3068
21.630668149, 96.390, 2757.0, 52.5071
21.656928715, 96.390, 2866.0, 53.5350
21.683189280, 96.390, 2802.0, 52.9339
21.709449846, 96.390, 2921.0, 54.0463
21.735710411, 96.390, 2938.0, 54.2033
21.761970976, 96.390, 2884.0, 53.7029
21.788231542, 96.390, 2813.0, 53.0377
21.814492107, 96.390, 2887.0, 53.7308
21.840752672, 96.390, 2794.0, 52.8583
21.867013238, 96.390, 2782.0, 52.7447
21.893273803, 96.390, 2838.0, 53.2729
21.919534368, 96.390, 2853.0, 53.4135
21.945794934, 96.390, 2853.0, 53.4135
21.972055499, 96.390, 2815.0, 53.0566
21.998316064, 96.390, 2925.0, 54.0833
22.024576630, 96.390, 2843.0, 53.3198
22.050837195, 96.390, 2914.0, 53.9815
22.077097761, 96.390, 2927.0, 54.1018
22.103358326, 96.390, 2979.0, 54.5802
22.129618891, 96.390, 2889.0, 53.7494
22.155879457, 96.390, 2867.0, 53.5444
22.182140022, 96.390, 2869.0, 53.5630
22.208400587, 96.390, 2913.0, 53.9722
22.234661153, 96.390, 2846.0, 53.3479
22.260921718, 96.390, 2917.0, 54.0093
22.287182283, 96.390, 2863.0, 53.5070
22.313442849, 96.390, 2897.0, 53.8238
22.339703414, 96.390, 2874.0, 53.6097
22.365963979, 96.390, 2967.0, 54.4702
22.392224545, 96.390, 2912.0, 53.9630
22.418485110, 96.390, 2905.0, 53.8981
22.444745675, 96.390, 2827.0, 53.1695
22.471006241, 96.390, 2812.0, 53.0283
22.497266806, 96.390, 2907.0, 53.9166
22.523527372, 96.390, 2984.0, 54.6260
22.549787937, 96.390, 2938.0, 54.2033
22.576048502, 96.390, 2929.0, 54.1202
22.602309068, 96.390, 2898.0, 53.8331
22.628569633, 96.390, 2937.0, 54.1941
22.654830198, 96.390, 3023.0, 54.9818
22.681090764, 96.390, 2954.0, 54.3507
22.707351329, 96.390, 2874.0, 53.6097
22.733611894, 96.390, 3005.0, 54.8179
22.759872460, 96.390, 2922.0, 54.0555
22.786133025, 96.390, 2896.0, 53.8145
22.812393590, 96.390, 2969.0, 54.4885
22.838654156, 96.390, 2831.0, 53.2071
22.864914721, 96.390, 2955.0, 54.3599
22.891175287, 96.390, 3022.0, 54.9727
22.917435852, 96.390, 2889.0, 53.7494
22.943696417, 96.390, 2976.0, 54.5527
22.969956983, 96.390, 2976.0, 54.5527
22.996217548, 96.390, 2980.0, 54.5894
23.022478113, 96.390, 2945.0, 54.2679
23.048738679, 96.390, 2855.0, 53.4322
23.074999244, 96.390, 2956.0, 54.3691
23.101259809, 96.390, 2940.0, 54.2218
23.127520375, 96.390, 2905.0, 53.8981
23.153780940, 96.390, 2971.0, 54.5069
23.180041505, 96.390, 2959.0, 54.3967
23.206302071, 96.390, 3006.0, 54.8270
23.232562636, 96.390, 3050.0, 55.2268
23.258823201, 96.390, 2902.0, 53.8702
23.285083767, 96.390, 2925.0, 54.0833
23.311344332, 96.390, 3044.0, 55.1725
23.337604898, 96.390, 2965.0, 54.4518
23.363865463, 96.390, 2989.0, 54.6717
23.390126028, 96.390, 3015.0, 54.9090
23.416386594, 96.390, 2864.0, 53.5164
23.442647159, 96.390, 2884.0, 53.7029
23.468907724, 96.390, 2895.0, 53.8052
23.495168290, 96.390, 2880.0, 53.6656
23.521428855, 96.390, 2941.0, 54.2310
23.547689420, 96.390, 3063.0, 55.3444
23.573949986, 96.390, 2971.0, 54.5069
23.600210551, 96.390, 2904.0, 53.8888
23.626471116, 96.390, 2992.0, 54.6992
23.652731682, 96.390, 2921.0, 54.0463
23.678992247, 96.390, 2835.0, 53.2447
23.705252813, 96.390, 3125.0, 55.9017
23.731513378, 96.390, 3014.0, 54.8999
23.757773943, 96.390, 2929.0, 54.1202
23.784034509, 96.390, 2945.0, 54.2679
23.810295074, 96.390, 2974.0, 54.5344
23.836555639, 96.390, 2988.0, 54.6626
23.862816205, 96.390, 2933.0, 54.1572
23.889076770, 96.390, 3019.0, 54.9454
23.915337335, 96.390, 3035.0, 55.0908
23.941597901, 96.390, 2871.0, 53.5817
23.967858466, 96.390, 2899.0, 53.8424
23.994119031, 96.390, 2991.0, 54.6900
24.020379597, 96.390, 2940.0, 54.2218
24.046640162, 96.390, 2858.0, 53.4603
24.072900727, 96.390, 3002.0, 54.7905
24.099161293, 96.390, 2905.0, 53.8981
24.125421858, 96.390, 2979.0, 54.5802
24.151682424, 96.390, 2866.0, 53.5350
24.177942989, 96.390, 2956.0, 54.3691
24.204203554, 96.390, 2906.0, 53.9073
24.230464120, 96.390, 2872.0, 53.5910
24.256724685, 96.390, 2898.0, 53.8331
24.282985250, 96.390, 3019.0, 54.9454
24.309245816, 96.390, 2850.0, 53.3854
24.335506381, 96.390, 2848.0, 53.3667
24.361766946, 96.390, 2962.0, 54.4243
24.388027512, 96.390, 2921.0, 54.0463
24.414288077, 96.390, 3014.0, 54.8999
24.440548642, 96.390, 3037.0, 55.1090
24.466809208, 96.390, 2961.0, 54.4151
24.493069773, 96.390, 3023.0, 54.9818
24.519330338, 96.390, 2826.0, 53.1601
24.545590904, 96.390, 2957.0, 54.3783
24.571851469, 96.390, 2889.0, 53.7494
24.598112035, 96.390, 2837.0, 53.2635
24.624372600, 96.390, 2829.0, 53.1883
24.650633165, 96.390, 2855.0, 53.4322
24.676893731, 96.390, 2906.0, 53.9073
24.703154296, 96.390, 2846.0, 53.3479
24.729414861, 96.390, 2782.0, 52.7447
24.755675427, 96.390, 2892.0, 53.7773
24.781935992, 96.390, 2850.0, 53.3854
24.808196557, 96.390, 2878.0, 53.6470
24.834457123, 96.390, 2888.0, 53.7401
24.860717688, 96.390, 2884.0, 53.7029
24.886978253, 96.390, 2887.0, 53.7308
24.913238819, 96.390, 2747.0, 52.4118
24.939499384, 96.390, 2873.0, 53.6004
24.965759950, 96.390, 2919.0, 54.0278
24.992020515, 96.390, 2852.0, 53.4041
25.018281080, 96.390, 2821.0, 53.1131
25.044541646, 96.390, 2792.0, 52.8394
25.070802211, 96.390, 2918.0, 54.0185
25.097062776, 96.390, 2940.0, 54.2218
25.123323342, 96.390, 2933.0, 54.1572
25.149583907, 96.390, 2820.0, 53.1037
25.175844472, 96.390, 2817.0, 53.0754
25.202105038, 96.390, 2745.0, 52.3927
25.228365603, 96.390, 2767.0, 52.6023
25.254626168, 96.390, 2804.0, 52.9528
25.280886734, 96.390, 2857.0, 53.4509
25.307147299, 96.390, 2938.0, 54.2033
25.333407864, 96.390, 2904.0, 53.8888
25.359668430, 96.390, 2833.0, 53.2259
25.385928995, 96.390, 2797.0, 52.8867
25.412189561, 96.390, 2864.0, 53.5164
25.438450126, 96.390, 2870.0, 53.5724
25.464710691, 96.390, 2763.0, 52.5642
25.490971257, 96.390, 2850.0, 53.3854
25.517231822, 96.390, 2862.0, 53.4977
25.543492387, 96.390, 2820.0, 53.1037
25.569752953, 96.390, 2878.0, 53.6470
25.596013518, 96.390, 2849.0, 53.3760
25.622274083, 96.390, 2767.0, 52.6023
25.648534649, 96.390, 2815.0, 53.0566
25.674795214, 96.390, 2927.0, 54.1018
25.701055779, 96.390, 2861.0, 53.4883
25.727316345, 96.390, 2923.0, 54.0648
25.753576910, 96.390, 2785.0, 52.7731
25.779837476, 96.390, 2835.0, 53.2447
25.806098041, 96.390, 2865.0, 53.5257
25.832358606, 96.390, 2897.0, 53.8238
25.858619172, 96.390, 2724.0, 52.1920
25.884879737, 96.390, 2817.0, 53.0754
25.911140302, 96.390, 2789.0, 52.8110
25.937400868, 96.390, 2717.0, 52.1249
25.963661433, 96.390, 2729.0, 52.2398
25.989921998, 96.390, 2878.0, 53.6470
26.016182564, 96.390, 2758.0, 52.5167
26.042443129, 96.390, 2766.0, 52.5928
26.068703694, 96.390, 2806.0, 52.9717
26.094964260, 96.390, 2722.0, 52.1728
26.121224825, 96.390, 2666.0, 51.6333
26.147485390, 96.390, 2766.0, 52.5928
26.173745956, 96.390, 2795.0, 52.8678
26.200006521, 96.390, 2841.0, 53.3010
26.226267087, 96.390, 2790.0, 52.8205
26.252527652, 96.390, 2654.0, 51.5170
26.278788217, 96.390, 2774.0, 52.6688
26.305048783, 96.390, 2803.0, 52.9434
26.331309348, 96.390, 2829.0, 53.1883
26.357569913, 96.390, 2664.0, 51.6140
26.383830479, 96.390, 2715.0, 52.1057
26.410091044, 96.390, 2712.0, 52.0769
26.436351609, 96.390, 2652.0, 51.4976
26.462612175, 96.390, 2707.0, 52.0288
26.488872740, 96.390, 2822.0, 53.1225
26.515133305, 96.390, 2630.0, 51.2835
26.541393871, 96.390, 2766.0, 52.5928
26.567654436, 96.390, 2756.0, 52.4976
26.593915002, 96.390, 2756.0, 52.4976
26.620175567, 96.390, 2737.0, 52.3163
26.646436132, 96.390, 2715.0, 52.1057
26.672696698, 96.390, 2758.0, 52.5167
26.698957263, 96.390, 2709.0, 52.0481
26.725217828, 96.390, 2608.0, 51.0686
26.751478394, 96.390, 2750.0, 52.4404
26.777738959, 96.390, 2673.0, 51.7011
26.803999524, 96.390, 2719.0, 52.1440
26.830260090, 96.390, 2627.0, 51.2543
26.856520655, 96.390, 2811.0, 53.0189
26.882781220, 96.390, 2672.0, 51.6914
26.909041786, 96.390, 2713.0, 52.0865
26.935302351, 96.390, 2721.0, 52.1632
26.961562916, 96.390, 2576.0, 50.7543
26.987823482, 96.390, 2655.0, 51.5267
27.014084047, 96.390, 2682.0, 51.7880
27.040344613, 96.390, 2668.0, 51.6527
27.066605178, 96.390, 2607.0, 51.0588
27.092865743, 96.390, 2676.0, 51.7301
27.119126309, 96.390, 2533.0, 50.3289
27.145386874, 96.390, 2627.0, 51.2543
27.171647439, 96.390, 2702.0, 51.9808
27.197908005, 96.390, 2628.0, 51.2640
27.224168570, 96.390, 2738.0, 52.3259
27.250429135, 96.390, 2619.0, 51.1762
27.276689701, 96.390, 2669.0, 51.6624
27.302950266, 96.390, 2591.0, 50.9019
27.329210831, 96.390, 2694.0, 51.9038
27.355471397, 96.390, 2553.0, 50.5272
27.381731962, 96.390, 2621.0, 51.1957
27.407992528, 96.390, 2651.0, 51.4879
27.434253093, 96.390, 2585.0, 50.8429
27.460513658, 96.390, 2683.0, 51.7977
27.486774224, 96.390, 2601.0, 51.0000
27.513034789, 96.390, 2547.0, 50.4678
27.539295354, 96.390, 2579.0, 50.7839
27.565555920, 96.390, 2673.0, 51.7011
27.591816485, 96.390, 2643.0, 51.4101
27.618077050, 96.390, 2610.0, 51.0882
27.644337616, 96.390, 2586.0, 50.8527
27.670598181, 96.390, 2596.0, 50.9510
27.696858746, 96.390, 2515.0, 50.1498
27.723119312, 96.390, 2496.0, 49.9600
27.749379877, 96.390, 2569.0, 50.6853
27.775640442, 96.390, 2481.0, 49.8096
27.801901008, 96.390, 2548.0, 50.4777
27.828161573, 96.390, 2632.0, 51.3030
27.854422139, 96.390, 2624.0, 51.2250
27.880682704, 96.390, 2565.0, 50.6458
27.906943269, 96.390, 2500.0, 50.0000
27.933203835, 96.390, 2417.0, 49.1630
27.959464400, 96.390, 2578.0, 50.7740
27.985724965, 96.390, 2516.0, 50.1597
28.011985531, 96.390, 2568.0, 50.6754
28.038246096, 96.390, 2550.0, 50.4975
28.064506661, 96.390, 2590.0, 50.8920
28.090767227, 96.390, 2575.0, 50.7445
28.117027792, 96.390, 2483.0, 49.8297
28.143288357, 96.390, 2565.0, 50.6458
28.169548923, 96.390, 2520.0, 50.1996
28.195809488, 96.390, 2518.0, 50.1797
28.222070054, 96.390, 2437.0, 49.3660
28.248330619, 96.390, 2598.0, 50.9706
28.274591184, 96.390, 2426.0, 49.2544
28.300851750, 96.390, 2463.0, 49.6286
28.327112315, 96.390, 2577.0, 50.7642
28.353372880, 96.390, 2585.0, 50.8429
28.379633446, 96.390, 2524.0, 50.2394
28.405894011, 96.390, 2568.0, 50.6754
28.432154576, 96.390, 2558.0, 50.5767
28.458415142, 96.390, 2563.0, 50.6261
28.484675707, 96.390, 2475.0, 49.7494
28.510936272, 96.390, 2470.0, 49.6991
28.537196838, 96.390, 2454.0, 49.5379
28.563457403, 96.390, 2540.0, 50.3984
28.589717968, 96.390, 2531.0, 50.3090
28.615978534, 96.390, 2537.0, 50.3686
28.642239099, 96.390, 2439.0, 49.3862
28.668499665, 96.390, 2478.0, 49.7795
28.694760230, 96.390, 2449.0, 49.4874
28.721020795, 96.390, 2448.0, 49.4773
28.747281361, 96.390, 2562.0, 50.6162
28.773541926, 96.390, 2475.0, 49.7494
28.799802491, 96.390, 2436.0, 49.3559
28.826063057, 96.390, 2445.0, 49.4469
28.852323622, 96.390, 2403.0, 49.0204
28.878584187, 96.390, 2392.0, 48.9081
28.904844753, 96.390, 2513.0, 50.1298
28.931105318, 96.390, 2403.0, 49.0204
28.957365883, 96.390, 2379.0, 48.7750
28.983626449, 96.390, 2400.0, 48.9898
29.009887014, 96.390, 2573.0, 50.7247
29.036147579, 96.390, 2472.0, 49.7192
29.062408145, 96.390, 2426.0, 49.2544
29.088668710, 96.390, 2408.0, 49.0714
29.114929276, 96.390, 2444.0, 49.4368
29.141189841, 96.390, 2425.0, 49.2443
29.167450406, 96.390, 2502.0, 50.0200
29.193710972, 96.390, 2492.0, 49.9199
29.219971537, 96.390, 2453.0, 49.5278
29.246232102, 96.390, 2415.0, 49.1426
29.272492668, 96.390, 2430.0, 49.2950
29.298753233, 96.390, 2401.0, 49.0000
29.325013798, 96.390, 2389.0, 48.8774
29.351274364, 96.390, 2322.0, 48.1871
29.377534929, 96.390, 2380.0, 48.7852
29.403795494, 96.390, 2441.0, 49.4065
29.430056060, 96.390, 2329.0, 48.2597
29.456316625, 96.390, 2324.0, 48.2079
29.482577191, 96.390, 2314.0, 48.1041
29.508837756, 96.390, 2443.0, 49.4267
29.535098321, 96.390, 2395.0, 48.9387
29.561358887, 96.390, 2278.0, 47.7284
29.587619452, 96.390, 2368.0, 48.6621
29.613880017, 96.390, 2434.0, 49.3356
29.640140583, 96.390, 2268.0, 47.6235
29.666401148, 96.390, 2310.0, 48.0625
29.692661713, 96.390, 2346.0, 48.4355
29.718922279, 96.390, 2343.0, 48.4045
29.745182844, 96.390, 2346.0, 48.4355
29.771443409, 96.390, 2369.0, 48.6724
29.797703975, 96.390, 2370.0, 48.6826
29.823964540, 96.390, 2291.0, 47.8644
29.850225105, 96.390, 2294.0, 47.8957
29.876485671, 96.390, 2307.0, 48.0312
29.902746236, 96.390, 2254.0, 47.4763
29.929006802, 96.390, 2297.0, 47.9270
29.955267367, 96.390, 2322.0, 48.1871
29.981527932, 96.390, 2201.0, 46.9148
30.007788498, 96.390, 2291.0, 47.8644
30.034049063, 96.390, 2369.0, 48.6724
30.060309628, 96.390, 2367.0, 48.6518
30.086570194, 96.390, 2262.0, 47.5605
30.112830759, 96.390, 2299.0, 47.9479
30.139091324, 96.390, 2212.0, 47.0319
30.165351890, 96.390, 2361.0, 48.5901
30.191612455, 96.390, 2261.0, 47.5500
30.217873020, 96.390, 2264.0, 47.5815
30.244133586, 96.390, 2267.0, 47.6130
30.270394151, 96.390, 2284.0, 47.7912
30.296654717, 96.390, 2271.0, 47.6550
30.322915282, 96.390, 2304.0, 48.0000
30.349175847, 96.390, 2262.0, 47.5605
30.375436413, 96.390, 2227.0, 47.1911
30.401696978, 96.390, 2233.0, 47.2546
30.427957543, 96.390, 2377.0, 48.7545
30.454218109, 96.390, 2236.0, 47.2864
30.480478674, 96.390, 2218.0, 47.0956
30.506739239, 96.390, 2200.0, 46.9042
30.532999805, 96.390, 2280.0, 47.7493
30.559260370, 96.390, 2239.0, 47.3181
30.585520935, 96.390, 2273.0, 47.6760
30.611781501, 96.390, 2152.0, 46.3897
30.638042066, 96.390, 2170.0, 46.5833
30.664302631, 96.390, 2236.0, 47.2864
30.690563197, 96.390, 2259.0, 47.5289
30.716823762, 96.390, 2130.0, 46.1519
30.743084328, 96.390, 2119.0, 46.0326
30.769344893, 96.390, 2080.0, 45.6070
30.795605458, 96.390, 2244.0, 47.3709
30.821866024, 96.390, 2155.0, 46.4220
30.848126589, 96.390, 2200.0, 46.9042
30.874387154, 96.390, 2085.0, 45.6618
30.900647720, 96.390, 2222.0, 47.1381
30.926908285, 96.390, 2218.0, 47.0956
30.953168850, 96.390, 2199.0, 46.8935
30.979429416, 96.390, 2223.0, 47.1487
31.005689981, 96.390, 2162.0, 46.4973
31.031950546, 96.390, 2084.0, 45.6508
31.058211112, 96.390, 2146.0, 46.3249
31.084471677, 96.390, 2198.0, 46.8828
31.110732243, 96.390, 2081.0, 45.6180
31.136992808, 96.390, 2028.0, 45.0333
31.163253373, 96.390, 2062.0, 45.4093
31.189513939, 96.390, 2138.0, 46.2385
31.215774504, 96.390, 2081.0, 45.6180
31.242035069, 96.390, 2166.0, 46.5403
31.268295635, 96.390, 2092.0, 45.7384
31.294556200, 96.390, 2104.0, 45.8694
31.320816765, 96.390, 2083.0, 45.6399
31.347077331, 96.390, 2107.0, 45.9021
31.373337896, 96.390, 2143.0, 46.2925
31.399598461, 96.390, 2170.0, 46.5833
31.425859027, 96.390, 2140.0, 46.2601
31.452119592, 96.390, 2120.0, 46.0435
31.478380157, 96.390, 2041.0, 45.1774
31.504640723, 96.390, 2102.0, 45.8476
31.530901288, 96.390, 1998.0, 44.6990
31.557161854, 96.390, 2072.0, 45.5192
31.583422419, 96.390, 2035.0, 45.1110
31.609682984, 96.390, 2084.0, 45.6508
31.635943550, 96.390, 2045.0, 45.2217
31.662204115, 96.390, 2082.0, 45.6289
31.688464680, 96.390, 2085.0, 45.6618
31.714725246, 96.390, 2045.0, 45.2217
31.740985811, 96.390, 2122.0, 46.0652
31.767246376, 96.390, 2050.0, 45.2769
31.793506942, 96.390, 2093.0, 45.7493
31.819767507, 96.390, 2000.0, 44.7214
31.846028072, 96.390, 2054.0, 45.3211
31.872288638, 96.390, 2015.0, 44.8888
31.898549203, 96.390, 1956.0, 44.2267
31.924809769, 96.390, 2078.0, 45.5851
31.951070334, 96.390, 1949.0, 44.1475
31.977330899, 96.390, 2007.0, 44.7996
32.003591465, 96.390, 2047.0, 45.2438
32.029852030, 96.390, 1997.0, 44.6878
32.056112595, 96.390, 1971.0, 44.3959
32.082373161, 96.390, 2025.0, 45.0000
32.108633726, 96.390, 2013.0, 44.8665
32.134894291, 96.390, 2003.0, 44.7549
32.161154857, 96.390, 2014.0, 44.8776
32.187415422, 96.390, 1950.0, 44.1588
32.213675987, 96.390, 1948.0, 44.1362
32.239936553, 96.390, 1958.0, 44.2493
32.266197118, 96.390, 2045.0, 45.2217
32.292457683, 96.390, 1932.0, 43.9545
32.318718249, 96.390, 1982.0, 44.5197
32.344978814, 96.390, 2000.0, 44.7214
32.371239380, 96.390, 1976.0, 44.4522
32.397499945, 96.390, 1900.0, 43.5890
32.423760510, 96.390, 1949.0, 44.1475
32.450021076, 96.390, 1983.0, 44.5309
32.476281641, 96.390, 1948.0, 44.1362
32.502542206, 96.390, 1951.0, 44.1701
32.528802772, 96.390, 1925.0, 43.8748
32.555063337, 96.390, 1914.0, 43.7493
32.581323902, 96.390, 1998.0, 44.6990
32.607584468, 96.390, 1913.0, 43.7379
32.633845033, 96.390, 1870.0, 43.2435
32.660105598, 96.390, 1812.0, 42.5676
32.686366164, 96.390, 1861.0, 43.1393
32.712626729, 96.390, 1881.0, 43.3705
32.738887295, 96.390, 1906.0, 43.6578
32.765147860, 96.390, 1926.0, 43.8862
32.791408425, 96.390, 1943.0, 44.0795
32.817668991, 96.390, 1914.0, 43.7493
32.843929556, 96.390, 1877.0, 43.3244
32.870190121, 96.390, 1856.0, 43.0813
32.896450687, 96.390, 1886.0, 43.4281
32.922711252, 96.390, 1812.0, 42.5676
32.948971817, 96.390, 1805.0, 42.4853
32.975232383, 96.390, 1943.0, 44.0795
33.001492948, 96.390, 1861.0, 43.1393
33.027753513, 96.390, 1873.0, 43.2782
33.054014079, 96.390, 1824.0, 42.7083
33.080274644, 96.390, 1871.0, 43.2551
33.106535209, 96.390, 1805.0, 42.4853
33.132795775, 96.390, 1855.0, 43.0697
33.159056340, 96.390, 1860.0, 43.1277
33.185316906, 96.390, 1883.0, 43.3935
33.211577471, 96.390, 1822.0, 42.6849
33.237838036, 96.390, 1891.0, 43.4856
33.264098602, 96.390, 1781.0, 42.2019
33.290359167, 96.390, 1944.0, 44.0908
33.316619732, 96.390, 1807.0, 42.5088
33.342880298, 96.390, 1749.0, 41.8210
33.369140863, 96.390, 1778.0, 42.1663
33.395401428, 96.390, 1767.0, 42.0357
33.421661994, 96.390, 1761.0, 41.9643
33.447922559, 96.390, 1765.0, 42.0119
33.474183124, 96.390, 1780.0, 42.1900
33.500443690, 96.390, 1774.0, 42.1189
33.526704255, 96.390, 1764.0, 42.0000
33.552964820, 96.390, 1737.0, 41.6773
33.579225386, 96.390, 1809.0, 42.5323
33.605485951, 96.390, 1810.0, 42.5441
33.631746517, 96.390, 1811.0, 42.5558
33.658007082, 96.390, 1734.0, 41.6413
33.684267647, 96.390, 1795.0, 42.3674
33.710528213, 96.390, 1832.0, 42.8019
33.736788778, 96.390, 1775.0, 42.1307
33.763049343, 96.390, 1797.0, 42.3910
33.789309909, 96.390, 1731.0, 41.6053
33.815570474, 96.390, 1778.0, 42.1663
33.841831039, 96.390, 1718.0, 41.4488
33.868091605, 96.390, 1756.0, 41.9047
33.894352170, 96.390, 1729.0, 41.5812
33.920612735, 96.390, 1718.0, 41.4488
33.946873301, 96.390, 1744.0, 41.7612
33.973133866, 96.390, 1709.0, 41.3401
33.999394432, 96.390, 1731.0, 41.6053
34.025654997, 96.390, 1651.0, 40.6325
34.051915562, 96.390, 1683.0, 41.0244
34.078176128, 96.390, 1727.0, 41.5572
34.104436693, 96.390, 1686.0, 41.0609
34.130697258, 96.390, 1695.0, 41.1704
34.156957824, 96.390, 1734.0, 41.6413
34.183218389, 96.390, 1677.0, 40.9512
34.209478954, 96.390, 1679.0, 40.9756
34.235739520, 96.390, 1728.0, 41.5692
34.262000085, 96.390, 1730.0, 41.5933
34.288260650, 96.390, 1628.0, 40.3485
34.314521216, 96.390, 1654.0, 40.6694
34.340781781, 96.390, 1598.0, 39.9750
34.367042346, 96.390, 1678.0, 40.9634
34.393302912, 96.390, 1757.0, 41.9166
34.419563477, 96.390, 1680.0, 40.9878
34.445824043, 96.390, 1667.0, 40.8289
34.472084608, 96.390, 1708.0, 41.3280
34.498345173, 96.390, 1601.0, 40.0125
34.524605739, 96.390, 1675.0, 40.9268
34.550866304, 96.390, 1649.0, 40.6079
34.577126869, 96.390, 1577.0, 39.7115
34.603387435, 96.390, 1631.0, 40.3856
34.629648000, 96.390, 1631.0, 40.3856
34.655908565, 96.390, 1626.0, 40.3237
34.682169131, 96.390, 1685.0, 41.0488
34.708429696, 96.390, 1623.0, 40.2865
34.734690261, 96.390, 1660.0, 40.7431
34.760950827, 96.390, 1639.0, 40.4846
34.787211392, 96.390, 1605.0, 40.0625
34.813471958, 96.390, 1665.0, 40.8044
34.839732523, 96.390, 1545.0, 39.3065
34.865993088, 96.390, 1578.0, 39.7240
34.892253654, 96.390, 1563.0, 39.5348
34.918514219, 96.390, 1542.0, 39.2683
34.944774784, 96.390, 1614.0, 40.1746
34.971035350, 96.390, 1602.0, 40.0250
34.997295915, 96.390, 1524.0, 39.0384
35.023556480, 96.390, 1646.0, 40.5709
35.049817046, 96.390, 1575.0, 39.6863
35.076077611, 96.390, 1555.0, 39.4335
35.102338176, 96.390, 1551.0, 39.3827
35.128598742, 96.390, 1555.0, 39.4335
35.154859307, 96.390, 1544.0, 39.2938
35.181119872, 96.390, 1575.0, 39.6863
35.207380438, 96.390, 1550.0, 39.3700
35.233641003, 96.390, 1545.0, 39.3065
35.259901569, 96.390, 1594.0, 39.9249
35.286162134, 96.390, 1616.0, 40.1995
35.312422699, 96.390, 1574.0, 39.6737
35.338683265, 96.390, 1612.0, 40.1497
35.364943830, 96.390, 1498.0, 38.7040
35.391204395, 96.390, 1519.0, 38.9744
35.417464961, 96.390, 1541.0, 39.2556
35.443725526, 96.390, 1606.0, 40.0749
35.469986091, 96.390, 1505.0, 38.7943
35.496246657, 96.390, 1559.0, 39.4842
35.522507222, 96.390, 1512.0, 38.8844
35.548767787, 96.390, 1488.0, 38.5746
35.575028353, 96.390, 1537.0, 39.2046
35.601288918, 96.390, 1543.0, 39.2810
35.627549484, 96.390, 1523.0, 39.0256
35.653810049, 96.390, 1521.0, 39.0000
35.680070614, 96.390, 1464.0, 38.2623
35.706331180, 96.390, 1525.0, 39.0512
35.732591745, 96.390, 1493.0, 38.6394
35.758852310, 96.390, 1466.0, 38.2884
35.785112876, 96.390, 1513.0, 38.8973
35.811373441, 96.390, 1460.0, 38.2099
35.837634006, 96.390, 1522.0, 39.0128
35.863894572, 96.390, 1457.0, 38.1707
35.890155137, 96.390, 1433.0, 37.8550
35.916415702, 96.390, 1434.0, 37.8682
35.942676268, 96.390, 1477.0, 38.4318
35.968936833, 96.390, 1386.0, 37.2290
35.995197398, 96.390, 1603.0, 40.0375
36.021457964, 96.390, 1522.0, 39.0128
36.047718529, 96.390, 1525.0, 39.0512
36.073979095, 96.390, 1372.0, 37.0405
36.100239660, 96.390, 1421.0, 37.6962
36.126500225, 96.390, 1459.0, 38.1969
36.152760791, 96.390, 1458.0, 38.1838
36.179021356, 96.390, 1445.0, 38.0132
36.205281921, 96.390, 1421.0, 37.6962
36.231542487, 96.390, 1458.0, 38.1838
36.257803052, 96.390, 1454.0, 38.1314
36.284063617, 96.390, 1398.0, 37.3898
36.310324183, 96.390, 1423.0, 37.7227
36.336584748, 96.390, 1371.0, 37.0270
36.362845313, 96.390, 1347.0, 36.7015
36.389105879, 96.390, 1426.0, 37.7624
36.415366444, 96.390, 1352.0, 36.7696
36.441627010, 96.390, 1424.0, 37.7359
36.467887575, 96.390, 1375.0, 37.0810
36.494148140, 96.390, 1396.0, 37.3631
36.520408706, 96.390, 1378.0, 37.1214
36.546669271, 96.390, 1397.0, 37.3765
36.572929836, 96.390, 1407.0, 37.5100
36.599190402, 96.390, 1404.0, 37.4700
36.625450967, 96.390, 1324.0, 36.3868
36.651711532, 96.390, 1337.0, 36.5650
36.677972098, 96.390, 1444.0, 38.0000
36.704232663, 96.390, 1398.0, 37.3898
36.730493228, 96.390, 1352.0, 36.7696
36.756753794, 96.390, 1348.0, 36.7151
36.783014359, 96.390, 1307.0, 36.1525
36.809274924, 96.390, 1397.0, 37.3765
36.835535490, 96.390, 1351.0, 36.7560
36.861796055, 96.390, 1346.0, 36.6879
36.888056621, 96.390, 1319.0, 36.3180
36.914317186, 96.390, 1359.0, 36.8646
36.940577751, 96.390, 1386.0, 37.2290
36.966838317, 96.390, 1334.0, 36.5240
36.993098882, 96.390, 1390.0, 37.2827
37.019359447, 96.390, 1362.0, 36.9053
37.045620013, 96.390, 1335.0, 36.5377
37.071880578, 96.390, 1368.0, 36.9865
37.098141143, 96.390, 1319.0, 36.3180
37.124401709, 96.390, 1314.0, 36.2491
37.150662274, 96.390, 1287.0, 35.8748
37.176922839, 96.390, 1331.0, 36.4829
37.203183405, 96.390, 1376.0, 37.0945
37.229443970, 96.390, 1304.0, 36.1109
37.255704535, 96.390, 1273.0, 35.6791
37.281965101, 96.390, 1313.0, 36.2353
37.308225666, 96.390, 1345.0, 36.6742
37.334486232, 96.390, 1319.0, 36.3180
37.360746797, 96.390, 1235.0, 35.1426
37.387007362, 96.390, 1279.0, 35.7631
37.413267928, 96.390, 1314.0, 36.2491
37.439528493, 96.390, 1331.0, 36.4829
37.465789058, 96.390, 1303.0, 36.0971
37.492049624, 96.390, 1293.0, 35.9583
37.518310189, 96.390, 1318.0, 36.3043
37.544570754, 96.390, 1284.0, 35.8329
37.570831320, 96.390, 1309.0, 36.1801
37.597091885, 96.390, 1261.0, 35.5106
37.623352450, 96.390, 1297.0, 36.0139
37.649613016, 96.390, 1237.0, 35.1710
37.675873581, 96.390, 1272.0, 35.6651
37.702134147, 96.390, 1231.0, 35.0856
37.728394712, 96.390, 1199.0, 34.6266
37.754655277, 96.390, 1297.0, 36.0139
37.780915843, 96.390, 1219.0, 34.9142
37.807176408, 96.390, 1235.0, 35.1426
37.833436973, 96.390, 1267.0, 35.5949
37.859697539, 96.390, 1238.0, 35.1852
37.885958104, 96.390, 1228.0, 35.0428
37.912218669, 96.390, 1279.0, 35.7631
37.938479235, 96.390, 1270.0, 35.6371
37.964739800, 96.390, 1263.0, 35.5387
37.991000365, 96.390, 1201.0, 34.6554
38.017260931, 96.390, 1283.0, 35.8190
38.043521496, 96.390, 1215.0, 34.8569
38.069782061, 96.390, 1258.0, 35.4683
38.096042627, 96.390, 1328.0, 36.4417
38.122303192, 96.390, 1241.0, 35.2278
38.148563758, 96.390, 1229.0, 35.0571
38.174824323, 96.390, 1203.0, 34.6843
38.201084888, 96.390, 1263.0, 35.5387
38.227345454, 96.390, 1184.0, 34.4093
38.253606019, 96.390, 1239.0, 35.1994
38.279866584, 96.390, 1232.0, 35.0999
38.306127150, 96.390, 1203.0, 34.6843
38.332387715, 96.390, 1216.0, 34.8712
38.358648280, 96.390, 1235.0, 35.1426
38.384908846, 96.390, 1233.0, 35.1141
38.411169411, 96.390, 1181.0, 34.3657
38.437429976, 96.390, 1255.0, 35.4260
38.463690542, 96.390, 1185.0, 34.4238
38.489951107, 96.390, 1266.0, 35.5809
38.516211673, 96.390, 1284.0, 35.8329
38.542472238, 96.390, 1153.0, 33.9559
38.568732803, 96.390, 1242.0, 35.2420
38.594993369, 96.390, 1202.0, 34.6699
38.621253934, 96.390, 1227.0, 35.0286
38.647514499, 96.390, 1277.0, 35.7351
38.673775065, 96.390, 1214.0, 34.8425
38.700035630, 96.390, 1242.0, 35.2420
38.726296195, 96.390, 1239.0, 35.1994
38.752556761, 96.390, 1186.0, 34.4384
38.778817326, 96.390, 1179.0, 34.3366
38.805077891, 96.390, 1244.0, 35.2704
38.831338457, 96.390, 1240.0, 35.2136
38.857599022, 96.390, 1194.0, 34.5543
38.883859587, 96.390, 1165.0, 34.1321
38.910120153, 96.390, 1208.0, 34.7563
38.936380718, 96.390, 1240.0, 35.2136
38.962641284, 96.390, 1186.0, 34.4384
38.988901849, 96.390, 1223.0, 34.9714
39.015162414, 96.390, 1186.0, 34.4384
39.041422980, 96.390, 1169.0, 34.1906
39.067683545, 96.390, 1169.0, 34.1906
39.093944110, 96.390, 1228.0, 35.0428
39.120204676, 96.390, 1142.0, 33.7935
39.146465241, 96.390, 1192.0, 34.5254
39.172725806, 96.390, 1197.0, 34.5977
39.198986372, 96.390, 1186.0, 34.4384
39.225246937, 96.390, 1212.0, 34.8138
39.251507502, 96.390, 1162.0, 34.0881
39.277768068, 96.390, 1222.0, 34.9571
39.304028633, 96.390, 1140.0, 33.7639
39.330289199, 96.390, 1200.0, 34.6410
39.356549764, 96.390, 1204.0, 34.6987
39.382810329, 96.390, 1263.0, 35.5387
39.409070895, 96.390, 1206.0, 34.7275
39.435331460, 96.390, 1131.0, 33.6303
39.461592025, 96.390, 1235.0, 35.1426
39.487852591, 96.390, 1124.0, 33.5261
39.514113156, 96.390, 1150.0, 33.9116
39.540373721, 96.390, 1138.0, 33.7343
39.566634287, 96.390, 1219.0, 34.9142
39.592894852, 96.390, 1113.0, 33.3617
39.619155417, 96.390, 1136.0, 33.7046
39.645415983, 96.390, 1173.0, 34.2491
39.671676548, 96.390, 1188.0, 34.4674
39.697937113, 96.390, 1127.0, 33.5708
39.724197679, 96.390, 1217.0, 34.8855
39.750458244, 96.390, 1168.0, 34.1760
39.776718810, 96.390, 1185.0, 34.4238
39.802979375, 96.390, 1077.0, 32.8177
39.829239940, 96.390, 1182.0, 34.3802
39.855500506, 96.390, 1217.0, 34.8855
39.881761071, 96.390, 1193.0, 34.5398
39.908021636, 96.390, 1158.0, 34.0294
39.934282202, 96.390, 1242.0, 35.2420
39.960542767, 96.390, 1190.0, 34.4964
39.986803332, 96.390, 1183.0, 34.3948
40.013063898, 96.390, 1192.0, 34.5254
40.039324463, 96.390, 1160.0, 34.0588
40.065585028, 96.390, 1137.0, 33.7194
40.091845594, 96.390, 1179.0, 34.3366
40.118106159, 96.390, 1112.0, 33.3467
40.144366725, 96.390, 1191.0, 34.5109
40.170627290, 96.390, 1155.0, 33.9853
40.196887855, 96.390, 1194.0, 34.5543
40.223148421, 96.390, 1195.0, 34.5688
40.249408986, 96.390, 1195.0, 34.5688
40.275669551, 96.390, 1190.0, 34.4964
40.301930117, 96.390, 1122.0, 33.4963
40.328190682, 96.390, 1199.0, 34.6266
40.354451247, 96.390, 1201.0, 34.6554
40.380711813, 96.390, 1185.0, 34.4238
40.406972378, 96.390, 1155.0, 33.9853
40.433232943, 96.390, 1126.0, 33.5559
40.459493509, 96.390, 1210.0, 34.7851
40.485754074, 96.390, 1145.0, 33.8378
40.512014639, 96.390, 1153.0, 33.9559
40.538275205, 96.390, 1176.0, 34.2929
40.564535770, 96.390, 1185.0, 34.4238
40.590796336, 96.390, 1147.0, 33.8674
40.617056901, 96.390, 1127.0, 33.5708
40.643317466, 96.390, 1212.0, 34.8138
40.669578032, 96.390, 1129.0, 33.6006
40.695838597, 96.390, 1112.0, 33.3467
40.722099162, 96.390, 1134.0, 33.6749
40.748359728, 96.390, 1152.0, 33.9411
40.774620293, 96.390, 1141.0, 33.7787
40.800880858, 96.390, 1166.0, 34.1467
40.827141424, 96.390, 1167.0, 34.1614
40.853401989, 96.390, 1163.0, 34.1028
40.879662554, 96.390, 1145.0, 33.8378
40.905923120, 96.390, 1163.0, 34.1028
40.932183685, 96.390, 1160.0, 34.0588
40.958444251, 96.390, 1182.0, 34.3802
40.984704816, 96.390, 1162.0, 34.0881
41.010965381, 96.390, 1133.0, 33.6601
41.037225947, 96.390, 1204.0, 34.6987
41.063486512, 96.390, 1088.0, 32.9848
41.089747077, 96.390, 1157.0, 34.0147
41.116007643, 96.390, 1059.0, 32.5423
41.142268208, 96.390, 1094.0, 33.0757
41.168528773, 96.390, 1109.0, 33.3017
41.194789339, 96.390, 1141.0, 33.7787
41.221049904, 96.390, 1114.0, 33.3766
41.247310469, 96.390, 1115.0, 33.3916
41.273571035, 96.390, 1149.0, 33.8969
41.299831600, 96.390, 1123.0, 33.5112
41.326092165, 96.390, 1080.0, 32.8634
41.352352731, 96.390, 1133.0, 33.6601
41.378613296, 96.390, 1205.0, 34.7131
41.404873862, 96.390, 1052.0, 32.4345
41.431134427, 96.390, 1148.0, 33.8821
41.457394992, 96.390, 1117.0, 33.4215
41.483655558, 96.390, 1108.0, 33.2866
41.509916123, 96.390, 1112.0, 33.3467
41.536176688, 96.390, 1111.0, 33.3317
41.562437254, 96.390, 1168.0, 34.1760
41.588697819, 96.390, 1082.0, 32.8938
41.614958384, 96.390, 1142.0, 33.7935
41.641218950, 96.390, 1149.0, 33.8969
41.667479515, 96.390, 1129.0, 33.6006
41.693740080, 96.390, 1108.0, 33.2866
41.720000646, 96.390, 1143.0, 33.8083
41.746261211, 96.390, 1180.0, 34.3511
41.772521776, 96.390, 1101.0, 33.1813
41.798782342, 96.390, 1128.0, 33.5857
41.825042907, 96.390, 1125.0, 33.5410
41.851303473, 96.390, 1127.0, 33.5708
41.877564038, 96.390, 1103.0, 33.2114
41.903824603, 96.390, 1142.0, 33.7935
41.930085169, 96.390, 1111.0, 33.3317
41.956345734, 96.390, 1133.0, 33.6601
41.982606299, 96.390, 1193.0, 34.5398
42.008866865, 96.390, 1138.0, 33.7343
42.035127430, 96.390, 1084.0, 32.9242
42.061387995, 96.390, 1185.0, 34.4238
42.087648561, 96.390, 1149.0, 33.8969
42.113909126, 96.390, 1132.0, 33.6452
42.140169691, 96.390, 1162.0, 34.0881
42.166430257, 96.390, 1134.0, 33.6749
42.192690822, 96.390, 1053.0, 32.4500
42.218951388, 96.390, 1057.0, 32.5115
42.245211953, 96.390, 1133.0, 33.6601
42.271472518, 96.390, 1153.0, 33.9559
42.297733084, 96.390, 1099.0, 33.1512
42.323993649, 96.390, 1137.0, 33.7194
42.350254214, 96.390, 1136.0, 33.7046
42.376514780, 96.390, 1144.0, 33.8231
42.402775345, 96.390, 1126.0, 33.5559
42.429035910, 96.390, 1083.0, 32.9090
42.455296476, 96.390, 1147.0, 33.8674
42.481557041, 96.390, 1182.0, 34.3802
42.507817606, 96.390, 1195.0, 34.5688
42.534078172, 96.390, 1174.0, 34.2637
42.560338737, 96.390, 1135.0, 33.6898
42.586599302, 96.390, 1184.0, 34.4093
42.612859868, 96.390, 1164.0, 34.1174
42.639120433, 96.390, 1128.0, 33.5857
42.665380999, 96.390, 1134.0, 33.6749
42.691641564, 96.390, 1188.0, 34.4674
42.717902129, 96.390, 1195.0, 34.5688
42.744162695, 96.390, 1148.0, 33.8821
42.770423260, 96.390, 1194.0, 34.5543
42.796683825, 96.390, 1141.0, 33.7787
42.822944391, 96.390, 1185.0, 34.4238
42.849204956, 96.390, 1202.0, 34.6699
42.875465521, 96.390, 1127.0, 33.5708
42.901726087, 96.390, 1216.0, 34.8712
42.927986652, 96.390, 1258.0, 35.4683
42.954247217, 96.390, 1174.0, 34.2637
42.980507783, 96.390, 1176.0, 34.2929
43.006768348, 96.390, 1170.0, 34.2053
43.033028914, 96.390, 1100.0, 33.1662
43.059289479, 96.390, 1197.0, 34.5977
43.085550044, 96.390, 1177.0, 34.3074
43.111810610, 96.390, 1188.0, 34.4674
43.138071175, 96.390, 1132.0, 33.6452
43.164331740, 96.390, 1163.0, 34.1028
43.190592306, 96.390, 1128.0, 33.5857
43.216852871, 96.390, 1081.0, 32.8786
43.243113436, 96.390, 1129.0, 33.6006
43.269374002, 96.390, 1190.0, 34.4964
43.295634567, 96.390, 1111.0, 33.3317
43.321895132, 96.390, 1128.0, 33.5857
43.348155698, 96.390, 1098.0, 33.1361
43.374416263, 96.390, 1101.0, 33.1813
43.400676828, 96.390, 1122.0, 33.4963
43.426937394, 96.390, 1106.0, 33.2566
43.453197959, 96.390, 1139.0, 33.7491
43.479458525, 96.390, 1065.0, 32.6343
43.505719090, 96.390, 1046.0, 32.3419
43.531979655, 96.390, 1069.0, 32.6956
43.558240221, 96.390, 1072.0, 32.7414
43.584500786, 96.390, 1095.0, 33.0908
43.610761351, 96.390, 1045.0, 32.3265
43.637021917, 96.390, 1077.0, 32.8177
43.663282482, 96.390, 1084.0, 32.9242
43.689543047, 96.390, 1139.0, 33.7491
43.715803613, 96.390, 1023.0, 31.9844
43.742064178, 96.390, 1074.0, 32.7719
43.768324743, 96.390, 1101.0, 33.1813
43.794585309, 96.390, 1096.0, 33.1059
43.820845874, 96.390, 1077.0, 32.8177
43.847106440, 96.390, 1094.0, 33.0757
43.873367005, 96.390, 1033.0, 32.1403
43.899627570, 96.390, 1038.0, 32.2180
43.925888136, 96.390, 1046.0, 32.3419
43.952148701, 96.390, 1119.0, 33.4515
43.978409266, 96.390, 1120.0, 33.4664
44.004669832, 96.390, 1113.0, 33.3617
44.030930397, 96.390, 1064.0, 32.6190
44.057190962, 96.390, 1109.0, 33.3017
44.083451528, 96.390, 1132.0, 33.6452
44.109712093, 96.390, 1018.0, 31.9061
44.135972658, 96.390, 1080.0, 32.8634
44.162233224, 96.390, 1000.0, 31.6228
44.188493789, 96.390, 1136.0, 33.7046
44.214754354, 96.390, 1100.0, 33.1662
44.241014920, 96.390, 1025.0, 32.0156
44.267275485, 96.390, 1051.0, 32.4191
44.293536051, 96.390, 1031.0, 32.1092
44.319796616, 96.390, 1025.0, 32.0156
44.346057181, 96.390, 1059.0, 32.5423
44.372317747, 96.390, 1075.0, 32.7872
44.398578312, 96.390, 1021.0, 31.9531
44.424838877, 96.390, 1080.0, 32.8634
44.451099443, 96.390, 1058.0, 32.5269
44.477360008, 96.390, 994.0, 31.5278
44.503620573, 96.390, 1048.0, 32.3728
44.529881139, 96.390, 1061.0, 32.5730
44.556141704, 96.390, 1026.0, 32.0312
44.582402269, 96.390, 1044.0, 32.3110
44.608662835, 96.390, 992.0, 31.4960
44.634923400, 96.390, 1045.0, 32.3265
44.661183966, 96.390, 1075.0, 32.7872
44.687444531, 96.390, 1011.0, 31.7962
44.713705096, 96.390, 1029.0, 32.0780
44.739965662, 96.390, 1046.0, 32.3419
44.766226227, 96.390, 1028.0, 32.0624
44.792486792, 96.390, 1114.0, 33.3766
44.818747358, 96.390, 1075.0, 32.7872
44.845007923, 96.390, 1020.0, 31.9374
44.871268488, 96.390, 1092.0, 33.0454
44.897529054, 96.390, 1067.0, 32.6650
44.923789619, 96.390, 1012.0, 31.8119
44.950050184, 96.390, 1100.0, 33.1662
44.976310750, 96.390, 1067.0, 32.6650
45.002571315, 96.390, 1043.0, 32.2955
45.028831880, 96.390, 1084.0, 32.9242
45.055092446, 96.390, 954.0, 30.8869
45.081353011, 96.390, 1030.0, 32.0936
45.107613577, 96.390, 1079.0, 32.8481
45.133874142, 96.390, 1031.0, 32.1092
45.160134707, 96.390, 1112.0, 33.3467
45.186395273, 96.390, 1071.0, 32.7261
45.212655838, 96.390, 996.0, 31.5595
45.238916403, 96.390, 1043.0, 32.2955
45.265176969, 96.390, 1006.0, 31.7175
45.291437534, 96.390, 1007.0, 31.7333
45.317698099, 96.390, 1011.0, 31.7962
45.343958665, 96.390, 973.0, 31.1929
45.370219230, 96.390, 1106.0, 33.2566
45.396479795, 96.390, 1028.0, 32.0624
45.422740361, 96.390, 1037.0, 32.2025
45.449000926, 96.390, 1077.0, 32.8177
45.475261492, 96.390, 1005.0, 31.7017
45.501522057, 96.390, 966.0, 31.0805
45.527782622, 96.390, 973.0, 31.1929
45.554043188, 96.390, 1042.0, 32.2800
45.580303753, 96.390, 1047.0, 32.3574
45.606564318, 96.390, 1013.0, 31.8277
45.632824884, 96.390, 976.0, 31.2410
45.659085449, 96.390, 1005.0, 31.7017
45.685346014, 96.390, 1017.0, 31.8904
45.711606580, 96.390, 1038.0, 32.2180
45.737867145, 96.390, 949.0, 30.8058
45.764127710, 96.390, 1049.0, 32.3883
45.790388276, 96.390, 1041.0, 32.2645
45.816648841, 96.390, 980.0, 31.3050
45.842909406, 96.390, 937.0, 30.6105
45.869169972, 96.390, 1003.0, 31.6702
45.895430537, 96.390, 1002.0, 31.6544
45.921691103, 96.390, 1041.0, 32.2645
45.947951668, 96.390, 1047.0, 32.3574
45.974212233, 96.390, 990.0, 31.4643
46.000472799, 96.390, 984.0, 31.3688
46.026733364, 96.390, 986.0, 31.4006
46.052993929, 96.390, 999.0, 31.6070
46.079254495, 96.390, 1025.0, 32.0156
46.105515060, 96.390, 951.0, 30.8383
46.131775625, 96.390, 957.0, 30.9354
46.158036191, 96.390, 1052.0, 32.4345
46.184296756, 96.390, 987.0, 31.4166
46.210557321, 96.390, 1027.0, 32.0468
46.236817887, 96.390, 1004.0, 31.6860
46.263078452, 96.390, 1078.0, 32.8329
46.289339017, 96.390, 1001.0, 31.6386
46.315599583, 96.390, 979.0, 31.2890
46.341860148, 96.390, 979.0, 31.2890
46.368120714, 96.390, 1000.0, 31.6228
46.394381279, 96.390, 983.0, 31.3528
46.420641844, 96.390, 981.0, 31.3209
46.446902410, 96.390, 960.0, 30.9839
46.473162975, 96.390, 1047.0, 32.3574
46.499423540, 96.390, 979.0, 31.2890
46.525684106, 96.390, 988.0, 31.4325
46.551944671, 96.390, 967.0, 31.0966
46.578205236, 96.390, 1057.0, 32.5115
46.604465802, 96.390, 989.0, 31.4484
46.630726367, 96.390, 971.0, 31.1609
46.656986932, 96.390, 990.0, 31.4643
46.683247498, 96.390, 1007.0, 31.7333
46.709508063, 96.390, 973.0, 31.1929
46.735768629, 96.390, 990.0, 31.4643
46.762029194, 96.390, 999.0, 31.6070
46.788289759, 96.390, 1025.0, 32.0156
46.814550325, 96.390, 1031.0, 32.1092
46.840810890, 96.390, 1010.0, 31.7805
46.867071455, 96.390, 946.0, 30.7571
46.893332021, 96.390, 963.0, 31.0322
46.919592586, 96.390, 995.0, 31.5436
46.945853151, 96.390, 961.0, 31.0000
46.972113717, 96.390, 1001.0, 31.6386
46.998374282, 96.390, 1029.0, 32.0780
47.024634847, 96.390, 978.0, 31.2730
47.050895413, 96.390, 960.0, 30.9839
47.077155978, 96.390, 1018.0, 31.9061
47.103416543, 96.390, 990.0, 31.4643
47.129677109, 96.390, 981.0, 31.3209
47.155937674, 96.390, 978.0, 31.2730
47.182198240, 96.390, 962.0, 31.0161
47.208458805, 96.390, 951.0, 30.8383
47.234719370, 96.390, 966.0, 31.0805
47.260979936, 96.390, 999.0, 31.6070
47.287240501, 96.390, 1035.0, 32.1714
47.313501066, 96.390, 954.0, 30.8869
47.339761632, 96.390, 1051.0, 32.4191
47.366022197, 96.390, 1049.0, 32.3883
47.392282762, 96.390, 939.0, 30.6431
47.418543328, 96.390, 980.0, 31.3050
47.444803893, 96.390, 981.0, 31.3209
47.471064458, 96.390, 995.0, 31.5436
47.497325024, 96.390, 959.0, 30.9677
47.523585589, 96.390, 1007.0, 31.7333
47.549846155, 96.390, 1002.0, 31.6544
47.576106720, 96.390, 932.0, 30.5287
47.602367285, 96.390, 1043.0, 32.2955
47.628627851, 96.390, 996.0, 31.5595
47.654888416, 96.390, 1022.0, 31.9687
47.681148981, 96.390, 969.0, 31.1288
47.707409547, 96.390, 941.0, 30.6757
47.733670112, 96.390, 923.0, 30.3809
47.759930677, 96.390, 1032.0, 32.1248
47.786191243, 96.390, 983.0, 31.3528
47.812451808, 96.390, 999.0, 31.6070
47.838712373, 96.390, 971.0, 31.1609
47.864972939, 96.390, 996.0, 31.5595
47.891233504, 96.390, 970.0, 31.1448
47.917494069, 96.390, 977.0, 31.2570
47.943754635, 96.390, 991.0, 31.4802
47.970015200, 96.390, 993.0, 31.5119
47.996275766, 96.390, 924.0, 30.3974
48.022536331, 96.390, 907.0, 30.1164
48.048796896, 96.390, 971.0, 31.1609
48.075057462, 96.390, 905.0, 30.0832
48.101318027, 96.390, 950.0, 30.8221
48.127578592, 96.390, 949.0, 30.8058
48.153839158, 96.390, 1018.0, 31.9061
48.180099723, 96.390, 1035.0, 32.1714
48.206360288, 96.390, 999.0, 31.6070
48.232620854, 96.390, 982.0, 31.3369
48.258881419, 96.390, 977.0, 31.2570
48.285141984, 96.390, 986.0, 31.4006
48.311402550, 96.390, 954.0, 30.8869
48.337663115, 96.390, 975.0, 31.2250
48.363923681, 96.390, 948.0, 30.7896
48.390184246, 96.390, 945.0, 30.7409
48.416444811, 96.390, 973.0, 31.1929
48.442705377, 96.390, 959.0, 30.9677
48.468965942, 96.390, 932.0, 30.5287
48.495226507, 96.390, 950.0, 30.8221
48.521487073, 96.390, 949.0, 30.8058
48.547747638, 96.390, 918.0, 30.2985
48.574008203, 96.390, 954.0, 30.8869
48.600268769, 96.390, 951.0, 30.8383
48.626529334, 96.390, 966.0, 31.0805
48.652789899, 96.390, 924.0, 30.3974
48.679050465, 96.390, 975.0, 31.2250
48.705311030, 96.390, 1050.0, 32.4037
48.731571595, 96.390, 925.0, 30.4138
48.757832161, 96.390, 953.0, 30.8707
48.784092726, 96.390, 964.0, 31.0483
48.810353292, 96.390, 916.0, 30.2655
48.836613857, 96.390, 931.0, 30.5123
48.862874422, 96.390, 947.0, 30.7734
48.889134988, 96.390, 967.0, 31.0966
48.915395553, 96.390, 944.0, 30.7246
48.941656118, 96.390, 1031.0, 32.1092
48.967916684, 96.390, 950.0, 30.8221
48.994177249, 96.390, 980.0, 31.3050
49.020437814, 96.390, 928.0, 30.4631
49.046698380, 96.390, 999.0, 31.6070
49.072958945, 96.390, 988.0, 31.4325
49.099219510, 96.390, 987.0, 31.4166
49.125480076, 96.390, 935.0, 30.5778
49.151740641, 96.390, 961.0, 31.0000
49.178001207, 96.390, 921.0, 30.3480
49.204261772, 96.390, 929.0, 30.4795
49.230522337, 96.390, 931.0, 30.5123
49.256782903, 96.390, 969.0, 31.1288
49.283043468, 96.390, 986.0, 31.4006
49.309304033, 96.390, 951.0, 30.8383
49.335564599, 96.390, 929.0, 30.4795
49.361825164, 96.390, 992.0, 31.4960
49.388085729, 96.390, 934.0, 30.5614
49.414346295, 96.390, 940.0, 30.6594
49.440606860, 96.390, 944.0, 30.7246
49.466867425, 96.390, 948.0, 30.7896
49.493127991, 96.390, 944.0, 30.7246
49.519388556, 96.390, 938.0, 30.6268
49.545649121, 96.390, 958.0, 30.9516
49.571909687, 96.390, 894.0, 29.8998
49.598170252, 96.390, 940.0, 30.6594
49.624430818, 96.390, 921.0, 30.3480
49.650691383, 96.390, 950.0, 30.8221
49.676951948, 96.390, 936.0, 30.5941
49.703212514, 96.390, 926.0, 30.4302
49.729473079, 96.390, 957.0, 30.9354
49.755733644, 96.390, 957.0, 30.9354
49.781994210, 96.390, 934.0, 30.5614
49.808254775, 96.390, 892.0, 29.8664
49.834515340, 96.390, 924.0, 30.3974
49.860775906, 96.390, 935.0, 30.5778
49.887036471, 96.390, 957.0, 30.9354
49.913297036, 96.390, 978.0, 31.2730
49.939557602, 96.390, 942.0, 30.6920
49.965818167, 96.390, 963.0, 31.0322
49.992078732, 96.390, 894.0, 29.8998
50.018339298, 96.390, 959.0, 30.9677
50.044599863, 96.390, 963.0, 31.0322
50.070860429, 96.390, 909.0, 30.1496
50.097120994, 96.390, 903.0, 30.0500
50.123381559, 96.390, 1030.0, 32.0936
50.149642125, 96.390, 931.0, 30.5123
50.175902690, 96.390, 932.0, 30.5287
50.202163255, 96.390, 960.0, 30.9839
50.228423821, 96.390, 995.0, 31.5436
50.254684386, 96.390, 948.0, 30.7896
50.280944951, 96.390, 946.0, 30.7571
50.307205517, 96.390, 952.0, 30.8545
50.333466082, 96.390, 1025.0, 32.0156
50.359726647, 96.390, 1015.0, 31.8591
50.385987213, 96.390, 922.0, 30.3645
50.412247778, 96.390, 954.0, 30.8869
50.438508344, 96.390, 932.0, 30.5287
50.464768909, 96.390, 941.0, 30.6757
50.491029474, 96.390, 890.0, 29.8329
50.517290040, 96.390, 960.0, 30.9839
50.543550605, 96.390, 952.0, 30.8545
50.569811170, 96.390, 910.0, 30.1662
50.596071736, 96.390, 928.0, 30.4631
50.622332301, 96.390, 905.0, 30.0832
50.648592866, 96.390, 900.0, 30.0000
50.674853432, 96.390, 916.0, 30.2655
50.701113997, 96.390, 927.0, 30.4467
50.727374562, 96.390, 958.0, 30.9516
50.753635128, 96.390, 1005.0, 31.7017
50.779895693, 96.390, 940.0, 30.6594
50.806156258, 96.390, 920.0, 30.3315
50.832416824, 96.390, 903.0, 30.0500
50.858677389, 96.390, 928.0, 30.4631
50.884937955, 96.390, 953.0, 30.8707
50.911198520, 96.390, 933.0, 30.5450
50.937459085, 96.390, 989.0, 31.4484
50.963719651, 96.390, 914.0, 30.2324
50.989980216, 96.390, 894.0, 29.8998
51.016240781, 96.390, 964.0, 31.0483
51.042501347, 96.390, 910.0, 30.1662
51.068761912, 96.390, 950.0, 30.8221
51.095022477, 96.390, 928.0, 30.4631
51.121283043, 96.390, 962.0, 31.0161
51.147543608, 96.390, 970.0, 31.1448
51.173804173, 96.390, 899.0, 29.9833
51.200064739, 96.390, 958.0, 30.9516
51.226325304, 96.390, 912.0, 30.1993
51.252585870, 96.390, 992.0, 31.4960
51.278846435, 96.390, 897.0, 29.9500
51.305107000, 96.390, 959.0, 30.9677
51.331367566, 96.390, 886.0, 29.7658
51.357628131, 96.390, 937.0, 30.6105
51.383888696, 96.390, 953.0, 30.8707
51.410149262, 96.390, 946.0, 30.7571
51.436409827, 96.390, 998.0, 31.5911
51.462670392, 96.390, 880.0, 29.6648
51.488930958, 96.390, 921.0, 30.3480
51.515191523, 96.390, 945.0, 30.7409
51.541452088, 96.390, 945.0, 30.7409
51.567712654, 96.390, 888.0, 29.7993
51.593973219, 96.390, 937.0, 30.6105
51.620233784, 96.390, 892.0, 29.8664
51.646494350, 96.390, 938.0, 30.6268
51.672754915, 96.390, 919.0, 30.3150
51.699015481, 96.390, 903.0, 30.0500
51.725276046, 96.390, 899.0, 29.9833
51.751536611, 96.390, 906.0, 30.0998
51.777797177, 96.390, 899.0, 29.9833
51.804057742, 96.390, 882.0, 29.6985
51.830318307, 96.390, 928.0, 30.4631
51.856578873, 96.390, 940.0, 30.6594
51.882839438, 96.390, 955.0, 30.9031
51.909100003, 96.390, 990.0, 31.4643
51.935360569, 96.390, 927.0, 30.4467
51.961621134, 96.390, 938.0, 30.6268
51.987881699, 96.390, 875.0, 29.5804
52.014142265, 96.390, 876.0, 29.5973
52.040402830, 96.390, 882.0, 29.6985
52.066663396, 96.390, 883.0, 29.7153
52.092923961, 96.390, 944.0, 30.7246
52.119184526, 96.390, 893.0, 29.8831
52.145445092, 96.390, 892.0, 29.8664
52.171705657, 96.390, 884.0, 29.7321
52.197966222, 96.390, 919.0, 30.3150
52.224226788, 96.390, 958.0, 30.9516
52.250487353, 96.390, 919.0, 30.3150
52.276747918, 96.390, 981.0, 31.3209
52.303008484, 96.390, 974.0, 31.2090
52.329269049, 96.390, 883.0, 29.7153
52.355529614, 96.390, 927.0, 30.4467
52.381790180, 96.390, 978.0, 31.2730
52.408050745, 96.390, 924.0, 30.3974
52.434311310, 96.390, 948.0, 30.7896
52.460571876, 96.390, 913.0, 30.2159
52.486832441, 96.390, 958.0, 30.9516
52.513093007, 96.390, 901.0, 30.0167
52.539353572, 96.390, 904.0, 30.0666
52.565614137, 96.390, 919.0, 30.3150
52.591874703, 96.390, 909.0, 30.1496
52.618135268, 96.390, 930.0, 30.4959
52.644395833, 96.390, 901.0, 30.0167
52.670656399, 96.390, 923.0, 30.3809
52.696916964, 96.390, 886.0, 29.7658
52.723177529, 96.390, 881.0, 29.6816
52.749438095, 96.390, 955.0, 30.9031
52.775698660, 96.390, 874.0, 29.5635
52.801959225, 96.390, 930.0, 30.4959
52.828219791, 96.390, 923.0, 30.3809
52.854480356, 96.390, 946.0, 30.7571
52.880740922, 96.390, 910.0, 30.1662
52.907001487, 96.390, 944.0, 30.7246
52.933262052, 96.390, 972.0, 31.1769
52.959522618, 96.390, 900.0, 30.0000
52.985783183, 96.390, 957.0, 30.9354
53.012043748, 96.390, 892.0, 29.8664
53.038304314, 96.390, 891.0, 29.8496
53.064564879, 96.390, 921.0, 30.3480
53.090825444, 96.390, 912.0, 30.1993
53.117086010, 96.390, 934.0, 30.5614
53.143346575, 96.390, 889.0, 29.8161
53.169607140, 96.390, 905.0, 30.0832
53.195867706, 96.390, 892.0, 29.8664
53.222128271, 96.390, 911.0, 30.1828
53.248388836, 96.390, 864.0, 29.3939
53.274649402, 96.390, 935.0, 30.5778
53.300909967, 96.390, 913.0, 30.2159
53.327170533, 96.390, 952.0, 30.8545
53.353431098, 96.390, 935.0, 30.5778
53.379691663, 96.390, 973.0, 31.1929
53.405952229, 96.390, 910.0, 30.1662
53.432212794, 96.390, 951.0, 30.8383
53.458473359, 96.390, 877.0, 29.6142
53.484733925, 96.390, 912.0, 30.1993
53.510994490, 96.390, 939.0, 30.6431
53.537255055, 96.390, 930.0, 30.4959
53.563515621, 96.390, 910.0, 30.1662
53.589776186, 96.390, 898.0, 29.9666
53.616036751, 96.390, 911.0, 30.1828
53.642297317, 96.390, 958.0, 30.9516
53.668557882, 96.390, 921.0, 30.3480
53.694818448, 96.390, 940.0, 30.6594
53.721079013, 96.390, 893.0, 29.8831
53.747339578, 96.390, 919.0, 30.3150
53.773600144, 96.390, 898.0, 29.9666
53.799860709, 96.390, 943.0, 30.7083
53.826121274, 96.390, 907.0, 30.1164
53.852381840, 96.390, 924.0, 30.3974
53.878642405, 96.390, 992.0, 31.4960
53.904902970, 96.390, 920.0, 30.3315
53.931163536, 96.390, 933.0, 30.5450
53.957424101, 96.390, 950.0, 30.8221
53.983684666, 96.390, 917.0, 30.2820
54.009945232, 96.390, 884.0, 29.7321
54.036205797, 96.390, 890.0, 29.8329
54.062466362, 96.390, 946.0, 30.7571
54.088726928, 96.390, 912.0, 30.1993
54.114987493, 96.390, 952.0, 30.8545
54.141248059, 96.390, 965.0, 31.0644
54.167508624, 96.390, 1001.0, 31.6386
54.193769189, 96.390, 934.0, 30.5614
54.220029755, 96.390, 919.0, 30.3150
54.246290320, 96.390, 939.0, 30.6431
54.272550885, 96.390, 894.0, 29.8998
54.298811451, 96.390, 948.0, 30.7896
54.325072016, 96.390, 878.0, 29.6311
54.351332581, 96.390, 882.0, 29.6985
54.377593147, 96.390, 963.0, 31.0322
54.403853712, 96.390, 908.0, 30.1330
54.430114277, 96.390, 918.0, 30.2985
54.456374843, 96.390, 932.0, 30.5287
54.482635408, 96.390, 944.0, 30.7246
54.508895973, 96.390, 926.0, 30.4302
54.535156539, 96.390, 866.0, 29.4279
54.561417104, 96.390, 968.0, 31.1127
54.587677670, 96.390, 936.0, 30.5941
54.613938235, 96.390, 911.0, 30.1828
54.640198800, 96.390, 938.0, 30.6268
54.666459366, 96.390, 895.0, 29.9166
54.692719931, 96.390, 902.0, 30.0333
54.718980496, 96.390, 864.0, 29.3939
54.745241062, 96.390, 925.0, 30.4138
54.771501627, 96.390, 923.0, 30.3809
54.797762192, 96.390, 955.0, 30.9031
54.824022758, 96.390, 934.0, 30.5614
54.850283323, 96.390, 880.0, 29.6648
54.876543888, 96.390, 959.0, 30.9677
54.902804454, 96.390, 927.0, 30.4467
54.929065019, 96.390, 910.0, 30.1662
54.955325585, 96.390, 892.0, 29.8664
54.981586150, 96.390, 908.0, 30.1330
55.007846715, 96.390, 925.0, 30.4138
55.034107281, 96.390, 894.0, 29.8998
55.060367846, 96.390, 924.0, 30.3974
55.086628411, 96.390, 941.0, 30.6757
55.112888977, 96.390, 957.0, 30.9354
55.139149542, 96.390, 925.0, 30.4138
55.165410107, 96.390, 941.0, 30.6757
55.191670673, 96.390, 913.0, 30.2159
55.217931238, 96.390, 905.0, 30.0832
55.244191803, 96.390, 889.0, 29.8161
55.270452369, 96.390, 848.0, 29.1204
55.296712934, 96.390, 948.0, 30.7896
55.322973499, 96.390, 911.0, 30.1828
55.349234065, 96.390, 951.0, 30.8383
55.375494630, 96.390, 910.0, 30.1662
55.401755196, 96.390, 947.0, 30.7734
55.428015761, 96.390, 921.0, 30.3480
55.454276326, 96.390, 908.0, 30.1330
55.480536892, 96.390, 855.0, 29.2404
55.506797457, 96.390, 916.0, 30.2655
55.533058022, 96.390, 891.0, 29.8496
55.559318588, 96.390, 943.0, 30.7083
55.585579153, 96.390, 970.0, 31.1448
55.611839718, 96.390, 903.0, 30.0500
55.638100284, 96.390, 952.0, 30.8545
55.664360849, 96.390, 912.0, 30.1993
55.690621414, 96.390, 918.0, 30.2985
55.716881980, 96.390, 935.0, 30.5778
55.743142545, 96.390, 909.0, 30.1496
55.769403111, 96.390, 917.0, 30.2820
55.795663676, 96.390, 926.0, 30.4302
55.821924241, 96.390, 925.0, 30.4138
55.848184807, 96.390, 959.0, 30.9677
55.874445372, 96.390, 906.0, 30.0998
55.900705937, 96.390, 945.0, 30.7409
55.926966503, 96.390, 880.0, 29.6648
55.953227068, 96.390, 907.0, 30.1164
55.979487633, 96.390, 939.0, 30.6431
56.005748199, 96.390, 915.0, 30.2490
56.032008764, 96.390, 1006.0, 31.7175
56.058269329, 96.390, 966.0, 31.0805
56.084529895, 96.390, 942.0, 30.6920
56.110790460, 96.390, 922.0, 30.3645
56.137051025, 96.390, 936.0, 30.5941
56.163311591, 96.390, 983.0, 31.3528
56.189572156, 96.390, 906.0, 30.0998
56.215832722, 96.390, 912.0, 30.1993
56.242093287, 96.390, 962.0, 31.0161
56.268353852, 96.390, 925.0, 30.4138
56.294614418, 96.390, 876.0, 29.5973
56.320874983, 96.390, 902.0, 30.0333
56.347135548, 96.390, 950.0, 30.8221
56.373396114, 96.390, 936.0, 30.5941
56.399656679, 96.390, 916.0, 30.2655
56.425917244, 96.390, 909.0, 30.1496
56.452177810, 96.390, 927.0, 30.4467
56.478438375, 96.390, 943.0, 30.7083
56.504698940, 96.390, 897.0, 29.9500
56.530959506, 96.390, 984.0, 31.3688
56.557220071, 96.390, 948.0, 30.7896
56.583480637, 96.390, 915.0, 30.2490
56.609741202, 96.390, 965.0, 31.0644
56.636001767, 96.390, 953.0, 30.8707
56.662262333, 96.390, 921.0, 30.3480
56.688522898, 96.390, 933.0, 30.5450
56.714783463, 96.390, 943.0, 30.7083
56.741044029, 96.390, 915.0, 30.2490
56.767304594, 96.390, 909.0, 30.1496
56.793565159, 96.390, 917.0, 30.2820
56.819825725, 96.390, 862.0, 29.3598
56.846086290, 96.390, 941.0, 30.6757
56.872346855, 96.390, 918.0, 30.2985
56.898607421, 96.390, 891.0, 29.8496
56.924867986, 96.390, 937.0, 30.6105
56.951128551, 96.390, 890.0, 29.8329
56.977389117, 96.390, 980.0, 31.3050
57.003649682, 96.390, 894.0, 29.8998
57.029910248, 96.390, 927.0, 30.4467
57.056170813, 96.390, 901.0, 30.0167
57.082431378, 96.390, 938.0, 30.6268
57.108691944, 96.390, 937.0, 30.6105
57.134952509, 96.390, 899.0, 29.9833
57.161213074, 96.390, 930.0, 30.4959
57.187473640, 96.390, 952.0, 30.8545
57.213734205, 96.390, 976.0, 31.2410
57.239994770, 96.390, 939.0, 30.6431
57.266255336, 96.390, 927.0, 30.4467
57.292515901, 96.390, 884.0, 29.7321
57.318776466, 96.390, 902.0, 30.0333
57.345037032, 96.390, 936.0, 30.5941
57.371297597, 96.390, 936.0, 30.5941
57.397558163, 96.390, 903.0, 30.0500
57.423818728, 96.390, 1006.0, 31.7175
57.450079293, 96.390, 965.0, 31.0644
57.476339859, 96.390, 953.0, 30.8707
57.502600424, 96.390, 927.0, 30.4467
57.528860989, 96.390, 915.0, 30.2490
57.555121555, 96.390, 941.0, 30.6757
57.581382120, 96.390, 918.0, 30.2985
57.607642685, 96.390, 902.0, 30.0333
57.633903251, 96.390, 899.0, 29.9833
57.660163816, 96.390, 952.0, 30.8545
57.686424381, 96.390, 880.0, 29.6648
57.712684947, 96.390, 917.0, 30.2820
57.738945512, 96.390, 909.0, 30.1496
57.765206077, 96.390, 941.0, 30.6757
57.791466643, 96.390, 899.0, 29.9833
57.817727208, 96.390, 924.0, 30.3974
57.843987774, 96.390, 959.0, 30.9677
57.870248339, 96.390, 1007.0, 31.7333
57.896508904, 96.390, 913.0, 30.2159
57.922769470, 96.390, 936.0, 30.5941
57.949030035, 96.390, 915.0, 30.2490
57.975290600, 96.390, 954.0, 30.8869
58.001551166, 96.390, 972.0, 31.1769
58.027811731, 96.390, 936.0, 30.5941
58.054072296, 96.390, 960.0, 30.9839
58.080332862, 96.390, 917.0, 30.2820
58.106593427, 96.390, 848.0, 29.1204
58.132853992, 96.390, 907.0, 30.1164
58.159114558, 96.390, 907.0, 30.1164
58.185375123, 96.390, 976.0, 31.2410
58.211635689, 96.390, 913.0, 30.2159
58.237896254, 96.390, 963.0, 31.0322
58.264156819, 96.390, 976.0, 31.2410
58.290417385, 96.390, 932.0, 30.5287
58.316677950, 96.390, 942.0, 30.6920
58.342938515, 96.390, 933.0, 30.5450
58.369199081, 96.390, 969.0, 31.1288
58.395459646, 96.390, 928.0, 30.4631
58.421720211, 96.390, 976.0, 31.2410
58.447980777, 96.390, 967.0, 31.0966
58.474241342, 96.390, 948.0, 30.7896
58.500501907, 96.390, 959.0, 30.9677
58.526762473, 96.390, 941.0, 30.6757
58.553023038, 96.390, 955.0, 30.9031
58.579283603, 96.390, 914.0, 30.2324
58.605544169, 96.390, 922.0, 30.3645
58.631804734, 96.390, 872.0, 29.5296
58.658065300, 96.390, 904.0, 30.0666
58.684325865, 96.390, 1009.0, 31.7648
58.710586430, 96.390, 903.0, 30.0500
58.736846996, 96.390, 902.0, 30.0333
58.763107561, 96.390, 929.0, 30.4795
58.789368126, 96.390, 918.0, 30.2985
58.815628692, 96.390, 949.0, 30.8058
58.841889257, 96.390, 922.0, 30.3645
58.868149822, 96.390, 958.0, 30.9516
58.894410388, 96.390, 885.0, 29.7489
58.920670953, 96.390, 899.0, 29.9833
58.946931518, 96.390, 899.0, 29.9833
58.973192084, 96.390, 894.0, 29.8998
58.999452649, 96.390, 887.0, 29.7825
59.025713214, 96.390, 906.0, 30.0998
59.051973780, 96.390, 871.0, 29.5127
59.078234345, 96.390, 907.0, 30.1164
59.104494911, 96.390, 945.0, 30.7409
59.130755476, 96.390, 891.0, 29.8496
59.157016041, 96.390, 927.0, 30.4467
59.183276607, 96.390, 974.0, 31.2090
59.209537172, 96.390, 957.0, 30.9354
59.235797737, 96.390, 919.0, 30.3150
59.262058303, 96.390, 886.0, 29.7658
59.288318868, 96.390, 900.0, 30.0000
59.314579433, 96.390, 895.0, 29.9166
59.340839999, 96.390, 972.0, 31.1769
59.367100564, 96.390, 927.0, 30.4467
59.393361129, 96.390, 905.0, 30.0832
59.419621695, 96.390, 871.0, 29.5127
59.445882260, 96.390, 917.0, 30.2820
59.472142826, 96.390, 957.0, 30.9354
59.498403391, 96.390, 923.0, 30.3809
59.524663956, 96.390, 939.0, 30.6431
59.550924522, 96.390, 880.0, 29.6648
59.577185087, 96.390, 862.0, 29.3598
59.603445652, 96.390, 1003.0, 31.6702
59.629706218, 96.390, 966.0, 31.0805
59.655966783, 96.390, 947.0, 30.7734
59.682227348, 96.390, 917.0, 30.2820
59.708487914, 96.390, 905.0, 30.0832
59.734748479, 96.390, 956.0, 30.9192
59.761009044, 96.390, 1015.0, 31.8591
59.787269610, 96.390, 895.0, 29.9166
59.813530175, 96.390, 996.0, 31.5595
59.839790740, 96.390, 902.0, 30.0333
59.866051306, 96.390, 932.0, 30.5287
59.892311871, 96.390, 914.0, 30.2324
59.918572437, 96.390, 923.0, 30.3809
59.944833002, 96.390, 920.0, 30.3315
59.971093567, 96.390, 964.0, 31.0483
59.997354133, 96.390, 974.0, 31.2090
60.023614698, 96.390, 927.0, 30.4467
60.049875263, 96.390, 922.0, 30.3645
60.076135829, 96.390, 857.0, 29.2746
60.102396394, 96.390, 925.0, 30.4138
60.128656959, 96.390, 964.0, 31.0483
60.154917525, 96.390, 890.0, 29.8329
60.181178090, 96.390, 918.0, 30.2985
60.207438655, 96.390, 911.0, 30.1828
60.233699221, 96.390, 950.0, 30.8221
60.259959786, 96.390, 954.0, 30.8869
60.286220352, 96.390, 911.0, 30.1828
60.312480917, 96.390, 904.0, 30.0666
60.338741482, 96.390, 973.0, 31.1929
60.365002048, 96.390, 960.0, 30.9839
60.391262613, 96.390, 906.0, 30.0998
60.417523178, 96.390, 978.0, 31.2730
60.443783744, 96.390, 888.0, 29.7993
60.470044309, 96.390, 903.0, 30.0500
60.496304874, 96.390, 925.0, 30.4138
60.522565440, 96.390, 939.0, 30.6431
60.548826005, 96.390, 917.0, 30.2820
60.575086570, 96.390, 917.0, 30.2820
60.601347136, 96.390, 864.0, 29.3939
60.627607701, 96.390, 944.0, 30.7246
60.653868266, 96.390, 939.0, 30.6431
60.680128832, 96.390, 961.0, 31.0000
60.706389397, 96.390, 937.0, 30.6105
60.732649963, 96.390, 891.0, 29.8496
60.758910528, 96.390, 977.0, 31.2570
60.785171093, 96.390, 887.0, 29.7825
60.811431659, 96.390, 921.0, 30.3480
60.837692224, 96.390, 997.0, 31.5753
60.863952789, 96.390, 922.0, 30.3645
60.890213355, 96.390, 919.0, 30.3150
60.916473920, 96.390, 972.0, 31.1769
60.942734485, 96.390, 902.0, 30.0333
60.968995051, 96.390, 957.0, 30.9354
60.995255616, 96.390, 929.0, 30.4795
61.021516181, 96.390, 934.0, 30.5614
61.047776747, 96.390, 914.0, 30.2324
61.074037312, 96.390, 881.0, 29.6816
61.100297878, 96.390, 938.0, 30.6268
61.126558443, 96.390, 889.0, 29.8161
61.152819008, 96.390, 961.0, 31.0000
61.179079574, 96.390, 866.0, 29.4279
61.205340139, 96.390, 912.0, 30.1993
61.231600704, 96.390, 935.0, 30.5778
61.257861270, 96.390, 914.0, 30.2324
61.284121835, 96.390, 932.0, 30.5287
61.310382400, 96.390, 924.0, 30.3974
61.336642966, 96.390, 941.0, 30.6757
61.362903531, 96.390, 931.0, 30.5123
61.389164096, 96.390, 930.0, 30.4959
61.415424662, 96.390, 907.0, 30.1164
61.441685227, 96.390, 905.0, 30.0832
61.467945792, 96.390, 928.0, 30.4631
61.494206358, 96.390, 957.0, 30.9354
61.520466923, 96.390, 955.0, 30.9031
61.546727489, 96.390, 943.0, 30.7083
61.572988054, 96.390, 868.0, 29.4618
61.599248619, 96.390, 927.0, 30.4467
61.625509185, 96.390, 920.0, 30.3315
61.651769750, 96.390, 962.0, 31.0161
61.678030315, 96.390, 978.0, 31.2730
61.704290881, 96.390, 929.0, 30.4795
61.730551446, 96.390, 935.0, 30.5778
61.756812011, 96.390, 968.0, 31.1127
61.783072577, 96.390, 902.0, 30.0333
61.809333142, 96.390, 941.0, 30.6757
61.835593707, 96.390, 912.0, 30.1993
61.861854273, 96.390, 948.0, 30.7896
61.888114838, 96.390, 917.0, 30.2820
61.914375404, 96.390, 956.0, 30.9192
61.940635969, 96.390, 914.0, 30.2324
61.966896534, 96.390, 964.0, 31.0483
61.993157100, 96.390, 957.0, 30.9354
62.019417665, 96.390, 944.0, 30.7246
62.045678230, 96.390, 916.0, 30.2655
62.071938796, 96.390, 956.0, 30.9192
62.098199361, 96.390, 944.0, 30.7246
62.124459926, 96.390, 910.0, 30.1662
62.150720492, 96.390, 920.0, 30.3315
62.176981057, 96.390, 940.0, 30.6594
62.203241622, 96.390, 930.0, 30.4959
62.229502188, 96.390, 898.0, 29.9666
62.255762753, 96.390, 992.0, 31.4960
62.282023318, 96.390, 966.0, 31.0805
62.308283884, 96.390, 931.0, 30.5123
62.334544449, 96.390, 943.0, 30.7083
62.360805015, 96.390, 895.0, 29.9166
62.387065580, 96.390, 939.0, 30.6431
62.413326145, 96.390, 1005.0, 31.7017
62.439586711, 96.390, 951.0, 30.8383
62.465847276, 96.390, 935.0, 30.5778
62.492107841, 96.390, 972.0, 31.1769
62.518368407, 96.390, 942.0, 30.6920
62.544628972, 96.390, 913.0, 30.2159
62.570889537, 96.390, 930.0, 30.4959
62.597150103, 96.390, 908.0, 30.1330
62.623410668, 96.390, 956.0, 30.9192
62.649671233, 96.390, 902.0, 30.0333
62.675931799, 96.390, 987.0, 31.4166
62.702192364, 96.390, 933.0, 30.5450
62.728452930, 96.390, 905.0, 30.0832
62.754713495, 96.390, 925.0, 30.4138
62.780974060, 96.390, 914.0, 30.2324
62.807234626, 96.390, 978.0, 31.2730
62.833495191, 96.390, 858.0, 29.2916
62.859755756, 96.390, 928.0, 30.4631
62.886016322, 96.390, 877.0, 29.6142
62.912276887, 96.390, 953.0, 30.8707
62.938537452, 96.390, 945.0, 30.7409
62.964798018, 96.390, 912.0, 30.1993
62.991058583, 96.390, 896.0, 29.9333
63.017319148, 96.390, 938.0, 30.6268
63.043579714, 96.390, 918.0, 30.2985
63.069840279, 96.390, 908.0, 30.1330
63.096100844, 96.390, 949.0, 30.8058
63.122361410, 96.390, 939.0, 30.6431
63.148621975, 96.390, 925.0, 30.4138
63.174882541, 96.390, 857.0, 29.2746
63.201143106, 96.390, 934.0, 30.5614
63.227403671, 96.390, 902.0, 30.0333
63.253664237, 96.390, 904.0, 30.0666
63.279924802, 96.390, 939.0, 30.6431
63.306185367, 96.390, 923.0, 30.3809
63.332445933, 96.390, 899.0, 29.9833
63.358706498, 96.390, 929.0, 30.4795
63.384967063, 96.390, 903.0, 30.0500
63.411227629, 96.390, 956.0, 30.9192
63.437488194, 96.390, 905.0, 30.0832
63.463748759, 96.390, 874.0, 29.5635
63.490009325, 96.390, 892.0, 29.8664
63.516269890, 96.390, 874.0, 29.5635
63.542530455, 96.390, 825.0, 28.7228
63.568791021, 96.390, 848.0, 29.1204
63.595051586, 96.390, 941.0, 30.6757
63.621312152, 96.390, 933.0, 30.5450
63.647572717, 96.390, 931.0, 30.5123
63.673833282, 96.390, 961.0, 31.0000
63.700093848, 96.390, 839.0, 28.9655
63.726354413, 96.390, 859.0, 29.3087
63.752614978, 96.390, 883.0, 29.7153
63.778875544, 96.390, 905.0, 30.0832
63.805136109, 96.390, 881.0, 29.6816
63.831396674, 96.390, 894.0, 29.8998
63.857657240, 96.390, 934.0, 30.5614
63.883917805, 96.390, 928.0, 30.4631
63.910178370, 96.390, 881.0, 29.6816
63.936438936, 96.390, 915.0, 30.2490
63.962699501, 96.390, 924.0, 30.3974
63.988960067, 96.390, 890.0, 29.8329
64.015220632, 96.390, 892.0, 29.8664
64.041481197, 96.390, 859.0, 29.3087
64.067741763, 96.390, 875.0, 29.5804
64.094002328, 96.390, 900.0, 30.0000
64.120262893, 96.390, 823.0, 28.6880
64.146523459, 96.390, 865.0, 29.4109
64.172784024, 96.390, 883.0, 29.7153
64.199044589, 96.390, 910.0, 30.1662
64.225305155, 96.390, 841.0, 29.0000
64.251565720, 96.390, 903.0, 30.0500
64.277826285, 96.390, 895.0, 29.9166
64.304086851, 96.390, 871.0, 29.5127
64.330347416, 96.390, 933.0, 30.5450
64.356607981, 96.390, 894.0, 29.8998
64.382868547, 96.390, 932.0, 30.5287
64.409129112, 96.390, 903.0, 30.0500
64.435389678, 96.390, 899.0, 29.9833
64.461650243, 96.390, 863.0, 29.3769
64.487910808, 96.390, 918.0, 30.2985
64.514171374, 96.390, 891.0, 29.8496
64.540431939, 96.390, 862.0, 29.3598
64.566692504, 96.390, 840.0, 28.9828
64.592953070, 96.390, 884.0, 29.7321
64.619213635, 96.390, 917.0, 30.2820
64.645474200, 96.390, 907.0, 30.1164
64.671734766, 96.390, 869.0, 29.4788
64.697995331, 96.390, 882.0, 29.6985
64.724255896, 96.390, 880.0, 29.6648
64.750516462, 96.390, 873.0, 29.5466
64.776777027, 96.390, 881.0, 29.6816
64.803037593, 96.390, 884.0, 29.7321
64.829298158, 96.390, 930.0, 30.4959
64.855558723, 96.390, 821.0, 28.6531
64.881819289, 96.390, 902.0, 30.0333
64.908079854, 96.390, 913.0, 30.2159
64.934340419, 96.390, 875.0, 29.5804
64.960600985, 96.390, 942.0, 30.6920
64.986861550, 96.390, 894.0, 29.8998
