[Measurement conditions]
Sample identification,MNASPH_AlaxialPC01nov2021
Comment - 1,"Configuration=Stage for Flat Samples/Holders, Owner=User-1, Creation date=7/1/2020 9:53:24 AM"
Comment - 2,"Goniometer=Theta/Theta; Minimum step size 2Theta:0.0001; Minimum step size Omega:0.0001"
Comment - 3,"Sample stage=Stage for flat samples/holders"
Comment - 4,"Diffractometer system=EMPYREAN"
Comment - 5,"Measurement program=C:\Users\ibo5034\OneDrive - The Pennsylvania State University\NEUP - Reed, Titus's files\XRD\Cement\Zerobackground scan.xrdmp, Identifier={98A3B11C-88F9-4AA6-982C-73314A311EF5}"
Anode material,Cu
K-Alpha1 wavelength,1.5405980
K-Alpha2 wavelength,1.5444260
Ratio K-Alpha2/K-Alpha1,0.500
Divergence slit,Fixed,0.25
Monochromator used,NO
Generator voltage, 45
Tube current, 40
File date and time,15/Dec/2021 11:43
Unit cell,
h k l, 0 0 0
Scan axis,Gonio
Scan range,4.994599997,64.999991833
Scan step size,0.0262606
No. of points, 2285
Scan type,CONTINUOUS
Time per step,96.390
[Scan points]
Angle, TimePerStep, Intensity, ESD
5.007730280, 96.390, 4877.0, 69.8355
5.033990845, 96.390, 5046.0, 71.0352
5.060251411, 96.390, 4832.0, 69.5126
5.086511976, 96.390, 4728.0, 68.7605
5.112772541, 96.390, 4682.0, 68.4251
5.139033107, 96.390, 4711.0, 68.6367
5.165293672, 96.390, 4696.0, 68.5274
5.191554237, 96.390, 4556.0, 67.4981
5.217814803, 96.390, 4588.0, 67.7348
5.244075368, 96.390, 4430.0, 66.5582
5.270335934, 96.390, 4524.0, 67.2607
5.296596499, 96.390, 4446.0, 66.6783
5.322857064, 96.390, 4535.0, 67.3424
5.349117630, 96.390, 4453.0, 66.7308
5.375378195, 96.390, 4410.0, 66.4078
5.401638760, 96.390, 4352.0, 65.9697
5.427899326, 96.390, 4346.0, 65.9242
5.454159891, 96.390, 4184.0, 64.6838
5.480420456, 96.390, 4425.0, 66.5207
5.506681022, 96.390, 4241.0, 65.1230
5.532941587, 96.390, 4121.0, 64.1950
5.559202152, 96.390, 4232.0, 65.0538
5.585462718, 96.390, 4198.0, 64.7920
5.611723283, 96.390, 4199.0, 64.7997
5.637983849, 96.390, 4171.0, 64.5833
5.664244414, 96.390, 4024.0, 63.4350
5.690504979, 96.390, 4132.0, 64.2806
5.716765545, 96.390, 4111.0, 64.1171
5.743026110, 96.390, 4073.0, 63.8201
5.769286675, 96.390, 3918.0, 62.5939
5.795547241, 96.390, 4097.0, 64.0078
5.821807806, 96.390, 3995.0, 63.2060
5.848068371, 96.390, 4002.0, 63.2614
5.874328937, 96.390, 3926.0, 62.6578
5.900589502, 96.390, 3882.0, 62.3057
5.926850067, 96.390, 3876.0, 62.2575
5.953110633, 96.390, 3916.0, 62.5780
5.979371198, 96.390, 3916.0, 62.5780
6.005631763, 96.390, 3931.0, 62.6977
6.031892329, 96.390, 3935.0, 62.7296
6.058152894, 96.390, 3817.0, 61.7819
6.084413460, 96.390, 3730.0, 61.0737
6.110674025, 96.390, 3815.0, 61.7657
6.136934590, 96.390, 3823.0, 61.8304
6.163195156, 96.390, 3748.0, 61.2209
6.189455721, 96.390, 3668.0, 60.5640
6.215716286, 96.390, 3702.0, 60.8441
6.241976852, 96.390, 3662.0, 60.5145
6.268237417, 96.390, 3726.0, 61.0410
6.294497982, 96.390, 3703.0, 60.8523
6.320758548, 96.390, 3773.0, 61.4248
6.347019113, 96.390, 3681.0, 60.6712
6.373279678, 96.390, 3726.0, 61.0410
6.399540244, 96.390, 3697.0, 60.8030
6.425800809, 96.390, 3727.0, 61.0492
6.452061375, 96.390, 3762.0, 61.3351
6.478321940, 96.390, 3623.0, 60.1914
6.504582505, 96.390, 3804.0, 61.6766
6.530843071, 96.390, 3497.0, 59.1354
6.557103636, 96.390, 3612.0, 60.0999
6.583364201, 96.390, 3697.0, 60.8030
6.609624767, 96.390, 3410.0, 58.3952
6.635885332, 96.390, 3521.0, 59.3380
6.662145897, 96.390, 3570.0, 59.7495
6.688406463, 96.390, 3651.0, 60.4235
6.714667028, 96.390, 3646.0, 60.3821
6.740927593, 96.390, 3546.0, 59.5483
6.767188159, 96.390, 3597.0, 59.9750
6.793448724, 96.390, 3598.0, 59.9833
6.819709289, 96.390, 3549.0, 59.5735
6.845969855, 96.390, 3572.0, 59.7662
6.872230420, 96.390, 3618.0, 60.1498
6.898490986, 96.390, 3528.0, 59.3970
6.924751551, 96.390, 3498.0, 59.1439
6.951012116, 96.390, 3510.0, 59.2453
6.977272682, 96.390, 3407.0, 58.3695
7.003533247, 96.390, 3485.0, 59.0339
7.029793812, 96.390, 3548.0, 59.5651
7.056054378, 96.390, 3396.0, 58.2752
7.082314943, 96.390, 3401.0, 58.3181
7.108575508, 96.390, 3400.0, 58.3095
7.134836074, 96.390, 3390.0, 58.2237
7.161096639, 96.390, 3435.0, 58.6089
7.187357204, 96.390, 3354.0, 57.9137
7.213617770, 96.390, 3485.0, 59.0339
7.239878335, 96.390, 3417.0, 58.4551
7.266138900, 96.390, 3441.0, 58.6600
7.292399466, 96.390, 3501.0, 59.1692
7.318660031, 96.390, 3284.0, 57.3062
7.344920597, 96.390, 3318.0, 57.6021
7.371181162, 96.390, 3246.0, 56.9737
7.397441727, 96.390, 3404.0, 58.3438
7.423702293, 96.390, 3374.0, 58.0861
7.449962858, 96.390, 3412.0, 58.4123
7.476223423, 96.390, 3253.0, 57.0351
7.502483989, 96.390, 3318.0, 57.6021
7.528744554, 96.390, 3297.0, 57.4195
7.555005119, 96.390, 3295.0, 57.4021
7.581265685, 96.390, 3301.0, 57.4543
7.607526250, 96.390, 3321.0, 57.6281
7.633786815, 96.390, 3296.0, 57.4108
7.660047381, 96.390, 3247.0, 56.9825
7.686307946, 96.390, 3281.0, 57.2800
7.712568512, 96.390, 3213.0, 56.6833
7.738829077, 96.390, 3313.0, 57.5587
7.765089642, 96.390, 3216.0, 56.7098
7.791350208, 96.390, 3279.0, 57.2626
7.817610773, 96.390, 3163.0, 56.2406
7.843871338, 96.390, 3327.0, 57.6802
7.870131904, 96.390, 3228.0, 56.8155
7.896392469, 96.390, 3164.0, 56.2494
7.922653034, 96.390, 3218.0, 56.7274
7.948913600, 96.390, 3292.0, 57.3760
7.975174165, 96.390, 3297.0, 57.4195
8.001434730, 96.390, 3244.0, 56.9561
8.027695296, 96.390, 3122.0, 55.8749
8.053955861, 96.390, 3127.0, 55.9196
8.080216426, 96.390, 3166.0, 56.2672
8.106476992, 96.390, 3164.0, 56.2494
8.132737557, 96.390, 3137.0, 56.0089
8.158998123, 96.390, 3151.0, 56.1338
8.185258688, 96.390, 3186.0, 56.4447
8.211519253, 96.390, 3146.0, 56.0892
8.237779819, 96.390, 3126.0, 55.9106
8.264040384, 96.390, 3177.0, 56.3649
8.290300949, 96.390, 3097.0, 55.6507
8.316561515, 96.390, 3068.0, 55.3895
8.342822080, 96.390, 3129.0, 55.9375
8.369082645, 96.390, 3166.0, 56.2672
8.395343211, 96.390, 3172.0, 56.3205
8.421603776, 96.390, 3117.0, 55.8301
8.447864341, 96.390, 2990.0, 54.6809
8.474124907, 96.390, 2994.0, 54.7175
8.500385472, 96.390, 3090.0, 55.5878
8.526646038, 96.390, 3002.0, 54.7905
8.552906603, 96.390, 3116.0, 55.8211
8.579167168, 96.390, 3053.0, 55.2540
8.605427734, 96.390, 3173.0, 56.3294
8.631688299, 96.390, 3068.0, 55.3895
8.657948864, 96.390, 3065.0, 55.3624
8.684209430, 96.390, 3033.0, 55.0727
8.710469995, 96.390, 3047.0, 55.1996
8.736730560, 96.390, 3024.0, 54.9909
8.762991126, 96.390, 2935.0, 54.1756
8.789251691, 96.390, 2970.0, 54.4977
8.815512256, 96.390, 3139.0, 56.0268
8.841772822, 96.390, 3068.0, 55.3895
8.868033387, 96.390, 2968.0, 54.4794
8.894293952, 96.390, 2992.0, 54.6992
8.920554518, 96.390, 2943.0, 54.2494
8.946815083, 96.390, 3032.0, 55.0636
8.973075649, 96.390, 2928.0, 54.1110
8.999336214, 96.390, 2928.0, 54.1110
9.025596779, 96.390, 3061.0, 55.3263
9.051857345, 96.390, 2916.0, 54.0000
9.078117910, 96.390, 2924.0, 54.0740
9.104378475, 96.390, 3044.0, 55.1725
9.130639041, 96.390, 2964.0, 54.4426
9.156899606, 96.390, 2961.0, 54.4151
9.183160171, 96.390, 2993.0, 54.7083
9.209420737, 96.390, 2943.0, 54.2494
9.235681302, 96.390, 2887.0, 53.7308
9.261941867, 96.390, 2929.0, 54.1202
9.288202433, 96.390, 2853.0, 53.4135
9.314462998, 96.390, 2844.0, 53.3292
9.340723564, 96.390, 3018.0, 54.9363
9.366984129, 96.390, 2895.0, 53.8052
9.393244694, 96.390, 2899.0, 53.8424
9.419505260, 96.390, 2990.0, 54.6809
9.445765825, 96.390, 2888.0, 53.7401
9.472026390, 96.390, 2938.0, 54.2033
9.498286956, 96.390, 2837.0, 53.2635
9.524547521, 96.390, 2899.0, 53.8424
9.550808086, 96.390, 2844.0, 53.3292
9.577068652, 96.390, 2785.0, 52.7731
9.603329217, 96.390, 2842.0, 53.3104
9.629589782, 96.390, 2914.0, 53.9815
9.655850348, 96.390, 2776.0, 52.6878
9.682110913, 96.390, 2837.0, 53.2635
9.708371478, 96.390, 2857.0, 53.4509
9.734632044, 96.390, 2774.0, 52.6688
9.760892609, 96.390, 2825.0, 53.1507
9.787153175, 96.390, 2759.0, 52.5262
9.813413740, 96.390, 2746.0, 52.4023
9.839674305, 96.390, 2807.0, 52.9811
9.865934871, 96.390, 2783.0, 52.7541
9.892195436, 96.390, 2692.0, 51.8845
9.918456001, 96.390, 2794.0, 52.8583
9.944716567, 96.390, 2792.0, 52.8394
9.970977132, 96.390, 2726.0, 52.2111
9.997237697, 96.390, 2809.0, 53.0000
10.023498263, 96.390, 2750.0, 52.4404
10.049758828, 96.390, 2772.0, 52.6498
10.076019393, 96.390, 2685.0, 51.8170
10.102279959, 96.390, 2725.0, 52.2015
10.128540524, 96.390, 2726.0, 52.2111
10.154801090, 96.390, 2758.0, 52.5167
10.181061655, 96.390, 2824.0, 53.1413
10.207322220, 96.390, 2843.0, 53.3198
10.233582786, 96.390, 2764.0, 52.5738
10.259843351, 96.390, 2814.0, 53.0471
10.286103916, 96.390, 2773.0, 52.6593
10.312364482, 96.390, 2749.0, 52.4309
10.338625047, 96.390, 2633.0, 51.3128
10.364885612, 96.390, 2707.0, 52.0288
10.391146178, 96.390, 2735.0, 52.2972
10.417406743, 96.390, 2738.0, 52.3259
10.443667308, 96.390, 2783.0, 52.7541
10.469927874, 96.390, 2637.0, 51.3517
10.496188439, 96.390, 2680.0, 51.7687
10.522449004, 96.390, 2624.0, 51.2250
10.548709570, 96.390, 2667.0, 51.6430
10.574970135, 96.390, 2642.0, 51.4004
10.601230701, 96.390, 2682.0, 51.7880
10.627491266, 96.390, 2613.0, 51.1175
10.653751831, 96.390, 2675.0, 51.7204
10.680012397, 96.390, 2694.0, 51.9038
10.706272962, 96.390, 2597.0, 50.9608
10.732533527, 96.390, 2606.0, 51.0490
10.758794093, 96.390, 2632.0, 51.3030
10.785054658, 96.390, 2678.0, 51.7494
10.811315223, 96.390, 2620.0, 51.1859
10.837575789, 96.390, 2637.0, 51.3517
10.863836354, 96.390, 2652.0, 51.4976
10.890096919, 96.390, 2603.0, 51.0196
10.916357485, 96.390, 2641.0, 51.3907
10.942618050, 96.390, 2627.0, 51.2543
10.968878616, 96.390, 2526.0, 50.2593
10.995139181, 96.390, 2630.0, 51.2835
11.021399746, 96.390, 2610.0, 51.0882
11.047660312, 96.390, 2567.0, 50.6656
11.073920877, 96.390, 2589.0, 50.8822
11.100181442, 96.390, 2700.0, 51.9615
11.126442008, 96.390, 2585.0, 50.8429
11.152702573, 96.390, 2604.0, 51.0294
11.178963138, 96.390, 2664.0, 51.6140
11.205223704, 96.390, 2487.0, 49.8698
11.231484269, 96.390, 2659.0, 51.5655
11.257744834, 96.390, 2637.0, 51.3517
11.284005400, 96.390, 2659.0, 51.5655
11.310265965, 96.390, 2615.0, 51.1371
11.336526530, 96.390, 2638.0, 51.3615
11.362787096, 96.390, 2505.0, 50.0500
11.389047661, 96.390, 2521.0, 50.2096
11.415308227, 96.390, 2600.0, 50.9902
11.441568792, 96.390, 2591.0, 50.9019
11.467829357, 96.390, 2570.0, 50.6952
11.494089923, 96.390, 2547.0, 50.4678
11.520350488, 96.390, 2615.0, 51.1371
11.546611053, 96.390, 2542.0, 50.4183
11.572871619, 96.390, 2472.0, 49.7192
11.599132184, 96.390, 2499.0, 49.9900
11.625392749, 96.390, 2457.0, 49.5681
11.651653315, 96.390, 2505.0, 50.0500
11.677913880, 96.390, 2499.0, 49.9900
11.704174445, 96.390, 2404.0, 49.0306
11.730435011, 96.390, 2477.0, 49.7695
11.756695576, 96.390, 2475.0, 49.7494
11.782956141, 96.390, 2429.0, 49.2849
11.809216707, 96.390, 2471.0, 49.7092
11.835477272, 96.390, 2464.0, 49.6387
11.861737838, 96.390, 2471.0, 49.7092
11.887998403, 96.390, 2421.0, 49.2037
11.914258968, 96.390, 2456.0, 49.5580
11.940519534, 96.390, 2440.0, 49.3964
11.966780099, 96.390, 2474.0, 49.7393
11.993040664, 96.390, 2503.0, 50.0300
12.019301230, 96.390, 2387.0, 48.8569
12.045561795, 96.390, 2477.0, 49.7695
12.071822360, 96.390, 2402.0, 49.0102
12.098082926, 96.390, 2489.0, 49.8899
12.124343491, 96.390, 2481.0, 49.8096
12.150604056, 96.390, 2451.0, 49.5076
12.176864622, 96.390, 2447.0, 49.4672
12.203125187, 96.390, 2455.0, 49.5480
12.229385753, 96.390, 2490.0, 49.8999
12.255646318, 96.390, 2395.0, 48.9387
12.281906883, 96.390, 2461.0, 49.6085
12.308167449, 96.390, 2360.0, 48.5798
12.334428014, 96.390, 2481.0, 49.8096
12.360688579, 96.390, 2442.0, 49.4166
12.386949145, 96.390, 2539.0, 50.3885
12.413209710, 96.390, 2414.0, 49.1325
12.439470275, 96.390, 2435.0, 49.3457
12.465730841, 96.390, 2413.0, 49.1223
12.491991406, 96.390, 2423.0, 49.2240
12.518251971, 96.390, 2436.0, 49.3559
12.544512537, 96.390, 2333.0, 48.3011
12.570773102, 96.390, 2401.0, 49.0000
12.597033667, 96.390, 2388.0, 48.8672
12.623294233, 96.390, 2362.0, 48.6004
12.649554798, 96.390, 2442.0, 49.4166
12.675815364, 96.390, 2421.0, 49.2037
12.702075929, 96.390, 2420.0, 49.1935
12.728336494, 96.390, 2365.0, 48.6313
12.754597060, 96.390, 2348.0, 48.4562
12.780857625, 96.390, 2457.0, 49.5681
12.807118190, 96.390, 2420.0, 49.1935
12.833378756, 96.390, 2392.0, 48.9081
12.859639321, 96.390, 2356.0, 48.5386
12.885899886, 96.390, 2376.0, 48.7442
12.912160452, 96.390, 2332.0, 48.2908
12.938421017, 96.390, 2297.0, 47.9270
12.964681582, 96.390, 2245.0, 47.3814
12.990942148, 96.390, 2403.0, 49.0204
13.017202713, 96.390, 2316.0, 48.1248
13.043463279, 96.390, 2417.0, 49.1630
13.069723844, 96.390, 2349.0, 48.4665
13.095984409, 96.390, 2336.0, 48.3322
13.122244975, 96.390, 2296.0, 47.9166
13.148505540, 96.390, 2248.0, 47.4131
13.174766105, 96.390, 2309.0, 48.0521
13.201026671, 96.390, 2313.0, 48.0937
13.227287236, 96.390, 2336.0, 48.3322
13.253547801, 96.390, 2283.0, 47.7807
13.279808367, 96.390, 2312.0, 48.0833
13.306068932, 96.390, 2261.0, 47.5500
13.332329497, 96.390, 2350.0, 48.4768
13.358590063, 96.390, 2307.0, 48.0312
13.384850628, 96.390, 2368.0, 48.6621
13.411111193, 96.390, 2329.0, 48.2597
13.437371759, 96.390, 2194.0, 46.8402
13.463632324, 96.390, 2369.0, 48.6724
13.489892890, 96.390, 2318.0, 48.1456
13.516153455, 96.390, 2294.0, 47.8957
13.542414020, 96.390, 2300.0, 47.9583
13.568674586, 96.390, 2272.0, 47.6655
13.594935151, 96.390, 2241.0, 47.3392
13.621195716, 96.390, 2315.0, 48.1144
13.647456282, 96.390, 2267.0, 47.6130
13.673716847, 96.390, 2383.0, 48.8160
13.699977412, 96.390, 2283.0, 47.7807
13.726237978, 96.390, 2208.0, 46.9894
13.752498543, 96.390, 2245.0, 47.3814
13.778759108, 96.390, 2257.0, 47.5079
13.805019674, 96.390, 2275.0, 47.6970
13.831280239, 96.390, 2175.0, 46.6369
13.857540805, 96.390, 2230.0, 47.2229
13.883801370, 96.390, 2231.0, 47.2335
13.910061935, 96.390, 2240.0, 47.3286
13.936322501, 96.390, 2236.0, 47.2864
13.962583066, 96.390, 2267.0, 47.6130
13.988843631, 96.390, 2266.0, 47.6025
14.015104197, 96.390, 2305.0, 48.0104
14.041364762, 96.390, 2252.0, 47.4552
14.067625327, 96.390, 2154.0, 46.4112
14.093885893, 96.390, 2242.0, 47.3498
14.120146458, 96.390, 2262.0, 47.5605
14.146407023, 96.390, 2217.0, 47.0850
14.172667589, 96.390, 2202.0, 46.9255
14.198928154, 96.390, 2210.0, 47.0106
14.225188719, 96.390, 2219.0, 47.1063
14.251449285, 96.390, 2232.0, 47.2440
14.277709850, 96.390, 2157.0, 46.4435
14.303970416, 96.390, 2181.0, 46.7012
14.330230981, 96.390, 2230.0, 47.2229
14.356491546, 96.390, 2265.0, 47.5920
14.382752112, 96.390, 2253.0, 47.4658
14.409012677, 96.390, 2139.0, 46.2493
14.435273242, 96.390, 2237.0, 47.2969
14.461533808, 96.390, 2224.0, 47.1593
14.487794373, 96.390, 2108.0, 45.9130
14.514054938, 96.390, 2203.0, 46.9361
14.540315504, 96.390, 2239.0, 47.3181
14.566576069, 96.390, 2149.0, 46.3573
14.592836634, 96.390, 2218.0, 47.0956
14.619097200, 96.390, 2212.0, 47.0319
14.645357765, 96.390, 2127.0, 46.1194
14.671618331, 96.390, 2180.0, 46.6905
14.697878896, 96.390, 2189.0, 46.7868
14.724139461, 96.390, 2170.0, 46.5833
14.750400027, 96.390, 2281.0, 47.7598
14.776660592, 96.390, 2102.0, 45.8476
14.802921157, 96.390, 2196.0, 46.8615
14.829181723, 96.390, 2175.0, 46.6369
14.855442288, 96.390, 2164.0, 46.5188
14.881702853, 96.390, 2207.0, 46.9787
14.907963419, 96.390, 2115.0, 45.9891
14.934223984, 96.390, 2253.0, 47.4658
14.960484549, 96.390, 2247.0, 47.4025
14.986745115, 96.390, 2251.0, 47.4447
15.013005680, 96.390, 2128.0, 46.1303
15.039266245, 96.390, 2211.0, 47.0213
15.065526811, 96.390, 2204.0, 46.9468
15.091787376, 96.390, 2161.0, 46.4866
15.118047942, 96.390, 2271.0, 47.6550
15.144308507, 96.390, 2253.0, 47.4658
15.170569072, 96.390, 2249.0, 47.4236
15.196829638, 96.390, 2165.0, 46.5296
15.223090203, 96.390, 2224.0, 47.1593
15.249350768, 96.390, 2106.0, 45.8912
15.275611334, 96.390, 2207.0, 46.9787
15.301871899, 96.390, 2248.0, 47.4131
15.328132464, 96.390, 2249.0, 47.4236
15.354393030, 96.390, 2162.0, 46.4973
15.380653595, 96.390, 2173.0, 46.6154
15.406914160, 96.390, 2113.0, 45.9674
15.433174726, 96.390, 2241.0, 47.3392
15.459435291, 96.390, 2293.0, 47.8853
15.485695857, 96.390, 2185.0, 46.7440
15.511956422, 96.390, 2245.0, 47.3814
15.538216987, 96.390, 2218.0, 47.0956
15.564477553, 96.390, 2137.0, 46.2277
15.590738118, 96.390, 2179.0, 46.6798
15.616998683, 96.390, 2141.0, 46.2709
15.643259249, 96.390, 2123.0, 46.0760
15.669519814, 96.390, 2197.0, 46.8722
15.695780379, 96.390, 2159.0, 46.4650
15.722040945, 96.390, 2245.0, 47.3814
15.748301510, 96.390, 2243.0, 47.3603
15.774562075, 96.390, 2164.0, 46.5188
15.800822641, 96.390, 2210.0, 47.0106
15.827083206, 96.390, 2203.0, 46.9361
15.853343771, 96.390, 2173.0, 46.6154
15.879604337, 96.390, 2223.0, 47.1487
15.905864902, 96.390, 2211.0, 47.0213
15.932125468, 96.390, 2085.0, 45.6618
15.958386033, 96.390, 2148.0, 46.3465
15.984646598, 96.390, 2200.0, 46.9042
16.010907164, 96.390, 2123.0, 46.0760
16.037167729, 96.390, 2228.0, 47.2017
16.063428294, 96.390, 2202.0, 46.9255
16.089688860, 96.390, 2193.0, 46.8295
16.115949425, 96.390, 2157.0, 46.4435
16.142209990, 96.390, 2239.0, 47.3181
16.168470556, 96.390, 2238.0, 47.3075
16.194731121, 96.390, 2079.0, 45.5961
16.220991686, 96.390, 2186.0, 46.7547
16.247252252, 96.390, 2201.0, 46.9148
16.273512817, 96.390, 2204.0, 46.9468
16.299773382, 96.390, 2235.0, 47.2758
16.326033948, 96.390, 2085.0, 45.6618
16.352294513, 96.390, 2175.0, 46.6369
16.378555079, 96.390, 2133.0, 46.1844
16.404815644, 96.390, 2239.0, 47.3181
16.431076209, 96.390, 2273.0, 47.6760
16.457336775, 96.390, 2132.0, 46.1736
16.483597340, 96.390, 2184.0, 46.7333
16.509857905, 96.390, 2159.0, 46.4650
16.536118471, 96.390, 2170.0, 46.5833
16.562379036, 96.390, 2151.0, 46.3789
16.588639601, 96.390, 2234.0, 47.2652
16.614900167, 96.390, 2260.0, 47.5395
16.641160732, 96.390, 2211.0, 47.0213
16.667421297, 96.390, 2327.0, 48.2390
16.693681863, 96.390, 2219.0, 47.1063
16.719942428, 96.390, 2162.0, 46.4973
16.746202994, 96.390, 2232.0, 47.2440
16.772463559, 96.390, 2186.0, 46.7547
16.798724124, 96.390, 2203.0, 46.9361
16.824984690, 96.390, 2194.0, 46.8402
16.851245255, 96.390, 2272.0, 47.6655
16.877505820, 96.390, 2268.0, 47.6235
16.903766386, 96.390, 2308.0, 48.0416
16.930026951, 96.390, 2258.0, 47.5184
16.956287516, 96.390, 2215.0, 47.0638
16.982548082, 96.390, 2182.0, 46.7119
17.008808647, 96.390, 2199.0, 46.8935
17.035069212, 96.390, 2232.0, 47.2440
17.061329778, 96.390, 2249.0, 47.4236
17.087590343, 96.390, 2251.0, 47.4447
17.113850908, 96.390, 2242.0, 47.3498
17.140111474, 96.390, 2289.0, 47.8435
17.166372039, 96.390, 2247.0, 47.4025
17.192632605, 96.390, 2140.0, 46.2601
17.218893170, 96.390, 2192.0, 46.8188
17.245153735, 96.390, 2271.0, 47.6550
17.271414301, 96.390, 2201.0, 46.9148
17.297674866, 96.390, 2305.0, 48.0104
17.323935431, 96.390, 2316.0, 48.1248
17.350195997, 96.390, 2289.0, 47.8435
17.376456562, 96.390, 2260.0, 47.5395
17.402717127, 96.390, 2200.0, 46.9042
17.428977693, 96.390, 2224.0, 47.1593
17.455238258, 96.390, 2289.0, 47.8435
17.481498823, 96.390, 2350.0, 48.4768
17.507759389, 96.390, 2312.0, 48.0833
17.534019954, 96.390, 2316.0, 48.1248
17.560280520, 96.390, 2241.0, 47.3392
17.586541085, 96.390, 2296.0, 47.9166
17.612801650, 96.390, 2319.0, 48.1560
17.639062216, 96.390, 2444.0, 49.4368
17.665322781, 96.390, 2270.0, 47.6445
17.691583346, 96.390, 2296.0, 47.9166
17.717843912, 96.390, 2357.0, 48.5489
17.744104477, 96.390, 2283.0, 47.7807
17.770365042, 96.390, 2226.0, 47.1805
17.796625608, 96.390, 2260.0, 47.5395
17.822886173, 96.390, 2388.0, 48.8672
17.849146738, 96.390, 2361.0, 48.5901
17.875407304, 96.390, 2370.0, 48.6826
17.901667869, 96.390, 2268.0, 47.6235
17.927928434, 96.390, 2305.0, 48.0104
17.954189000, 96.390, 2356.0, 48.5386
17.980449565, 96.390, 2302.0, 47.9792
18.006710131, 96.390, 2310.0, 48.0625
18.032970696, 96.390, 2417.0, 49.1630
18.059231261, 96.390, 2330.0, 48.2701
18.085491827, 96.390, 2308.0, 48.0416
18.111752392, 96.390, 2380.0, 48.7852
18.138012957, 96.390, 2329.0, 48.2597
18.164273523, 96.390, 2420.0, 49.1935
18.190534088, 96.390, 2444.0, 49.4368
18.216794653, 96.390, 2485.0, 49.8498
18.243055219, 96.390, 2412.0, 49.1121
18.269315784, 96.390, 2437.0, 49.3660
18.295576349, 96.390, 2396.0, 48.9490
18.321836915, 96.390, 2420.0, 49.1935
18.348097480, 96.390, 2341.0, 48.3839
18.374358046, 96.390, 2469.0, 49.6890
18.400618611, 96.390, 2403.0, 49.0204
18.426879176, 96.390, 2415.0, 49.1426
18.453139742, 96.390, 2415.0, 49.1426
18.479400307, 96.390, 2408.0, 49.0714
18.505660872, 96.390, 2456.0, 49.5580
18.531921438, 96.390, 2509.0, 50.0899
18.558182003, 96.390, 2465.0, 49.6488
18.584442568, 96.390, 2380.0, 48.7852
18.610703134, 96.390, 2463.0, 49.6286
18.636963699, 96.390, 2435.0, 49.3457
18.663224264, 96.390, 2390.0, 48.8876
18.689484830, 96.390, 2518.0, 50.1797
18.715745395, 96.390, 2517.0, 50.1697
18.742005960, 96.390, 2483.0, 49.8297
18.768266526, 96.390, 2455.0, 49.5480
18.794527091, 96.390, 2594.0, 50.9313
18.820787657, 96.390, 2539.0, 50.3885
18.847048222, 96.390, 2568.0, 50.6754
18.873308787, 96.390, 2510.0, 50.0999
18.899569353, 96.390, 2581.0, 50.8035
18.925829918, 96.390, 2539.0, 50.3885
18.952090483, 96.390, 2518.0, 50.1797
18.978351049, 96.390, 2458.0, 49.5782
19.004611614, 96.390, 2547.0, 50.4678
19.030872179, 96.390, 2499.0, 49.9900
19.057132745, 96.390, 2523.0, 50.2295
19.083393310, 96.390, 2556.0, 50.5569
19.109653875, 96.390, 2605.0, 51.0392
19.135914441, 96.390, 2602.0, 51.0098
19.162175006, 96.390, 2445.0, 49.4469
19.188435572, 96.390, 2577.0, 50.7642
19.214696137, 96.390, 2541.0, 50.4083
19.240956702, 96.390, 2520.0, 50.1996
19.267217268, 96.390, 2516.0, 50.1597
19.293477833, 96.390, 2629.0, 51.2738
19.319738398, 96.390, 2676.0, 51.7301
19.345998964, 96.390, 2635.0, 51.3323
19.372259529, 96.390, 2666.0, 51.6333
19.398520094, 96.390, 2675.0, 51.7204
19.424780660, 96.390, 2659.0, 51.5655
19.451041225, 96.390, 2561.0, 50.6063
19.477301790, 96.390, 2607.0, 51.0588
19.503562356, 96.390, 2727.0, 52.2207
19.529822921, 96.390, 2717.0, 52.1249
19.556083486, 96.390, 2668.0, 51.6527
19.582344052, 96.390, 2727.0, 52.2207
19.608604617, 96.390, 2697.0, 51.9326
19.634865183, 96.390, 2682.0, 51.7880
19.661125748, 96.390, 2632.0, 51.3030
19.687386313, 96.390, 2629.0, 51.2738
19.713646879, 96.390, 2754.0, 52.4786
19.739907444, 96.390, 2698.0, 51.9423
19.766168009, 96.390, 2733.0, 52.2781
19.792428575, 96.390, 2734.0, 52.2877
19.818689140, 96.390, 2839.0, 53.2823
19.844949705, 96.390, 2775.0, 52.6783
19.871210271, 96.390, 2744.0, 52.3832
19.897470836, 96.390, 2746.0, 52.4023
19.923731401, 96.390, 2783.0, 52.7541
19.949991967, 96.390, 2817.0, 53.0754
19.976252532, 96.390, 2803.0, 52.9434
20.002513097, 96.390, 2836.0, 53.2541
20.028773663, 96.390, 2788.0, 52.8015
20.055034228, 96.390, 2781.0, 52.7352
20.081294794, 96.390, 2809.0, 53.0000
20.107555359, 96.390, 2863.0, 53.5070
20.133815924, 96.390, 2821.0, 53.1131
20.160076490, 96.390, 2998.0, 54.7540
20.186337055, 96.390, 2866.0, 53.5350
20.212597620, 96.390, 2917.0, 54.0093
20.238858186, 96.390, 2846.0, 53.3479
20.265118751, 96.390, 2786.0, 52.7826
20.291379316, 96.390, 2910.0, 53.9444
20.317639882, 96.390, 2887.0, 53.7308
20.343900447, 96.390, 2878.0, 53.6470
20.370161012, 96.390, 2836.0, 53.2541
20.396421578, 96.390, 2919.0, 54.0278
20.422682143, 96.390, 2892.0, 53.7773
20.448942709, 96.390, 2889.0, 53.7494
20.475203274, 96.390, 2878.0, 53.6470
20.501463839, 96.390, 3017.0, 54.9272
20.527724405, 96.390, 2943.0, 54.2494
20.553984970, 96.390, 2994.0, 54.7175
20.580245535, 96.390, 2980.0, 54.5894
20.606506101, 96.390, 2994.0, 54.7175
20.632766666, 96.390, 2987.0, 54.6535
20.659027231, 96.390, 2946.0, 54.2771
20.685287797, 96.390, 3091.0, 55.5968
20.711548362, 96.390, 2946.0, 54.2771
20.737808927, 96.390, 3075.0, 55.4527
20.764069493, 96.390, 3022.0, 54.9727
20.790330058, 96.390, 3022.0, 54.9727
20.816590623, 96.390, 3021.0, 54.9636
20.842851189, 96.390, 3088.0, 55.5698
20.869111754, 96.390, 2916.0, 54.0000
20.895372320, 96.390, 3017.0, 54.9272
20.921632885, 96.390, 3091.0, 55.5968
20.947893450, 96.390, 3111.0, 55.7763
20.974154016, 96.390, 3035.0, 55.0908
21.000414581, 96.390, 2987.0, 54.6535
21.026675146, 96.390, 3043.0, 55.1634
21.052935712, 96.390, 3161.0, 56.2228
21.079196277, 96.390, 3061.0, 55.3263
21.105456842, 96.390, 3121.0, 55.8659
21.131717408, 96.390, 3034.0, 55.0818
21.157977973, 96.390, 3145.0, 56.0803
21.184238538, 96.390, 3144.0, 56.0714
21.210499104, 96.390, 3224.0, 56.7803
21.236759669, 96.390, 3133.0, 55.9732
21.263020235, 96.390, 3121.0, 55.8659
21.289280800, 96.390, 3168.0, 56.2850
21.315541365, 96.390, 3221.0, 56.7539
21.341801931, 96.390, 3215.0, 56.7010
21.368062496, 96.390, 3245.0, 56.9649
21.394323061, 96.390, 3114.0, 55.8032
21.420583627, 96.390, 3232.0, 56.8507
21.446844192, 96.390, 3097.0, 55.6507
21.473104757, 96.390, 3113.0, 55.7943
21.499365323, 96.390, 3223.0, 56.7715
21.525625888, 96.390, 3081.0, 55.5068
21.551886453, 96.390, 3169.0, 56.2939
21.578147019, 96.390, 3133.0, 55.9732
21.604407584, 96.390, 3143.0, 56.0625
21.630668149, 96.390, 3197.0, 56.5420
21.656928715, 96.390, 3182.0, 56.4092
21.683189280, 96.390, 3178.0, 56.3738
21.709449846, 96.390, 3311.0, 57.5413
21.735710411, 96.390, 3318.0, 57.6021
21.761970976, 96.390, 3351.0, 57.8878
21.788231542, 96.390, 3241.0, 56.9298
21.814492107, 96.390, 3258.0, 57.0789
21.840752672, 96.390, 3241.0, 56.9298
21.867013238, 96.390, 3268.0, 57.1664
21.893273803, 96.390, 3230.0, 56.8331
21.919534368, 96.390, 3229.0, 56.8243
21.945794934, 96.390, 3370.0, 58.0517
21.972055499, 96.390, 3352.0, 57.8965
21.998316064, 96.390, 3340.0, 57.7927
22.024576630, 96.390, 3150.0, 56.1249
22.050837195, 96.390, 3261.0, 57.1052
22.077097761, 96.390, 3219.0, 56.7362
22.103358326, 96.390, 3300.0, 57.4456
22.129618891, 96.390, 3234.0, 56.8683
22.155879457, 96.390, 3329.0, 57.6975
22.182140022, 96.390, 3321.0, 57.6281
22.208400587, 96.390, 3304.0, 57.4804
22.234661153, 96.390, 3282.0, 57.2887
22.260921718, 96.390, 3343.0, 57.8187
22.287182283, 96.390, 3426.0, 58.5320
22.313442849, 96.390, 3311.0, 57.5413
22.339703414, 96.390, 3295.0, 57.4021
22.365963979, 96.390, 3243.0, 56.9473
22.392224545, 96.390, 3308.0, 57.5152
22.418485110, 96.390, 3344.0, 57.8273
22.444745675, 96.390, 3389.0, 58.2151
22.471006241, 96.390, 3259.0, 57.0877
22.497266806, 96.390, 3310.0, 57.5326
22.523527372, 96.390, 3270.0, 57.1839
22.549787937, 96.390, 3333.0, 57.7321
22.576048502, 96.390, 3242.0, 56.9386
22.602309068, 96.390, 3318.0, 57.6021
22.628569633, 96.390, 3290.0, 57.3585
22.654830198, 96.390, 3378.0, 58.1206
22.681090764, 96.390, 3378.0, 58.1206
22.707351329, 96.390, 3265.0, 57.1402
22.733611894, 96.390, 3418.0, 58.4637
22.759872460, 96.390, 3293.0, 57.3847
22.786133025, 96.390, 3238.0, 56.9034
22.812393590, 96.390, 3226.0, 56.7979
22.838654156, 96.390, 3322.0, 57.6368
22.864914721, 96.390, 3291.0, 57.3672
22.891175287, 96.390, 3374.0, 58.0861
22.917435852, 96.390, 3393.0, 58.2495
22.943696417, 96.390, 3316.0, 57.5847
22.969956983, 96.390, 3342.0, 57.8100
22.996217548, 96.390, 3369.0, 58.0431
23.022478113, 96.390, 3264.0, 57.1314
23.048738679, 96.390, 3341.0, 57.8014
23.074999244, 96.390, 3282.0, 57.2887
23.101259809, 96.390, 3336.0, 57.7581
23.127520375, 96.390, 3371.0, 58.0603
23.153780940, 96.390, 3380.0, 58.1378
23.180041505, 96.390, 3351.0, 57.8878
23.206302071, 96.390, 3300.0, 57.4456
23.232562636, 96.390, 3327.0, 57.6802
23.258823201, 96.390, 3218.0, 56.7274
23.285083767, 96.390, 3391.0, 58.2323
23.311344332, 96.390, 3408.0, 58.3781
23.337604898, 96.390, 3367.0, 58.0259
23.363865463, 96.390, 3345.0, 57.8360
23.390126028, 96.390, 3353.0, 57.9051
23.416386594, 96.390, 3372.0, 58.0689
23.442647159, 96.390, 3234.0, 56.8683
23.468907724, 96.390, 3370.0, 58.0517
23.495168290, 96.390, 3266.0, 57.1489
23.521428855, 96.390, 3306.0, 57.4978
23.547689420, 96.390, 3318.0, 57.6021
23.573949986, 96.390, 3299.0, 57.4369
23.600210551, 96.390, 3304.0, 57.4804
23.626471116, 96.390, 3334.0, 57.7408
23.652731682, 96.390, 3244.0, 56.9561
23.678992247, 96.390, 3301.0, 57.4543
23.705252813, 96.390, 3278.0, 57.2538
23.731513378, 96.390, 3251.0, 57.0175
23.757773943, 96.390, 3276.0, 57.2364
23.784034509, 96.390, 3358.0, 57.9483
23.810295074, 96.390, 3351.0, 57.8878
23.836555639, 96.390, 3340.0, 57.7927
23.862816205, 96.390, 3235.0, 56.8771
23.889076770, 96.390, 3220.0, 56.7450
23.915337335, 96.390, 3337.0, 57.7668
23.941597901, 96.390, 3235.0, 56.8771
23.967858466, 96.390, 3240.0, 56.9210
23.994119031, 96.390, 3287.0, 57.3324
24.020379597, 96.390, 3320.0, 57.6194
24.046640162, 96.390, 3200.0, 56.5685
24.072900727, 96.390, 3309.0, 57.5239
24.099161293, 96.390, 3176.0, 56.3560
24.125421858, 96.390, 3167.0, 56.2761
24.151682424, 96.390, 3116.0, 55.8211
24.177942989, 96.390, 3229.0, 56.8243
24.204203554, 96.390, 3242.0, 56.9386
24.230464120, 96.390, 3283.0, 57.2975
24.256724685, 96.390, 3167.0, 56.2761
24.282985250, 96.390, 3163.0, 56.2406
24.309245816, 96.390, 3245.0, 56.9649
24.335506381, 96.390, 3176.0, 56.3560
24.361766946, 96.390, 3177.0, 56.3649
24.388027512, 96.390, 3192.0, 56.4978
24.414288077, 96.390, 3133.0, 55.9732
24.440548642, 96.390, 3282.0, 57.2887
24.466809208, 96.390, 3247.0, 56.9825
24.493069773, 96.390, 3137.0, 56.0089
24.519330338, 96.390, 3270.0, 57.1839
24.545590904, 96.390, 3099.0, 55.6687
24.571851469, 96.390, 3143.0, 56.0625
24.598112035, 96.390, 3143.0, 56.0625
24.624372600, 96.390, 3152.0, 56.1427
24.650633165, 96.390, 3080.0, 55.4977
24.676893731, 96.390, 3082.0, 55.5158
24.703154296, 96.390, 3119.0, 55.8480
24.729414861, 96.390, 3211.0, 56.6657
24.755675427, 96.390, 3183.0, 56.4181
24.781935992, 96.390, 3161.0, 56.2228
24.808196557, 96.390, 3138.0, 56.0179
24.834457123, 96.390, 3211.0, 56.6657
24.860717688, 96.390, 3159.0, 56.2050
24.886978253, 96.390, 3097.0, 55.6507
24.913238819, 96.390, 3109.0, 55.7584
24.939499384, 96.390, 3128.0, 55.9285
24.965759950, 96.390, 3206.0, 56.6216
24.992020515, 96.390, 3115.0, 55.8122
25.018281080, 96.390, 3097.0, 55.6507
25.044541646, 96.390, 3264.0, 57.1314
25.070802211, 96.390, 3130.0, 55.9464
25.097062776, 96.390, 3201.0, 56.5774
25.123323342, 96.390, 3166.0, 56.2672
25.149583907, 96.390, 3162.0, 56.2317
25.175844472, 96.390, 3074.0, 55.4437
25.202105038, 96.390, 2986.0, 54.6443
25.228365603, 96.390, 3067.0, 55.3805
25.254626168, 96.390, 3034.0, 55.0818
25.280886734, 96.390, 3052.0, 55.2449
25.307147299, 96.390, 3081.0, 55.5068
25.333407864, 96.390, 3094.0, 55.6237
25.359668430, 96.390, 3035.0, 55.0908
25.385928995, 96.390, 3018.0, 54.9363
25.412189561, 96.390, 3112.0, 55.7853
25.438450126, 96.390, 3056.0, 55.2811
25.464710691, 96.390, 3010.0, 54.8635
25.490971257, 96.390, 3049.0, 55.2178
25.517231822, 96.390, 2978.0, 54.5711
25.543492387, 96.390, 3018.0, 54.9363
25.569752953, 96.390, 3015.0, 54.9090
25.596013518, 96.390, 3027.0, 55.0182
25.622274083, 96.390, 2966.0, 54.4610
25.648534649, 96.390, 2954.0, 54.3507
25.674795214, 96.390, 3048.0, 55.2087
25.701055779, 96.390, 3084.0, 55.5338
25.727316345, 96.390, 3008.0, 54.8452
25.753576910, 96.390, 2875.0, 53.6190
25.779837476, 96.390, 3012.0, 54.8817
25.806098041, 96.390, 3039.0, 55.1271
25.832358606, 96.390, 2936.0, 54.1849
25.858619172, 96.390, 2957.0, 54.3783
25.884879737, 96.390, 3012.0, 54.8817
25.911140302, 96.390, 2849.0, 53.3760
25.937400868, 96.390, 2866.0, 53.5350
25.963661433, 96.390, 2941.0, 54.2310
25.989921998, 96.390, 3012.0, 54.8817
26.016182564, 96.390, 2908.0, 53.9259
26.042443129, 96.390, 3041.0, 55.1453
26.068703694, 96.390, 3057.0, 55.2901
26.094964260, 96.390, 2847.0, 53.3573
26.121224825, 96.390, 2920.0, 54.0370
26.147485390, 96.390, 2915.0, 53.9907
26.173745956, 96.390, 2877.0, 53.6377
26.200006521, 96.390, 2924.0, 54.0740
26.226267087, 96.390, 2943.0, 54.2494
26.252527652, 96.390, 2878.0, 53.6470
26.278788217, 96.390, 2835.0, 53.2447
26.305048783, 96.390, 2867.0, 53.5444
26.331309348, 96.390, 2827.0, 53.1695
26.357569913, 96.390, 2878.0, 53.6470
26.383830479, 96.390, 2796.0, 52.8772
26.410091044, 96.390, 2964.0, 54.4426
26.436351609, 96.390, 2845.0, 53.3385
26.462612175, 96.390, 2899.0, 53.8424
26.488872740, 96.390, 2842.0, 53.3104
26.515133305, 96.390, 2741.0, 52.3546
26.541393871, 96.390, 2933.0, 54.1572
26.567654436, 96.390, 2884.0, 53.7029
26.593915002, 96.390, 2875.0, 53.6190
26.620175567, 96.390, 2906.0, 53.9073
26.646436132, 96.390, 2808.0, 52.9906
26.672696698, 96.390, 2719.0, 52.1440
26.698957263, 96.390, 2850.0, 53.3854
26.725217828, 96.390, 2847.0, 53.3573
26.751478394, 96.390, 2774.0, 52.6688
26.777738959, 96.390, 2827.0, 53.1695
26.803999524, 96.390, 2763.0, 52.5642
26.830260090, 96.390, 2673.0, 51.7011
26.856520655, 96.390, 2777.0, 52.6972
26.882781220, 96.390, 2726.0, 52.2111
26.909041786, 96.390, 2735.0, 52.2972
26.935302351, 96.390, 2740.0, 52.3450
26.961562916, 96.390, 2788.0, 52.8015
26.987823482, 96.390, 2636.0, 51.3420
27.014084047, 96.390, 2780.0, 52.7257
27.040344613, 96.390, 2822.0, 53.1225
27.066605178, 96.390, 2755.0, 52.4881
27.092865743, 96.390, 2778.0, 52.7067
27.119126309, 96.390, 2702.0, 51.9808
27.145386874, 96.390, 2682.0, 51.7880
27.171647439, 96.390, 2673.0, 51.7011
27.197908005, 96.390, 2639.0, 51.3712
27.224168570, 96.390, 2688.0, 51.8459
27.250429135, 96.390, 2798.0, 52.8961
27.276689701, 96.390, 2791.0, 52.8299
27.302950266, 96.390, 2687.0, 51.8363
27.329210831, 96.390, 2655.0, 51.5267
27.355471397, 96.390, 2591.0, 50.9019
27.381731962, 96.390, 2623.0, 51.2152
27.407992528, 96.390, 2737.0, 52.3163
27.434253093, 96.390, 2642.0, 51.4004
27.460513658, 96.390, 2641.0, 51.3907
27.486774224, 96.390, 2724.0, 52.1920
27.513034789, 96.390, 2634.0, 51.3225
27.539295354, 96.390, 2589.0, 50.8822
27.565555920, 96.390, 2538.0, 50.3786
27.591816485, 96.390, 2684.0, 51.8073
27.618077050, 96.390, 2659.0, 51.5655
27.644337616, 96.390, 2695.0, 51.9134
27.670598181, 96.390, 2682.0, 51.7880
27.696858746, 96.390, 2600.0, 50.9902
27.723119312, 96.390, 2613.0, 51.1175
27.749379877, 96.390, 2548.0, 50.4777
27.775640442, 96.390, 2624.0, 51.2250
27.801901008, 96.390, 2629.0, 51.2738
27.828161573, 96.390, 2690.0, 51.8652
27.854422139, 96.390, 2600.0, 50.9902
27.880682704, 96.390, 2624.0, 51.2250
27.906943269, 96.390, 2564.0, 50.6360
27.933203835, 96.390, 2504.0, 50.0400
27.959464400, 96.390, 2507.0, 50.0700
27.985724965, 96.390, 2559.0, 50.5866
28.011985531, 96.390, 2617.0, 51.1566
28.038246096, 96.390, 2521.0, 50.2096
28.064506661, 96.390, 2527.0, 50.2693
28.090767227, 96.390, 2451.0, 49.5076
28.117027792, 96.390, 2582.0, 50.8134
28.143288357, 96.390, 2529.0, 50.2892
28.169548923, 96.390, 2490.0, 49.8999
28.195809488, 96.390, 2498.0, 49.9800
28.222070054, 96.390, 2583.0, 50.8232
28.248330619, 96.390, 2520.0, 50.1996
28.274591184, 96.390, 2518.0, 50.1797
28.300851750, 96.390, 2494.0, 49.9400
28.327112315, 96.390, 2382.0, 48.8057
28.353372880, 96.390, 2526.0, 50.2593
28.379633446, 96.390, 2555.0, 50.5470
28.405894011, 96.390, 2450.0, 49.4975
28.432154576, 96.390, 2533.0, 50.3289
28.458415142, 96.390, 2478.0, 49.7795
28.484675707, 96.390, 2543.0, 50.4282
28.510936272, 96.390, 2516.0, 50.1597
28.537196838, 96.390, 2423.0, 49.2240
28.563457403, 96.390, 2394.0, 48.9285
28.589717968, 96.390, 2426.0, 49.2544
28.615978534, 96.390, 2442.0, 49.4166
28.642239099, 96.390, 2405.0, 49.0408
28.668499665, 96.390, 2423.0, 49.2240
28.694760230, 96.390, 2422.0, 49.2138
28.721020795, 96.390, 2392.0, 48.9081
28.747281361, 96.390, 2353.0, 48.5077
28.773541926, 96.390, 2376.0, 48.7442
28.799802491, 96.390, 2447.0, 49.4672
28.826063057, 96.390, 2397.0, 48.9592
28.852323622, 96.390, 2393.0, 48.9183
28.878584187, 96.390, 2315.0, 48.1144
28.904844753, 96.390, 2353.0, 48.5077
28.931105318, 96.390, 2452.0, 49.5177
28.957365883, 96.390, 2378.0, 48.7647
28.983626449, 96.390, 2328.0, 48.2494
29.009887014, 96.390, 2370.0, 48.6826
29.036147579, 96.390, 2306.0, 48.0208
29.062408145, 96.390, 2302.0, 47.9792
29.088668710, 96.390, 2432.0, 49.3153
29.114929276, 96.390, 2410.0, 49.0918
29.141189841, 96.390, 2416.0, 49.1528
29.167450406, 96.390, 2381.0, 48.7955
29.193710972, 96.390, 2287.0, 47.8226
29.219971537, 96.390, 2311.0, 48.0729
29.246232102, 96.390, 2306.0, 48.0208
29.272492668, 96.390, 2424.0, 49.2341
29.298753233, 96.390, 2401.0, 49.0000
29.325013798, 96.390, 2350.0, 48.4768
29.351274364, 96.390, 2367.0, 48.6518
29.377534929, 96.390, 2329.0, 48.2597
29.403795494, 96.390, 2254.0, 47.4763
29.430056060, 96.390, 2345.0, 48.4252
29.456316625, 96.390, 2372.0, 48.7032
29.482577191, 96.390, 2276.0, 47.7074
29.508837756, 96.390, 2286.0, 47.8121
29.535098321, 96.390, 2266.0, 47.6025
29.561358887, 96.390, 2215.0, 47.0638
29.587619452, 96.390, 2336.0, 48.3322
29.613880017, 96.390, 2293.0, 47.8853
29.640140583, 96.390, 2268.0, 47.6235
29.666401148, 96.390, 2221.0, 47.1275
29.692661713, 96.390, 2220.0, 47.1169
29.718922279, 96.390, 2239.0, 47.3181
29.745182844, 96.390, 2323.0, 48.1975
29.771443409, 96.390, 2202.0, 46.9255
29.797703975, 96.390, 2217.0, 47.0850
29.823964540, 96.390, 2204.0, 46.9468
29.850225105, 96.390, 2210.0, 47.0106
29.876485671, 96.390, 2213.0, 47.0425
29.902746236, 96.390, 2201.0, 46.9148
29.929006802, 96.390, 2230.0, 47.2229
29.955267367, 96.390, 2123.0, 46.0760
29.981527932, 96.390, 2346.0, 48.4355
30.007788498, 96.390, 2258.0, 47.5184
30.034049063, 96.390, 2136.0, 46.2169
30.060309628, 96.390, 2243.0, 47.3603
30.086570194, 96.390, 2197.0, 46.8722
30.112830759, 96.390, 2161.0, 46.4866
30.139091324, 96.390, 2142.0, 46.2817
30.165351890, 96.390, 2173.0, 46.6154
30.191612455, 96.390, 2189.0, 46.7868
30.217873020, 96.390, 2205.0, 46.9574
30.244133586, 96.390, 2149.0, 46.3573
30.270394151, 96.390, 2152.0, 46.3897
30.296654717, 96.390, 2130.0, 46.1519
30.322915282, 96.390, 2057.0, 45.3542
30.349175847, 96.390, 2137.0, 46.2277
30.375436413, 96.390, 2088.0, 45.6946
30.401696978, 96.390, 2093.0, 45.7493
30.427957543, 96.390, 2166.0, 46.5403
30.454218109, 96.390, 2123.0, 46.0760
30.480478674, 96.390, 2096.0, 45.7821
30.506739239, 96.390, 2093.0, 45.7493
30.532999805, 96.390, 2120.0, 46.0435
30.559260370, 96.390, 2109.0, 45.9239
30.585520935, 96.390, 2005.0, 44.7772
30.611781501, 96.390, 2171.0, 46.5940
30.638042066, 96.390, 2111.0, 45.9456
30.664302631, 96.390, 2085.0, 45.6618
30.690563197, 96.390, 2127.0, 46.1194
30.716823762, 96.390, 2023.0, 44.9778
30.743084328, 96.390, 2029.0, 45.0444
30.769344893, 96.390, 1988.0, 44.5870
30.795605458, 96.390, 2057.0, 45.3542
30.821866024, 96.390, 2085.0, 45.6618
30.848126589, 96.390, 2035.0, 45.1110
30.874387154, 96.390, 2028.0, 45.0333
30.900647720, 96.390, 2052.0, 45.2990
30.926908285, 96.390, 2003.0, 44.7549
30.953168850, 96.390, 2112.0, 45.9565
30.979429416, 96.390, 2048.0, 45.2548
31.005689981, 96.390, 2021.0, 44.9555
31.031950546, 96.390, 2039.0, 45.1553
31.058211112, 96.390, 2071.0, 45.5082
31.084471677, 96.390, 2056.0, 45.3431
31.110732243, 96.390, 2052.0, 45.2990
31.136992808, 96.390, 1965.0, 44.3283
31.163253373, 96.390, 1989.0, 44.5982
31.189513939, 96.390, 2035.0, 45.1110
31.215774504, 96.390, 2025.0, 45.0000
31.242035069, 96.390, 1978.0, 44.4747
31.268295635, 96.390, 1982.0, 44.5197
31.294556200, 96.390, 1933.0, 43.9659
31.320816765, 96.390, 1917.0, 43.7836
31.347077331, 96.390, 2023.0, 44.9778
31.373337896, 96.390, 1906.0, 43.6578
31.399598461, 96.390, 1997.0, 44.6878
31.425859027, 96.390, 1970.0, 44.3847
31.452119592, 96.390, 2005.0, 44.7772
31.478380157, 96.390, 2001.0, 44.7325
31.504640723, 96.390, 1996.0, 44.6766
31.530901288, 96.390, 1926.0, 43.8862
31.557161854, 96.390, 1959.0, 44.2606
31.583422419, 96.390, 1947.0, 44.1248
31.609682984, 96.390, 2049.0, 45.2659
31.635943550, 96.390, 1943.0, 44.0795
31.662204115, 96.390, 1997.0, 44.6878
31.688464680, 96.390, 1974.0, 44.4297
31.714725246, 96.390, 1953.0, 44.1928
31.740985811, 96.390, 2005.0, 44.7772
31.767246376, 96.390, 1958.0, 44.2493
31.793506942, 96.390, 2006.0, 44.7884
31.819767507, 96.390, 1913.0, 43.7379
31.846028072, 96.390, 1881.0, 43.3705
31.872288638, 96.390, 1902.0, 43.6119
31.898549203, 96.390, 1900.0, 43.5890
31.924809769, 96.390, 1968.0, 44.3621
31.951070334, 96.390, 1922.0, 43.8406
31.977330899, 96.390, 1940.0, 44.0454
32.003591465, 96.390, 1974.0, 44.4297
32.029852030, 96.390, 1910.0, 43.7035
32.056112595, 96.390, 1898.0, 43.5660
32.082373161, 96.390, 1887.0, 43.4396
32.108633726, 96.390, 1873.0, 43.2782
32.134894291, 96.390, 1915.0, 43.7607
32.161154857, 96.390, 1862.0, 43.1509
32.187415422, 96.390, 1891.0, 43.4856
32.213675987, 96.390, 1948.0, 44.1362
32.239936553, 96.390, 1867.0, 43.2088
32.266197118, 96.390, 1821.0, 42.6732
32.292457683, 96.390, 1837.0, 42.8602
32.318718249, 96.390, 1851.0, 43.0232
32.344978814, 96.390, 1864.0, 43.1741
32.371239380, 96.390, 1850.0, 43.0116
32.397499945, 96.390, 1801.0, 42.4382
32.423760510, 96.390, 1930.0, 43.9318
32.450021076, 96.390, 1821.0, 42.6732
32.476281641, 96.390, 1841.0, 42.9069
32.502542206, 96.390, 1869.0, 43.2319
32.528802772, 96.390, 1808.0, 42.5206
32.555063337, 96.390, 1817.0, 42.6263
32.581323902, 96.390, 1874.0, 43.2897
32.607584468, 96.390, 1920.0, 43.8178
32.633845033, 96.390, 1847.0, 42.9767
32.660105598, 96.390, 1806.0, 42.4971
32.686366164, 96.390, 1848.0, 42.9884
32.712626729, 96.390, 1843.0, 42.9302
32.738887295, 96.390, 1840.0, 42.8952
32.765147860, 96.390, 1726.0, 41.5452
32.791408425, 96.390, 1785.0, 42.2493
32.817668991, 96.390, 1821.0, 42.6732
32.843929556, 96.390, 1861.0, 43.1393
32.870190121, 96.390, 1748.0, 41.8091
32.896450687, 96.390, 1808.0, 42.5206
32.922711252, 96.390, 1841.0, 42.9069
32.948971817, 96.390, 1788.0, 42.2847
32.975232383, 96.390, 1804.0, 42.4735
33.001492948, 96.390, 1734.0, 41.6413
33.027753513, 96.390, 1703.0, 41.2674
33.054014079, 96.390, 1824.0, 42.7083
33.080274644, 96.390, 1748.0, 41.8091
33.106535209, 96.390, 1795.0, 42.3674
33.132795775, 96.390, 1754.0, 41.8808
33.159056340, 96.390, 1810.0, 42.5441
33.185316906, 96.390, 1733.0, 41.6293
33.211577471, 96.390, 1733.0, 41.6293
33.237838036, 96.390, 1647.0, 40.5832
33.264098602, 96.390, 1679.0, 40.9756
33.290359167, 96.390, 1800.0, 42.4264
33.316619732, 96.390, 1793.0, 42.3438
33.342880298, 96.390, 1703.0, 41.2674
33.369140863, 96.390, 1730.0, 41.5933
33.395401428, 96.390, 1752.0, 41.8569
33.421661994, 96.390, 1643.0, 40.5339
33.447922559, 96.390, 1700.0, 41.2311
33.474183124, 96.390, 1726.0, 41.5452
33.500443690, 96.390, 1686.0, 41.0609
33.526704255, 96.390, 1726.0, 41.5452
33.552964820, 96.390, 1661.0, 40.7554
33.579225386, 96.390, 1671.0, 40.8779
33.605485951, 96.390, 1653.0, 40.6571
33.631746517, 96.390, 1683.0, 41.0244
33.658007082, 96.390, 1568.0, 39.5980
33.684267647, 96.390, 1711.0, 41.3642
33.710528213, 96.390, 1697.0, 41.1947
33.736788778, 96.390, 1638.0, 40.4722
33.763049343, 96.390, 1758.0, 41.9285
33.789309909, 96.390, 1595.0, 39.9375
33.815570474, 96.390, 1651.0, 40.6325
33.841831039, 96.390, 1710.0, 41.3521
33.868091605, 96.390, 1666.0, 40.8167
33.894352170, 96.390, 1606.0, 40.0749
33.920612735, 96.390, 1694.0, 41.1582
33.946873301, 96.390, 1668.0, 40.8412
33.973133866, 96.390, 1657.0, 40.7063
33.999394432, 96.390, 1557.0, 39.4588
34.025654997, 96.390, 1650.0, 40.6202
34.051915562, 96.390, 1621.0, 40.2616
34.078176128, 96.390, 1571.0, 39.6358
34.104436693, 96.390, 1644.0, 40.5463
34.130697258, 96.390, 1567.0, 39.5854
34.156957824, 96.390, 1626.0, 40.3237
34.183218389, 96.390, 1599.0, 39.9875
34.209478954, 96.390, 1619.0, 40.2368
34.235739520, 96.390, 1655.0, 40.6817
34.262000085, 96.390, 1639.0, 40.4846
34.288260650, 96.390, 1666.0, 40.8167
34.314521216, 96.390, 1616.0, 40.1995
34.340781781, 96.390, 1532.0, 39.1408
34.367042346, 96.390, 1618.0, 40.2244
34.393302912, 96.390, 1646.0, 40.5709
34.419563477, 96.390, 1612.0, 40.1497
34.445824043, 96.390, 1601.0, 40.0125
34.472084608, 96.390, 1658.0, 40.7185
34.498345173, 96.390, 1646.0, 40.5709
34.524605739, 96.390, 1618.0, 40.2244
34.550866304, 96.390, 1565.0, 39.5601
34.577126869, 96.390, 1549.0, 39.3573
34.603387435, 96.390, 1478.0, 38.4448
34.629648000, 96.390, 1604.0, 40.0500
34.655908565, 96.390, 1546.0, 39.3192
34.682169131, 96.390, 1597.0, 39.9625
34.708429696, 96.390, 1602.0, 40.0250
34.734690261, 96.390, 1523.0, 39.0256
34.760950827, 96.390, 1548.0, 39.3446
34.787211392, 96.390, 1589.0, 39.8623
34.813471958, 96.390, 1539.0, 39.2301
34.839732523, 96.390, 1524.0, 39.0384
34.865993088, 96.390, 1588.0, 39.8497
34.892253654, 96.390, 1579.0, 39.7366
34.918514219, 96.390, 1528.0, 39.0896
34.944774784, 96.390, 1582.0, 39.7744
34.971035350, 96.390, 1520.0, 38.9872
34.997295915, 96.390, 1560.0, 39.4968
35.023556480, 96.390, 1571.0, 39.6358
35.049817046, 96.390, 1494.0, 38.6523
35.076077611, 96.390, 1528.0, 39.0896
35.102338176, 96.390, 1574.0, 39.6737
35.128598742, 96.390, 1587.0, 39.8372
35.154859307, 96.390, 1600.0, 40.0000
35.181119872, 96.390, 1503.0, 38.7685
35.207380438, 96.390, 1436.0, 37.8946
35.233641003, 96.390, 1504.0, 38.7814
35.259901569, 96.390, 1468.0, 38.3145
35.286162134, 96.390, 1506.0, 38.8072
35.312422699, 96.390, 1498.0, 38.7040
35.338683265, 96.390, 1526.0, 39.0640
35.364943830, 96.390, 1500.0, 38.7298
35.391204395, 96.390, 1506.0, 38.8072
35.417464961, 96.390, 1479.0, 38.4578
35.443725526, 96.390, 1479.0, 38.4578
35.469986091, 96.390, 1457.0, 38.1707
35.496246657, 96.390, 1495.0, 38.6652
35.522507222, 96.390, 1542.0, 39.2683
35.548767787, 96.390, 1500.0, 38.7298
35.575028353, 96.390, 1437.0, 37.9078
35.601288918, 96.390, 1496.0, 38.6782
35.627549484, 96.390, 1383.0, 37.1887
35.653810049, 96.390, 1467.0, 38.3014
35.680070614, 96.390, 1492.0, 38.6264
35.706331180, 96.390, 1419.0, 37.6696
35.732591745, 96.390, 1462.0, 38.2361
35.758852310, 96.390, 1432.0, 37.8418
35.785112876, 96.390, 1427.0, 37.7757
35.811373441, 96.390, 1370.0, 37.0135
35.837634006, 96.390, 1359.0, 36.8646
35.863894572, 96.390, 1451.0, 38.0920
35.890155137, 96.390, 1404.0, 37.4700
35.916415702, 96.390, 1417.0, 37.6431
35.942676268, 96.390, 1480.0, 38.4708
35.968936833, 96.390, 1422.0, 37.7094
35.995197398, 96.390, 1441.0, 37.9605
36.021457964, 96.390, 1496.0, 38.6782
36.047718529, 96.390, 1350.0, 36.7423
36.073979095, 96.390, 1412.0, 37.5766
36.100239660, 96.390, 1491.0, 38.6135
36.126500225, 96.390, 1439.0, 37.9342
36.152760791, 96.390, 1454.0, 38.1314
36.179021356, 96.390, 1345.0, 36.6742
36.205281921, 96.390, 1481.0, 38.4838
36.231542487, 96.390, 1444.0, 38.0000
36.257803052, 96.390, 1320.0, 36.3318
36.284063617, 96.390, 1324.0, 36.3868
36.310324183, 96.390, 1396.0, 37.3631
36.336584748, 96.390, 1430.0, 37.8153
36.362845313, 96.390, 1376.0, 37.0945
36.389105879, 96.390, 1324.0, 36.3868
36.415366444, 96.390, 1403.0, 37.4566
36.441627010, 96.390, 1396.0, 37.3631
36.467887575, 96.390, 1445.0, 38.0132
36.494148140, 96.390, 1383.0, 37.1887
36.520408706, 96.390, 1446.0, 38.0263
36.546669271, 96.390, 1369.0, 37.0000
36.572929836, 96.390, 1270.0, 35.6371
36.599190402, 96.390, 1351.0, 36.7560
36.625450967, 96.390, 1294.0, 35.9722
36.651711532, 96.390, 1339.0, 36.5923
36.677972098, 96.390, 1353.0, 36.7831
36.704232663, 96.390, 1390.0, 37.2827
36.730493228, 96.390, 1333.0, 36.5103
36.756753794, 96.390, 1335.0, 36.5377
36.783014359, 96.390, 1328.0, 36.4417
36.809274924, 96.390, 1342.0, 36.6333
36.835535490, 96.390, 1339.0, 36.5923
36.861796055, 96.390, 1358.0, 36.8511
36.888056621, 96.390, 1341.0, 36.6197
36.914317186, 96.390, 1329.0, 36.4555
36.940577751, 96.390, 1369.0, 37.0000
36.966838317, 96.390, 1316.0, 36.2767
36.993098882, 96.390, 1364.0, 36.9324
37.019359447, 96.390, 1350.0, 36.7423
37.045620013, 96.390, 1330.0, 36.4692
37.071880578, 96.390, 1319.0, 36.3180
37.098141143, 96.390, 1299.0, 36.0416
37.124401709, 96.390, 1286.0, 35.8608
37.150662274, 96.390, 1325.0, 36.4005
37.176922839, 96.390, 1315.0, 36.2629
37.203183405, 96.390, 1324.0, 36.3868
37.229443970, 96.390, 1264.0, 35.5528
37.255704535, 96.390, 1290.0, 35.9166
37.281965101, 96.390, 1270.0, 35.6371
37.308225666, 96.390, 1387.0, 37.2424
37.334486232, 96.390, 1280.0, 35.7771
37.360746797, 96.390, 1269.0, 35.6230
37.387007362, 96.390, 1297.0, 36.0139
37.413267928, 96.390, 1261.0, 35.5106
37.439528493, 96.390, 1251.0, 35.3695
37.465789058, 96.390, 1287.0, 35.8748
37.492049624, 96.390, 1266.0, 35.5809
37.518310189, 96.390, 1330.0, 36.4692
37.544570754, 96.390, 1300.0, 36.0555
37.570831320, 96.390, 1293.0, 35.9583
37.597091885, 96.390, 1205.0, 34.7131
37.623352450, 96.390, 1223.0, 34.9714
37.649613016, 96.390, 1199.0, 34.6266
37.675873581, 96.390, 1280.0, 35.7771
37.702134147, 96.390, 1226.0, 35.0143
37.728394712, 96.390, 1271.0, 35.6511
37.754655277, 96.390, 1303.0, 36.0971
37.780915843, 96.390, 1274.0, 35.6931
37.807176408, 96.390, 1226.0, 35.0143
37.833436973, 96.390, 1284.0, 35.8329
37.859697539, 96.390, 1234.0, 35.1283
37.885958104, 96.390, 1207.0, 34.7419
37.912218669, 96.390, 1284.0, 35.8329
37.938479235, 96.390, 1252.0, 35.3836
37.964739800, 96.390, 1251.0, 35.3695
37.991000365, 96.390, 1266.0, 35.5809
38.017260931, 96.390, 1224.0, 34.9857
38.043521496, 96.390, 1268.0, 35.6090
38.069782061, 96.390, 1268.0, 35.6090
38.096042627, 96.390, 1247.0, 35.3129
38.122303192, 96.390, 1225.0, 35.0000
38.148563758, 96.390, 1222.0, 34.9571
38.174824323, 96.390, 1221.0, 34.9428
38.201084888, 96.390, 1238.0, 35.1852
38.227345454, 96.390, 1209.0, 34.7707
38.253606019, 96.390, 1266.0, 35.5809
38.279866584, 96.390, 1243.0, 35.2562
38.306127150, 96.390, 1242.0, 35.2420
38.332387715, 96.390, 1270.0, 35.6371
38.358648280, 96.390, 1179.0, 34.3366
38.384908846, 96.390, 1214.0, 34.8425
38.411169411, 96.390, 1208.0, 34.7563
38.437429976, 96.390, 1230.0, 35.0714
38.463690542, 96.390, 1281.0, 35.7911
38.489951107, 96.390, 1195.0, 34.5688
38.516211673, 96.390, 1253.0, 35.3977
38.542472238, 96.390, 1265.0, 35.5668
38.568732803, 96.390, 1154.0, 33.9706
38.594993369, 96.390, 1209.0, 34.7707
38.621253934, 96.390, 1236.0, 35.1568
38.647514499, 96.390, 1229.0, 35.0571
38.673775065, 96.390, 1210.0, 34.7851
38.700035630, 96.390, 1171.0, 34.2199
38.726296195, 96.390, 1209.0, 34.7707
38.752556761, 96.390, 1233.0, 35.1141
38.778817326, 96.390, 1185.0, 34.4238
38.805077891, 96.390, 1167.0, 34.1614
38.831338457, 96.390, 1221.0, 34.9428
38.857599022, 96.390, 1213.0, 34.8281
38.883859587, 96.390, 1161.0, 34.0735
38.910120153, 96.390, 1198.0, 34.6121
38.936380718, 96.390, 1217.0, 34.8855
38.962641284, 96.390, 1240.0, 35.2136
38.988901849, 96.390, 1248.0, 35.3270
39.015162414, 96.390, 1236.0, 35.1568
39.041422980, 96.390, 1166.0, 34.1467
39.067683545, 96.390, 1195.0, 34.5688
39.093944110, 96.390, 1167.0, 34.1614
39.120204676, 96.390, 1126.0, 33.5559
39.146465241, 96.390, 1214.0, 34.8425
39.172725806, 96.390, 1197.0, 34.5977
39.198986372, 96.390, 1168.0, 34.1760
39.225246937, 96.390, 1191.0, 34.5109
39.251507502, 96.390, 1155.0, 33.9853
39.277768068, 96.390, 1168.0, 34.1760
39.304028633, 96.390, 1178.0, 34.3220
39.330289199, 96.390, 1213.0, 34.8281
39.356549764, 96.390, 1142.0, 33.7935
39.382810329, 96.390, 1158.0, 34.0294
39.409070895, 96.390, 1177.0, 34.3074
39.435331460, 96.390, 1166.0, 34.1467
39.461592025, 96.390, 1171.0, 34.2199
39.487852591, 96.390, 1210.0, 34.7851
39.514113156, 96.390, 1239.0, 35.1994
39.540373721, 96.390, 1181.0, 34.3657
39.566634287, 96.390, 1157.0, 34.0147
39.592894852, 96.390, 1203.0, 34.6843
39.619155417, 96.390, 1208.0, 34.7563
39.645415983, 96.390, 1227.0, 35.0286
39.671676548, 96.390, 1189.0, 34.4819
39.697937113, 96.390, 1221.0, 34.9428
39.724197679, 96.390, 1201.0, 34.6554
39.750458244, 96.390, 1158.0, 34.0294
39.776718810, 96.390, 1203.0, 34.6843
39.802979375, 96.390, 1155.0, 33.9853
39.829239940, 96.390, 1181.0, 34.3657
39.855500506, 96.390, 1155.0, 33.9853
39.881761071, 96.390, 1156.0, 34.0000
39.908021636, 96.390, 1145.0, 33.8378
39.934282202, 96.390, 1171.0, 34.2199
39.960542767, 96.390, 1184.0, 34.4093
39.986803332, 96.390, 1172.0, 34.2345
40.013063898, 96.390, 1166.0, 34.1467
40.039324463, 96.390, 1174.0, 34.2637
40.065585028, 96.390, 1151.0, 33.9264
40.091845594, 96.390, 1191.0, 34.5109
40.118106159, 96.390, 1207.0, 34.7419
40.144366725, 96.390, 1187.0, 34.4529
40.170627290, 96.390, 1165.0, 34.1321
40.196887855, 96.390, 1105.0, 33.2415
40.223148421, 96.390, 1129.0, 33.6006
40.249408986, 96.390, 1194.0, 34.5543
40.275669551, 96.390, 1185.0, 34.4238
40.301930117, 96.390, 1239.0, 35.1994
40.328190682, 96.390, 1094.0, 33.0757
40.354451247, 96.390, 1154.0, 33.9706
40.380711813, 96.390, 1126.0, 33.5559
40.406972378, 96.390, 1222.0, 34.9571
40.433232943, 96.390, 1180.0, 34.3511
40.459493509, 96.390, 1148.0, 33.8821
40.485754074, 96.390, 1141.0, 33.7787
40.512014639, 96.390, 1186.0, 34.4384
40.538275205, 96.390, 1217.0, 34.8855
40.564535770, 96.390, 1098.0, 33.1361
40.590796336, 96.390, 1141.0, 33.7787
40.617056901, 96.390, 1091.0, 33.0303
40.643317466, 96.390, 1151.0, 33.9264
40.669578032, 96.390, 1104.0, 33.2265
40.695838597, 96.390, 1164.0, 34.1174
40.722099162, 96.390, 1137.0, 33.7194
40.748359728, 96.390, 1130.0, 33.6155
40.774620293, 96.390, 1093.0, 33.0606
40.800880858, 96.390, 1134.0, 33.6749
40.827141424, 96.390, 1129.0, 33.6006
40.853401989, 96.390, 1143.0, 33.8083
40.879662554, 96.390, 1225.0, 35.0000
40.905923120, 96.390, 1110.0, 33.3167
40.932183685, 96.390, 1143.0, 33.8083
40.958444251, 96.390, 1132.0, 33.6452
40.984704816, 96.390, 1100.0, 33.1662
41.010965381, 96.390, 1125.0, 33.5410
41.037225947, 96.390, 1137.0, 33.7194
41.063486512, 96.390, 1188.0, 34.4674
41.089747077, 96.390, 1078.0, 32.8329
41.116007643, 96.390, 1084.0, 32.9242
41.142268208, 96.390, 1190.0, 34.4964
41.168528773, 96.390, 1097.0, 33.1210
41.194789339, 96.390, 1165.0, 34.1321
41.221049904, 96.390, 1067.0, 32.6650
41.247310469, 96.390, 1131.0, 33.6303
41.273571035, 96.390, 1201.0, 34.6554
41.299831600, 96.390, 1083.0, 32.9090
41.326092165, 96.390, 1161.0, 34.0735
41.352352731, 96.390, 1139.0, 33.7491
41.378613296, 96.390, 1113.0, 33.3617
41.404873862, 96.390, 1091.0, 33.0303
41.431134427, 96.390, 1092.0, 33.0454
41.457394992, 96.390, 1065.0, 32.6343
41.483655558, 96.390, 1132.0, 33.6452
41.509916123, 96.390, 1070.0, 32.7109
41.536176688, 96.390, 1152.0, 33.9411
41.562437254, 96.390, 1101.0, 33.1813
41.588697819, 96.390, 1077.0, 32.8177
41.614958384, 96.390, 1124.0, 33.5261
41.641218950, 96.390, 1119.0, 33.4515
41.667479515, 96.390, 1102.0, 33.1964
41.693740080, 96.390, 1136.0, 33.7046
41.720000646, 96.390, 1148.0, 33.8821
41.746261211, 96.390, 1100.0, 33.1662
41.772521776, 96.390, 1139.0, 33.7491
41.798782342, 96.390, 1131.0, 33.6303
41.825042907, 96.390, 1069.0, 32.6956
41.851303473, 96.390, 1145.0, 33.8378
41.877564038, 96.390, 1139.0, 33.7491
41.903824603, 96.390, 1077.0, 32.8177
41.930085169, 96.390, 1083.0, 32.9090
41.956345734, 96.390, 1034.0, 32.1559
41.982606299, 96.390, 1069.0, 32.6956
42.008866865, 96.390, 1176.0, 34.2929
42.035127430, 96.390, 1150.0, 33.9116
42.061387995, 96.390, 1093.0, 33.0606
42.087648561, 96.390, 1083.0, 32.9090
42.113909126, 96.390, 1092.0, 33.0454
42.140169691, 96.390, 1081.0, 32.8786
42.166430257, 96.390, 1102.0, 33.1964
42.192690822, 96.390, 1145.0, 33.8378
42.218951388, 96.390, 1124.0, 33.5261
42.245211953, 96.390, 1066.0, 32.6497
42.271472518, 96.390, 1047.0, 32.3574
42.297733084, 96.390, 1127.0, 33.5708
42.323993649, 96.390, 1089.0, 33.0000
42.350254214, 96.390, 1033.0, 32.1403
42.376514780, 96.390, 1050.0, 32.4037
42.402775345, 96.390, 1109.0, 33.3017
42.429035910, 96.390, 1059.0, 32.5423
42.455296476, 96.390, 1096.0, 33.1059
42.481557041, 96.390, 1151.0, 33.9264
42.507817606, 96.390, 1061.0, 32.5730
42.534078172, 96.390, 1088.0, 32.9848
42.560338737, 96.390, 1046.0, 32.3419
42.586599302, 96.390, 1066.0, 32.6497
42.612859868, 96.390, 1147.0, 33.8674
42.639120433, 96.390, 1096.0, 33.1059
42.665380999, 96.390, 1119.0, 33.4515
42.691641564, 96.390, 1068.0, 32.6803
42.717902129, 96.390, 1080.0, 32.8634
42.744162695, 96.390, 1026.0, 32.0312
42.770423260, 96.390, 1106.0, 33.2566
42.796683825, 96.390, 1111.0, 33.3317
42.822944391, 96.390, 1043.0, 32.2955
42.849204956, 96.390, 1078.0, 32.8329
42.875465521, 96.390, 1083.0, 32.9090
42.901726087, 96.390, 1061.0, 32.5730
42.927986652, 96.390, 1031.0, 32.1092
42.954247217, 96.390, 1100.0, 33.1662
42.980507783, 96.390, 1072.0, 32.7414
43.006768348, 96.390, 1162.0, 34.0881
43.033028914, 96.390, 1118.0, 33.4365
43.059289479, 96.390, 1045.0, 32.3265
43.085550044, 96.390, 1094.0, 33.0757
43.111810610, 96.390, 1056.0, 32.4962
43.138071175, 96.390, 1024.0, 32.0000
43.164331740, 96.390, 1082.0, 32.8938
43.190592306, 96.390, 1027.0, 32.0468
43.216852871, 96.390, 1067.0, 32.6650
43.243113436, 96.390, 1061.0, 32.5730
43.269374002, 96.390, 1143.0, 33.8083
43.295634567, 96.390, 1085.0, 32.9393
43.321895132, 96.390, 1129.0, 33.6006
43.348155698, 96.390, 1050.0, 32.4037
43.374416263, 96.390, 1069.0, 32.6956
43.400676828, 96.390, 1066.0, 32.6497
43.426937394, 96.390, 1053.0, 32.4500
43.453197959, 96.390, 1107.0, 33.2716
43.479458525, 96.390, 1051.0, 32.4191
43.505719090, 96.390, 1099.0, 33.1512
43.531979655, 96.390, 1121.0, 33.4813
43.558240221, 96.390, 1146.0, 33.8526
43.584500786, 96.390, 1157.0, 34.0147
43.610761351, 96.390, 1031.0, 32.1092
43.637021917, 96.390, 1096.0, 33.1059
43.663282482, 96.390, 1075.0, 32.7872
43.689543047, 96.390, 1067.0, 32.6650
43.715803613, 96.390, 1034.0, 32.1559
43.742064178, 96.390, 1043.0, 32.2955
43.768324743, 96.390, 1079.0, 32.8481
43.794585309, 96.390, 1106.0, 33.2566
43.820845874, 96.390, 1103.0, 33.2114
43.847106440, 96.390, 1042.0, 32.2800
43.873367005, 96.390, 1055.0, 32.4808
43.899627570, 96.390, 1113.0, 33.3617
43.925888136, 96.390, 1059.0, 32.5423
43.952148701, 96.390, 1038.0, 32.2180
43.978409266, 96.390, 998.0, 31.5911
44.004669832, 96.390, 1043.0, 32.2955
44.030930397, 96.390, 1078.0, 32.8329
44.057190962, 96.390, 1188.0, 34.4674
44.083451528, 96.390, 1050.0, 32.4037
44.109712093, 96.390, 991.0, 31.4802
44.135972658, 96.390, 1040.0, 32.2490
44.162233224, 96.390, 1048.0, 32.3728
44.188493789, 96.390, 978.0, 31.2730
44.214754354, 96.390, 1031.0, 32.1092
44.241014920, 96.390, 1014.0, 31.8434
44.267275485, 96.390, 998.0, 31.5911
44.293536051, 96.390, 1073.0, 32.7567
44.319796616, 96.390, 1090.0, 33.0151
44.346057181, 96.390, 996.0, 31.5595
44.372317747, 96.390, 1001.0, 31.6386
44.398578312, 96.390, 1012.0, 31.8119
44.424838877, 96.390, 1016.0, 31.8748
44.451099443, 96.390, 1031.0, 32.1092
44.477360008, 96.390, 1003.0, 31.6702
44.503620573, 96.390, 1022.0, 31.9687
44.529881139, 96.390, 1034.0, 32.1559
44.556141704, 96.390, 1021.0, 31.9531
44.582402269, 96.390, 1004.0, 31.6860
44.608662835, 96.390, 1085.0, 32.9393
44.634923400, 96.390, 967.0, 31.0966
44.661183966, 96.390, 1035.0, 32.1714
44.687444531, 96.390, 1045.0, 32.3265
44.713705096, 96.390, 1033.0, 32.1403
44.739965662, 96.390, 991.0, 31.4802
44.766226227, 96.390, 1015.0, 31.8591
44.792486792, 96.390, 1038.0, 32.2180
44.818747358, 96.390, 997.0, 31.5753
44.845007923, 96.390, 1051.0, 32.4191
44.871268488, 96.390, 993.0, 31.5119
44.897529054, 96.390, 1013.0, 31.8277
44.923789619, 96.390, 1056.0, 32.4962
44.950050184, 96.390, 1033.0, 32.1403
44.976310750, 96.390, 1001.0, 31.6386
45.002571315, 96.390, 996.0, 31.5595
45.028831880, 96.390, 988.0, 31.4325
45.055092446, 96.390, 975.0, 31.2250
45.081353011, 96.390, 1029.0, 32.0780
45.107613577, 96.390, 1026.0, 32.0312
45.133874142, 96.390, 992.0, 31.4960
45.160134707, 96.390, 1029.0, 32.0780
45.186395273, 96.390, 1017.0, 31.8904
45.212655838, 96.390, 1001.0, 31.6386
45.238916403, 96.390, 1017.0, 31.8904
45.265176969, 96.390, 1059.0, 32.5423
45.291437534, 96.390, 1020.0, 31.9374
45.317698099, 96.390, 1018.0, 31.9061
45.343958665, 96.390, 1040.0, 32.2490
45.370219230, 96.390, 998.0, 31.5911
45.396479795, 96.390, 979.0, 31.2890
45.422740361, 96.390, 1000.0, 31.6228
45.449000926, 96.390, 990.0, 31.4643
45.475261492, 96.390, 1032.0, 32.1248
45.501522057, 96.390, 1020.0, 31.9374
45.527782622, 96.390, 1032.0, 32.1248
45.554043188, 96.390, 990.0, 31.4643
45.580303753, 96.390, 1015.0, 31.8591
45.606564318, 96.390, 1040.0, 32.2490
45.632824884, 96.390, 1068.0, 32.6803
45.659085449, 96.390, 978.0, 31.2730
45.685346014, 96.390, 993.0, 31.5119
45.711606580, 96.390, 994.0, 31.5278
45.737867145, 96.390, 1009.0, 31.7648
45.764127710, 96.390, 1061.0, 32.5730
45.790388276, 96.390, 959.0, 30.9677
45.816648841, 96.390, 1083.0, 32.9090
45.842909406, 96.390, 1023.0, 31.9844
45.869169972, 96.390, 953.0, 30.8707
45.895430537, 96.390, 1012.0, 31.8119
45.921691103, 96.390, 976.0, 31.2410
45.947951668, 96.390, 962.0, 31.0161
45.974212233, 96.390, 895.0, 29.9166
46.000472799, 96.390, 983.0, 31.3528
46.026733364, 96.390, 998.0, 31.5911
46.052993929, 96.390, 993.0, 31.5119
46.079254495, 96.390, 1002.0, 31.6544
46.105515060, 96.390, 992.0, 31.4960
46.131775625, 96.390, 995.0, 31.5436
46.158036191, 96.390, 985.0, 31.3847
46.184296756, 96.390, 969.0, 31.1288
46.210557321, 96.390, 972.0, 31.1769
46.236817887, 96.390, 986.0, 31.4006
46.263078452, 96.390, 1000.0, 31.6228
46.289339017, 96.390, 971.0, 31.1609
46.315599583, 96.390, 1001.0, 31.6386
46.341860148, 96.390, 970.0, 31.1448
46.368120714, 96.390, 1053.0, 32.4500
46.394381279, 96.390, 964.0, 31.0483
46.420641844, 96.390, 1039.0, 32.2335
46.446902410, 96.390, 972.0, 31.1769
46.473162975, 96.390, 967.0, 31.0966
46.499423540, 96.390, 945.0, 30.7409
46.525684106, 96.390, 985.0, 31.3847
46.551944671, 96.390, 946.0, 30.7571
46.578205236, 96.390, 1001.0, 31.6386
46.604465802, 96.390, 986.0, 31.4006
46.630726367, 96.390, 976.0, 31.2410
46.656986932, 96.390, 948.0, 30.7896
46.683247498, 96.390, 956.0, 30.9192
46.709508063, 96.390, 955.0, 30.9031
46.735768629, 96.390, 935.0, 30.5778
46.762029194, 96.390, 934.0, 30.5614
46.788289759, 96.390, 929.0, 30.4795
46.814550325, 96.390, 1001.0, 31.6386
46.840810890, 96.390, 1021.0, 31.9531
46.867071455, 96.390, 979.0, 31.2890
46.893332021, 96.390, 955.0, 30.9031
46.919592586, 96.390, 986.0, 31.4006
46.945853151, 96.390, 984.0, 31.3688
46.972113717, 96.390, 951.0, 30.8383
46.998374282, 96.390, 1001.0, 31.6386
47.024634847, 96.390, 1031.0, 32.1092
47.050895413, 96.390, 998.0, 31.5911
47.077155978, 96.390, 981.0, 31.3209
47.103416543, 96.390, 913.0, 30.2159
47.129677109, 96.390, 964.0, 31.0483
47.155937674, 96.390, 974.0, 31.2090
47.182198240, 96.390, 936.0, 30.5941
47.208458805, 96.390, 963.0, 31.0322
47.234719370, 96.390, 994.0, 31.5278
47.260979936, 96.390, 946.0, 30.7571
47.287240501, 96.390, 936.0, 30.5941
47.313501066, 96.390, 954.0, 30.8869
47.339761632, 96.390, 967.0, 31.0966
47.366022197, 96.390, 1000.0, 31.6228
47.392282762, 96.390, 930.0, 30.4959
47.418543328, 96.390, 968.0, 31.1127
47.444803893, 96.390, 990.0, 31.4643
47.471064458, 96.390, 989.0, 31.4484
47.497325024, 96.390, 900.0, 30.0000
47.523585589, 96.390, 954.0, 30.8869
47.549846155, 96.390, 929.0, 30.4795
47.576106720, 96.390, 968.0, 31.1127
47.602367285, 96.390, 924.0, 30.3974
47.628627851, 96.390, 964.0, 31.0483
47.654888416, 96.390, 962.0, 31.0161
47.681148981, 96.390, 950.0, 30.8221
47.707409547, 96.390, 961.0, 31.0000
47.733670112, 96.390, 954.0, 30.8869
47.759930677, 96.390, 964.0, 31.0483
47.786191243, 96.390, 909.0, 30.1496
47.812451808, 96.390, 958.0, 30.9516
47.838712373, 96.390, 964.0, 31.0483
47.864972939, 96.390, 979.0, 31.2890
47.891233504, 96.390, 996.0, 31.5595
47.917494069, 96.390, 975.0, 31.2250
47.943754635, 96.390, 938.0, 30.6268
47.970015200, 96.390, 904.0, 30.0666
47.996275766, 96.390, 897.0, 29.9500
48.022536331, 96.390, 917.0, 30.2820
48.048796896, 96.390, 902.0, 30.0333
48.075057462, 96.390, 973.0, 31.1929
48.101318027, 96.390, 947.0, 30.7734
48.127578592, 96.390, 912.0, 30.1993
48.153839158, 96.390, 955.0, 30.9031
48.180099723, 96.390, 951.0, 30.8383
48.206360288, 96.390, 976.0, 31.2410
48.232620854, 96.390, 917.0, 30.2820
48.258881419, 96.390, 918.0, 30.2985
48.285141984, 96.390, 958.0, 30.9516
48.311402550, 96.390, 921.0, 30.3480
48.337663115, 96.390, 957.0, 30.9354
48.363923681, 96.390, 883.0, 29.7153
48.390184246, 96.390, 894.0, 29.8998
48.416444811, 96.390, 979.0, 31.2890
48.442705377, 96.390, 876.0, 29.5973
48.468965942, 96.390, 966.0, 31.0805
48.495226507, 96.390, 831.0, 28.8271
48.521487073, 96.390, 950.0, 30.8221
48.547747638, 96.390, 966.0, 31.0805
48.574008203, 96.390, 907.0, 30.1164
48.600268769, 96.390, 958.0, 30.9516
48.626529334, 96.390, 924.0, 30.3974
48.652789899, 96.390, 910.0, 30.1662
48.679050465, 96.390, 905.0, 30.0832
48.705311030, 96.390, 902.0, 30.0333
48.731571595, 96.390, 878.0, 29.6311
48.757832161, 96.390, 958.0, 30.9516
48.784092726, 96.390, 971.0, 31.1609
48.810353292, 96.390, 957.0, 30.9354
48.836613857, 96.390, 947.0, 30.7734
48.862874422, 96.390, 929.0, 30.4795
48.889134988, 96.390, 863.0, 29.3769
48.915395553, 96.390, 886.0, 29.7658
48.941656118, 96.390, 957.0, 30.9354
48.967916684, 96.390, 922.0, 30.3645
48.994177249, 96.390, 960.0, 30.9839
49.020437814, 96.390, 896.0, 29.9333
49.046698380, 96.390, 910.0, 30.1662
49.072958945, 96.390, 898.0, 29.9666
49.099219510, 96.390, 952.0, 30.8545
49.125480076, 96.390, 944.0, 30.7246
49.151740641, 96.390, 947.0, 30.7734
49.178001207, 96.390, 882.0, 29.6985
49.204261772, 96.390, 859.0, 29.3087
49.230522337, 96.390, 850.0, 29.1548
49.256782903, 96.390, 911.0, 30.1828
49.283043468, 96.390, 851.0, 29.1719
49.309304033, 96.390, 887.0, 29.7825
49.335564599, 96.390, 900.0, 30.0000
49.361825164, 96.390, 891.0, 29.8496
49.388085729, 96.390, 932.0, 30.5287
49.414346295, 96.390, 863.0, 29.3769
49.440606860, 96.390, 935.0, 30.5778
49.466867425, 96.390, 883.0, 29.7153
49.493127991, 96.390, 918.0, 30.2985
49.519388556, 96.390, 960.0, 30.9839
49.545649121, 96.390, 962.0, 31.0161
49.571909687, 96.390, 926.0, 30.4302
49.598170252, 96.390, 886.0, 29.7658
49.624430818, 96.390, 908.0, 30.1330
49.650691383, 96.390, 895.0, 29.9166
49.676951948, 96.390, 906.0, 30.0998
49.703212514, 96.390, 884.0, 29.7321
49.729473079, 96.390, 925.0, 30.4138
49.755733644, 96.390, 935.0, 30.5778
49.781994210, 96.390, 939.0, 30.6431
49.808254775, 96.390, 876.0, 29.5973
49.834515340, 96.390, 933.0, 30.5450
49.860775906, 96.390, 892.0, 29.8664
49.887036471, 96.390, 882.0, 29.6985
49.913297036, 96.390, 947.0, 30.7734
49.939557602, 96.390, 880.0, 29.6648
49.965818167, 96.390, 853.0, 29.2062
49.992078732, 96.390, 857.0, 29.2746
50.018339298, 96.390, 894.0, 29.8998
50.044599863, 96.390, 859.0, 29.3087
50.070860429, 96.390, 911.0, 30.1828
50.097120994, 96.390, 858.0, 29.2916
50.123381559, 96.390, 924.0, 30.3974
50.149642125, 96.390, 887.0, 29.7825
50.175902690, 96.390, 894.0, 29.8998
50.202163255, 96.390, 903.0, 30.0500
50.228423821, 96.390, 926.0, 30.4302
50.254684386, 96.390, 941.0, 30.6757
50.280944951, 96.390, 897.0, 29.9500
50.307205517, 96.390, 932.0, 30.5287
50.333466082, 96.390, 896.0, 29.9333
50.359726647, 96.390, 887.0, 29.7825
50.385987213, 96.390, 912.0, 30.1993
50.412247778, 96.390, 960.0, 30.9839
50.438508344, 96.390, 880.0, 29.6648
50.464768909, 96.390, 881.0, 29.6816
50.491029474, 96.390, 869.0, 29.4788
50.517290040, 96.390, 927.0, 30.4467
50.543550605, 96.390, 892.0, 29.8664
50.569811170, 96.390, 924.0, 30.3974
50.596071736, 96.390, 882.0, 29.6985
50.622332301, 96.390, 878.0, 29.6311
50.648592866, 96.390, 869.0, 29.4788
50.674853432, 96.390, 897.0, 29.9500
50.701113997, 96.390, 869.0, 29.4788
50.727374562, 96.390, 892.0, 29.8664
50.753635128, 96.390, 933.0, 30.5450
50.779895693, 96.390, 857.0, 29.2746
50.806156258, 96.390, 937.0, 30.6105
50.832416824, 96.390, 884.0, 29.7321
50.858677389, 96.390, 860.0, 29.3258
50.884937955, 96.390, 899.0, 29.9833
50.911198520, 96.390, 895.0, 29.9166
50.937459085, 96.390, 903.0, 30.0500
50.963719651, 96.390, 951.0, 30.8383
50.989980216, 96.390, 884.0, 29.7321
51.016240781, 96.390, 929.0, 30.4795
51.042501347, 96.390, 883.0, 29.7153
51.068761912, 96.390, 887.0, 29.7825
51.095022477, 96.390, 861.0, 29.3428
51.121283043, 96.390, 840.0, 28.9828
51.147543608, 96.390, 855.0, 29.2404
51.173804173, 96.390, 899.0, 29.9833
51.200064739, 96.390, 872.0, 29.5296
51.226325304, 96.390, 878.0, 29.6311
51.252585870, 96.390, 865.0, 29.4109
51.278846435, 96.390, 862.0, 29.3598
51.305107000, 96.390, 920.0, 30.3315
51.331367566, 96.390, 824.0, 28.7054
51.357628131, 96.390, 886.0, 29.7658
51.383888696, 96.390, 900.0, 30.0000
51.410149262, 96.390, 827.0, 28.7576
51.436409827, 96.390, 844.0, 29.0517
51.462670392, 96.390, 868.0, 29.4618
51.488930958, 96.390, 892.0, 29.8664
51.515191523, 96.390, 847.0, 29.1033
51.541452088, 96.390, 876.0, 29.5973
51.567712654, 96.390, 909.0, 30.1496
51.593973219, 96.390, 915.0, 30.2490
51.620233784, 96.390, 859.0, 29.3087
51.646494350, 96.390, 880.0, 29.6648
51.672754915, 96.390, 897.0, 29.9500
51.699015481, 96.390, 916.0, 30.2655
51.725276046, 96.390, 864.0, 29.3939
51.751536611, 96.390, 924.0, 30.3974
51.777797177, 96.390, 861.0, 29.3428
51.804057742, 96.390, 849.0, 29.1376
51.830318307, 96.390, 854.0, 29.2233
51.856578873, 96.390, 855.0, 29.2404
51.882839438, 96.390, 875.0, 29.5804
51.909100003, 96.390, 914.0, 30.2324
51.935360569, 96.390, 839.0, 28.9655
51.961621134, 96.390, 882.0, 29.6985
51.987881699, 96.390, 904.0, 30.0666
52.014142265, 96.390, 886.0, 29.7658
52.040402830, 96.390, 827.0, 28.7576
52.066663396, 96.390, 925.0, 30.4138
52.092923961, 96.390, 849.0, 29.1376
52.119184526, 96.390, 917.0, 30.2820
52.145445092, 96.390, 867.0, 29.4449
52.171705657, 96.390, 925.0, 30.4138
52.197966222, 96.390, 867.0, 29.4449
52.224226788, 96.390, 845.0, 29.0689
52.250487353, 96.390, 893.0, 29.8831
52.276747918, 96.390, 897.0, 29.9500
52.303008484, 96.390, 899.0, 29.9833
52.329269049, 96.390, 876.0, 29.5973
52.355529614, 96.390, 901.0, 30.0167
52.381790180, 96.390, 870.0, 29.4958
52.408050745, 96.390, 860.0, 29.3258
52.434311310, 96.390, 900.0, 30.0000
52.460571876, 96.390, 850.0, 29.1548
52.486832441, 96.390, 872.0, 29.5296
52.513093007, 96.390, 883.0, 29.7153
52.539353572, 96.390, 844.0, 29.0517
52.565614137, 96.390, 876.0, 29.5973
52.591874703, 96.390, 847.0, 29.1033
52.618135268, 96.390, 858.0, 29.2916
52.644395833, 96.390, 860.0, 29.3258
52.670656399, 96.390, 895.0, 29.9166
52.696916964, 96.390, 848.0, 29.1204
52.723177529, 96.390, 877.0, 29.6142
52.749438095, 96.390, 906.0, 30.0998
52.775698660, 96.390, 874.0, 29.5635
52.801959225, 96.390, 851.0, 29.1719
52.828219791, 96.390, 871.0, 29.5127
52.854480356, 96.390, 892.0, 29.8664
52.880740922, 96.390, 882.0, 29.6985
52.907001487, 96.390, 875.0, 29.5804
52.933262052, 96.390, 914.0, 30.2324
52.959522618, 96.390, 837.0, 28.9310
52.985783183, 96.390, 870.0, 29.4958
53.012043748, 96.390, 861.0, 29.3428
53.038304314, 96.390, 888.0, 29.7993
53.064564879, 96.390, 838.0, 28.9482
53.090825444, 96.390, 884.0, 29.7321
53.117086010, 96.390, 846.0, 29.0861
53.143346575, 96.390, 834.0, 28.8791
53.169607140, 96.390, 908.0, 30.1330
53.195867706, 96.390, 867.0, 29.4449
53.222128271, 96.390, 835.0, 28.8964
53.248388836, 96.390, 906.0, 30.0998
53.274649402, 96.390, 937.0, 30.6105
53.300909967, 96.390, 852.0, 29.1890
53.327170533, 96.390, 849.0, 29.1376
53.353431098, 96.390, 864.0, 29.3939
53.379691663, 96.390, 843.0, 29.0345
53.405952229, 96.390, 829.0, 28.7924
53.432212794, 96.390, 882.0, 29.6985
53.458473359, 96.390, 861.0, 29.3428
53.484733925, 96.390, 835.0, 28.8964
53.510994490, 96.390, 812.0, 28.4956
53.537255055, 96.390, 829.0, 28.7924
53.563515621, 96.390, 867.0, 29.4449
53.589776186, 96.390, 858.0, 29.2916
53.616036751, 96.390, 822.0, 28.6705
53.642297317, 96.390, 824.0, 28.7054
53.668557882, 96.390, 827.0, 28.7576
53.694818448, 96.390, 860.0, 29.3258
53.721079013, 96.390, 896.0, 29.9333
53.747339578, 96.390, 929.0, 30.4795
53.773600144, 96.390, 893.0, 29.8831
53.799860709, 96.390, 929.0, 30.4795
53.826121274, 96.390, 838.0, 28.9482
53.852381840, 96.390, 830.0, 28.8097
53.878642405, 96.390, 844.0, 29.0517
53.904902970, 96.390, 858.0, 29.2916
53.931163536, 96.390, 835.0, 28.8964
53.957424101, 96.390, 842.0, 29.0172
53.983684666, 96.390, 863.0, 29.3769
54.009945232, 96.390, 864.0, 29.3939
54.036205797, 96.390, 869.0, 29.4788
54.062466362, 96.390, 861.0, 29.3428
54.088726928, 96.390, 828.0, 28.7750
54.114987493, 96.390, 872.0, 29.5296
54.141248059, 96.390, 904.0, 30.0666
54.167508624, 96.390, 830.0, 28.8097
54.193769189, 96.390, 862.0, 29.3598
54.220029755, 96.390, 810.0, 28.4605
54.246290320, 96.390, 847.0, 29.1033
54.272550885, 96.390, 874.0, 29.5635
54.298811451, 96.390, 903.0, 30.0500
54.325072016, 96.390, 833.0, 28.8617
54.351332581, 96.390, 856.0, 29.2575
54.377593147, 96.390, 900.0, 30.0000
54.403853712, 96.390, 892.0, 29.8664
54.430114277, 96.390, 876.0, 29.5973
54.456374843, 96.390, 824.0, 28.7054
54.482635408, 96.390, 844.0, 29.0517
54.508895973, 96.390, 903.0, 30.0500
54.535156539, 96.390, 825.0, 28.7228
54.561417104, 96.390, 862.0, 29.3598
54.587677670, 96.390, 874.0, 29.5635
54.613938235, 96.390, 888.0, 29.7993
54.640198800, 96.390, 860.0, 29.3258
54.666459366, 96.390, 858.0, 29.2916
54.692719931, 96.390, 831.0, 28.8271
54.718980496, 96.390, 874.0, 29.5635
54.745241062, 96.390, 862.0, 29.3598
54.771501627, 96.390, 901.0, 30.0167
54.797762192, 96.390, 875.0, 29.5804
54.824022758, 96.390, 881.0, 29.6816
54.850283323, 96.390, 878.0, 29.6311
54.876543888, 96.390, 915.0, 30.2490
54.902804454, 96.390, 825.0, 28.7228
54.929065019, 96.390, 828.0, 28.7750
54.955325585, 96.390, 862.0, 29.3598
54.981586150, 96.390, 833.0, 28.8617
55.007846715, 96.390, 891.0, 29.8496
55.034107281, 96.390, 838.0, 28.9482
55.060367846, 96.390, 826.0, 28.7402
55.086628411, 96.390, 913.0, 30.2159
55.112888977, 96.390, 861.0, 29.3428
55.139149542, 96.390, 815.0, 28.5482
55.165410107, 96.390, 822.0, 28.6705
55.191670673, 96.390, 796.0, 28.2135
55.217931238, 96.390, 901.0, 30.0167
55.244191803, 96.390, 867.0, 29.4449
55.270452369, 96.390, 902.0, 30.0333
55.296712934, 96.390, 878.0, 29.6311
55.322973499, 96.390, 870.0, 29.4958
55.349234065, 96.390, 887.0, 29.7825
55.375494630, 96.390, 887.0, 29.7825
55.401755196, 96.390, 835.0, 28.8964
55.428015761, 96.390, 844.0, 29.0517
55.454276326, 96.390, 878.0, 29.6311
55.480536892, 96.390, 821.0, 28.6531
55.506797457, 96.390, 911.0, 30.1828
55.533058022, 96.390, 886.0, 29.7658
55.559318588, 96.390, 830.0, 28.8097
55.585579153, 96.390, 827.0, 28.7576
55.611839718, 96.390, 856.0, 29.2575
55.638100284, 96.390, 909.0, 30.1496
55.664360849, 96.390, 860.0, 29.3258
55.690621414, 96.390, 880.0, 29.6648
55.716881980, 96.390, 846.0, 29.0861
55.743142545, 96.390, 841.0, 29.0000
55.769403111, 96.390, 870.0, 29.4958
55.795663676, 96.390, 859.0, 29.3087
55.821924241, 96.390, 786.0, 28.0357
55.848184807, 96.390, 849.0, 29.1376
55.874445372, 96.390, 845.0, 29.0689
55.900705937, 96.390, 903.0, 30.0500
55.926966503, 96.390, 868.0, 29.4618
55.953227068, 96.390, 887.0, 29.7825
55.979487633, 96.390, 850.0, 29.1548
56.005748199, 96.390, 794.0, 28.1780
56.032008764, 96.390, 814.0, 28.5307
56.058269329, 96.390, 920.0, 30.3315
56.084529895, 96.390, 871.0, 29.5127
56.110790460, 96.390, 846.0, 29.0861
56.137051025, 96.390, 833.0, 28.8617
56.163311591, 96.390, 872.0, 29.5296
56.189572156, 96.390, 815.0, 28.5482
56.215832722, 96.390, 836.0, 28.9137
56.242093287, 96.390, 881.0, 29.6816
56.268353852, 96.390, 902.0, 30.0333
56.294614418, 96.390, 855.0, 29.2404
56.320874983, 96.390, 866.0, 29.4279
56.347135548, 96.390, 893.0, 29.8831
56.373396114, 96.390, 851.0, 29.1719
56.399656679, 96.390, 893.0, 29.8831
56.425917244, 96.390, 811.0, 28.4781
56.452177810, 96.390, 854.0, 29.2233
56.478438375, 96.390, 858.0, 29.2916
56.504698940, 96.390, 827.0, 28.7576
56.530959506, 96.390, 869.0, 29.4788
56.557220071, 96.390, 858.0, 29.2916
56.583480637, 96.390, 852.0, 29.1890
56.609741202, 96.390, 877.0, 29.6142
56.636001767, 96.390, 845.0, 29.0689
56.662262333, 96.390, 847.0, 29.1033
56.688522898, 96.390, 886.0, 29.7658
56.714783463, 96.390, 909.0, 30.1496
56.741044029, 96.390, 943.0, 30.7083
56.767304594, 96.390, 908.0, 30.1330
56.793565159, 96.390, 894.0, 29.8998
56.819825725, 96.390, 865.0, 29.4109
56.846086290, 96.390, 894.0, 29.8998
56.872346855, 96.390, 867.0, 29.4449
56.898607421, 96.390, 856.0, 29.2575
56.924867986, 96.390, 868.0, 29.4618
56.951128551, 96.390, 898.0, 29.9666
56.977389117, 96.390, 877.0, 29.6142
57.003649682, 96.390, 868.0, 29.4618
57.029910248, 96.390, 843.0, 29.0345
57.056170813, 96.390, 887.0, 29.7825
57.082431378, 96.390, 846.0, 29.0861
57.108691944, 96.390, 822.0, 28.6705
57.134952509, 96.390, 816.0, 28.5657
57.161213074, 96.390, 856.0, 29.2575
57.187473640, 96.390, 876.0, 29.5973
57.213734205, 96.390, 869.0, 29.4788
57.239994770, 96.390, 853.0, 29.2062
57.266255336, 96.390, 900.0, 30.0000
57.292515901, 96.390, 901.0, 30.0167
57.318776466, 96.390, 903.0, 30.0500
57.345037032, 96.390, 863.0, 29.3769
57.371297597, 96.390, 889.0, 29.8161
57.397558163, 96.390, 905.0, 30.0832
57.423818728, 96.390, 899.0, 29.9833
57.450079293, 96.390, 832.0, 28.8444
57.476339859, 96.390, 853.0, 29.2062
57.502600424, 96.390, 834.0, 28.8791
57.528860989, 96.390, 886.0, 29.7658
57.555121555, 96.390, 873.0, 29.5466
57.581382120, 96.390, 830.0, 28.8097
57.607642685, 96.390, 868.0, 29.4618
57.633903251, 96.390, 862.0, 29.3598
57.660163816, 96.390, 926.0, 30.4302
57.686424381, 96.390, 885.0, 29.7489
57.712684947, 96.390, 891.0, 29.8496
57.738945512, 96.390, 873.0, 29.5466
57.765206077, 96.390, 850.0, 29.1548
57.791466643, 96.390, 864.0, 29.3939
57.817727208, 96.390, 887.0, 29.7825
57.843987774, 96.390, 837.0, 28.9310
57.870248339, 96.390, 866.0, 29.4279
57.896508904, 96.390, 899.0, 29.9833
57.922769470, 96.390, 841.0, 29.0000
57.949030035, 96.390, 877.0, 29.6142
57.975290600, 96.390, 888.0, 29.7993
58.001551166, 96.390, 889.0, 29.8161
58.027811731, 96.390, 824.0, 28.7054
58.054072296, 96.390, 928.0, 30.4631
58.080332862, 96.390, 856.0, 29.2575
58.106593427, 96.390, 909.0, 30.1496
58.132853992, 96.390, 825.0, 28.7228
58.159114558, 96.390, 858.0, 29.2916
58.185375123, 96.390, 908.0, 30.1330
58.211635689, 96.390, 876.0, 29.5973
58.237896254, 96.390, 794.0, 28.1780
58.264156819, 96.390, 855.0, 29.2404
58.290417385, 96.390, 873.0, 29.5466
58.316677950, 96.390, 875.0, 29.5804
58.342938515, 96.390, 867.0, 29.4449
58.369199081, 96.390, 909.0, 30.1496
58.395459646, 96.390, 874.0, 29.5635
58.421720211, 96.390, 886.0, 29.7658
58.447980777, 96.390, 902.0, 30.0333
58.474241342, 96.390, 867.0, 29.4449
58.500501907, 96.390, 828.0, 28.7750
58.526762473, 96.390, 878.0, 29.6311
58.553023038, 96.390, 863.0, 29.3769
58.579283603, 96.390, 879.0, 29.6479
58.605544169, 96.390, 891.0, 29.8496
58.631804734, 96.390, 871.0, 29.5127
58.658065300, 96.390, 919.0, 30.3150
58.684325865, 96.390, 878.0, 29.6311
58.710586430, 96.390, 825.0, 28.7228
58.736846996, 96.390, 856.0, 29.2575
58.763107561, 96.390, 870.0, 29.4958
58.789368126, 96.390, 877.0, 29.6142
58.815628692, 96.390, 830.0, 28.8097
58.841889257, 96.390, 911.0, 30.1828
58.868149822, 96.390, 903.0, 30.0500
58.894410388, 96.390, 856.0, 29.2575
58.920670953, 96.390, 872.0, 29.5296
58.946931518, 96.390, 889.0, 29.8161
58.973192084, 96.390, 879.0, 29.6479
58.999452649, 96.390, 875.0, 29.5804
59.025713214, 96.390, 857.0, 29.2746
59.051973780, 96.390, 885.0, 29.7489
59.078234345, 96.390, 877.0, 29.6142
59.104494911, 96.390, 882.0, 29.6985
59.130755476, 96.390, 842.0, 29.0172
59.157016041, 96.390, 840.0, 28.9828
59.183276607, 96.390, 852.0, 29.1890
59.209537172, 96.390, 819.0, 28.6182
59.235797737, 96.390, 847.0, 29.1033
59.262058303, 96.390, 877.0, 29.6142
59.288318868, 96.390, 836.0, 28.9137
59.314579433, 96.390, 848.0, 29.1204
59.340839999, 96.390, 890.0, 29.8329
59.367100564, 96.390, 852.0, 29.1890
59.393361129, 96.390, 888.0, 29.7993
59.419621695, 96.390, 899.0, 29.9833
59.445882260, 96.390, 844.0, 29.0517
59.472142826, 96.390, 868.0, 29.4618
59.498403391, 96.390, 848.0, 29.1204
59.524663956, 96.390, 830.0, 28.8097
59.550924522, 96.390, 910.0, 30.1662
59.577185087, 96.390, 924.0, 30.3974
59.603445652, 96.390, 862.0, 29.3598
59.629706218, 96.390, 943.0, 30.7083
59.655966783, 96.390, 855.0, 29.2404
59.682227348, 96.390, 865.0, 29.4109
59.708487914, 96.390, 891.0, 29.8496
59.734748479, 96.390, 858.0, 29.2916
59.761009044, 96.390, 848.0, 29.1204
59.787269610, 96.390, 855.0, 29.2404
59.813530175, 96.390, 880.0, 29.6648
59.839790740, 96.390, 855.0, 29.2404
59.866051306, 96.390, 910.0, 30.1662
59.892311871, 96.390, 900.0, 30.0000
59.918572437, 96.390, 886.0, 29.7658
59.944833002, 96.390, 854.0, 29.2233
59.971093567, 96.390, 870.0, 29.4958
59.997354133, 96.390, 865.0, 29.4109
60.023614698, 96.390, 865.0, 29.4109
60.049875263, 96.390, 856.0, 29.2575
60.076135829, 96.390, 893.0, 29.8831
60.102396394, 96.390, 915.0, 30.2490
60.128656959, 96.390, 844.0, 29.0517
60.154917525, 96.390, 871.0, 29.5127
60.181178090, 96.390, 839.0, 28.9655
60.207438655, 96.390, 876.0, 29.5973
60.233699221, 96.390, 889.0, 29.8161
60.259959786, 96.390, 913.0, 30.2159
60.286220352, 96.390, 877.0, 29.6142
60.312480917, 96.390, 873.0, 29.5466
60.338741482, 96.390, 929.0, 30.4795
60.365002048, 96.390, 877.0, 29.6142
60.391262613, 96.390, 844.0, 29.0517
60.417523178, 96.390, 850.0, 29.1548
60.443783744, 96.390, 916.0, 30.2655
60.470044309, 96.390, 892.0, 29.8664
60.496304874, 96.390, 920.0, 30.3315
60.522565440, 96.390, 896.0, 29.9333
60.548826005, 96.390, 889.0, 29.8161
60.575086570, 96.390, 896.0, 29.9333
60.601347136, 96.390, 907.0, 30.1164
60.627607701, 96.390, 912.0, 30.1993
60.653868266, 96.390, 877.0, 29.6142
60.680128832, 96.390, 915.0, 30.2490
60.706389397, 96.390, 899.0, 29.9833
60.732649963, 96.390, 876.0, 29.5973
60.758910528, 96.390, 885.0, 29.7489
60.785171093, 96.390, 876.0, 29.5973
60.811431659, 96.390, 842.0, 29.0172
60.837692224, 96.390, 911.0, 30.1828
60.863952789, 96.390, 871.0, 29.5127
60.890213355, 96.390, 839.0, 28.9655
60.916473920, 96.390, 836.0, 28.9137
60.942734485, 96.390, 846.0, 29.0861
60.968995051, 96.390, 852.0, 29.1890
60.995255616, 96.390, 951.0, 30.8383
61.021516181, 96.390, 899.0, 29.9833
61.047776747, 96.390, 868.0, 29.4618
61.074037312, 96.390, 857.0, 29.2746
61.100297878, 96.390, 918.0, 30.2985
61.126558443, 96.390, 895.0, 29.9166
61.152819008, 96.390, 907.0, 30.1164
61.179079574, 96.390, 830.0, 28.8097
61.205340139, 96.390, 891.0, 29.8496
61.231600704, 96.390, 865.0, 29.4109
61.257861270, 96.390, 864.0, 29.3939
61.284121835, 96.390, 855.0, 29.2404
61.310382400, 96.390, 951.0, 30.8383
61.336642966, 96.390, 866.0, 29.4279
61.362903531, 96.390, 888.0, 29.7993
61.389164096, 96.390, 936.0, 30.5941
61.415424662, 96.390, 881.0, 29.6816
61.441685227, 96.390, 886.0, 29.7658
61.467945792, 96.390, 870.0, 29.4958
61.494206358, 96.390, 853.0, 29.2062
61.520466923, 96.390, 871.0, 29.5127
61.546727489, 96.390, 861.0, 29.3428
61.572988054, 96.390, 901.0, 30.0167
61.599248619, 96.390, 894.0, 29.8998
61.625509185, 96.390, 869.0, 29.4788
61.651769750, 96.390, 823.0, 28.6880
61.678030315, 96.390, 881.0, 29.6816
61.704290881, 96.390, 924.0, 30.3974
61.730551446, 96.390, 925.0, 30.4138
61.756812011, 96.390, 868.0, 29.4618
61.783072577, 96.390, 912.0, 30.1993
61.809333142, 96.390, 907.0, 30.1164
61.835593707, 96.390, 882.0, 29.6985
61.861854273, 96.390, 915.0, 30.2490
61.888114838, 96.390, 841.0, 29.0000
61.914375404, 96.390, 906.0, 30.0998
61.940635969, 96.390, 900.0, 30.0000
61.966896534, 96.390, 892.0, 29.8664
61.993157100, 96.390, 918.0, 30.2985
62.019417665, 96.390, 919.0, 30.3150
62.045678230, 96.390, 897.0, 29.9500
62.071938796, 96.390, 864.0, 29.3939
62.098199361, 96.390, 877.0, 29.6142
62.124459926, 96.390, 826.0, 28.7402
62.150720492, 96.390, 882.0, 29.6985
62.176981057, 96.390, 852.0, 29.1890
62.203241622, 96.390, 864.0, 29.3939
62.229502188, 96.390, 837.0, 28.9310
62.255762753, 96.390, 895.0, 29.9166
62.282023318, 96.390, 893.0, 29.8831
62.308283884, 96.390, 873.0, 29.5466
62.334544449, 96.390, 942.0, 30.6920
62.360805015, 96.390, 885.0, 29.7489
62.387065580, 96.390, 872.0, 29.5296
62.413326145, 96.390, 847.0, 29.1033
62.439586711, 96.390, 913.0, 30.2159
62.465847276, 96.390, 880.0, 29.6648
62.492107841, 96.390, 803.0, 28.3373
62.518368407, 96.390, 962.0, 31.0161
62.544628972, 96.390, 919.0, 30.3150
62.570889537, 96.390, 875.0, 29.5804
62.597150103, 96.390, 852.0, 29.1890
62.623410668, 96.390, 913.0, 30.2159
62.649671233, 96.390, 928.0, 30.4631
62.675931799, 96.390, 872.0, 29.5296
62.702192364, 96.390, 916.0, 30.2655
62.728452930, 96.390, 897.0, 29.9500
62.754713495, 96.390, 882.0, 29.6985
62.780974060, 96.390, 889.0, 29.8161
62.807234626, 96.390, 811.0, 28.4781
62.833495191, 96.390, 908.0, 30.1330
62.859755756, 96.390, 899.0, 29.9833
62.886016322, 96.390, 836.0, 28.9137
62.912276887, 96.390, 872.0, 29.5296
62.938537452, 96.390, 917.0, 30.2820
62.964798018, 96.390, 832.0, 28.8444
62.991058583, 96.390, 861.0, 29.3428
63.017319148, 96.390, 883.0, 29.7153
63.043579714, 96.390, 860.0, 29.3258
63.069840279, 96.390, 886.0, 29.7658
63.096100844, 96.390, 879.0, 29.6479
63.122361410, 96.390, 887.0, 29.7825
63.148621975, 96.390, 895.0, 29.9166
63.174882541, 96.390, 849.0, 29.1376
63.201143106, 96.390, 861.0, 29.3428
63.227403671, 96.390, 872.0, 29.5296
63.253664237, 96.390, 883.0, 29.7153
63.279924802, 96.390, 870.0, 29.4958
63.306185367, 96.390, 926.0, 30.4302
63.332445933, 96.390, 902.0, 30.0333
63.358706498, 96.390, 849.0, 29.1376
63.384967063, 96.390, 808.0, 28.4253
63.411227629, 96.390, 840.0, 28.9828
63.437488194, 96.390, 900.0, 30.0000
63.463748759, 96.390, 856.0, 29.2575
63.490009325, 96.390, 874.0, 29.5635
63.516269890, 96.390, 905.0, 30.0832
63.542530455, 96.390, 894.0, 29.8998
63.568791021, 96.390, 887.0, 29.7825
63.595051586, 96.390, 877.0, 29.6142
63.621312152, 96.390, 866.0, 29.4279
63.647572717, 96.390, 860.0, 29.3258
63.673833282, 96.390, 927.0, 30.4467
63.700093848, 96.390, 849.0, 29.1376
63.726354413, 96.390, 874.0, 29.5635
63.752614978, 96.390, 895.0, 29.9166
63.778875544, 96.390, 850.0, 29.1548
63.805136109, 96.390, 866.0, 29.4279
63.831396674, 96.390, 919.0, 30.3150
63.857657240, 96.390, 924.0, 30.3974
63.883917805, 96.390, 837.0, 28.9310
63.910178370, 96.390, 902.0, 30.0333
63.936438936, 96.390, 876.0, 29.5973
63.962699501, 96.390, 897.0, 29.9500
63.988960067, 96.390, 872.0, 29.5296
64.015220632, 96.390, 911.0, 30.1828
64.041481197, 96.390, 858.0, 29.2916
64.067741763, 96.390, 919.0, 30.3150
64.094002328, 96.390, 816.0, 28.5657
64.120262893, 96.390, 889.0, 29.8161
64.146523459, 96.390, 888.0, 29.7993
64.172784024, 96.390, 883.0, 29.7153
64.199044589, 96.390, 878.0, 29.6311
64.225305155, 96.390, 939.0, 30.6431
64.251565720, 96.390, 866.0, 29.4279
64.277826285, 96.390, 853.0, 29.2062
64.304086851, 96.390, 869.0, 29.4788
64.330347416, 96.390, 928.0, 30.4631
64.356607981, 96.390, 862.0, 29.3598
64.382868547, 96.390, 872.0, 29.5296
64.409129112, 96.390, 882.0, 29.6985
64.435389678, 96.390, 888.0, 29.7993
64.461650243, 96.390, 885.0, 29.7489
64.487910808, 96.390, 908.0, 30.1330
64.514171374, 96.390, 888.0, 29.7993
64.540431939, 96.390, 907.0, 30.1164
64.566692504, 96.390, 884.0, 29.7321
64.592953070, 96.390, 882.0, 29.6985
64.619213635, 96.390, 898.0, 29.9666
64.645474200, 96.390, 863.0, 29.3769
64.671734766, 96.390, 925.0, 30.4138
64.697995331, 96.390, 839.0, 28.9655
64.724255896, 96.390, 865.0, 29.4109
64.750516462, 96.390, 825.0, 28.7228
64.776777027, 96.390, 836.0, 28.9137
64.803037593, 96.390, 894.0, 29.8998
64.829298158, 96.390, 821.0, 28.6531
64.855558723, 96.390, 846.0, 29.0861
64.881819289, 96.390, 840.0, 28.9828
64.908079854, 96.390, 872.0, 29.5296
64.934340419, 96.390, 814.0, 28.5307
64.960600985, 96.390, 883.0, 29.7153
64.986861550, 96.390, 847.0, 29.1033
