[Measurement conditions]
Sample identification,MNASPH_PcornerPC10nov21
Comment - 1,"Configuration=Stage for Flat Samples/Holders, Owner=User-1, Creation date=7/1/2020 9:53:24 AM"
Comment - 2,"Goniometer=Theta/Theta; Minimum step size 2Theta:0.0001; Minimum step size Omega:0.0001"
Comment - 3,"Sample stage=Stage for flat samples/holders"
Comment - 4,"Diffractometer system=EMPYREAN"
Comment - 5,"Measurement program=C:\Users\ibo5034\OneDrive - The Pennsylvania State University\NEUP\Zerobackground scan.xrdmp, Identifier={98A3B11C-88F9-4AA6-982C-73314A311EF5}"
Anode material,Cu
K-Alpha1 wavelength,1.5405980
K-Alpha2 wavelength,1.5444260
Ratio K-Alpha2/K-Alpha1,0.500
Divergence slit,Fixed,0.25
Monochromator used,NO
Generator voltage, 45
Tube current, 40
File date and time,03/Dec/2021 09:57
Unit cell,
h k l, 0 0 0
Scan axis,Gonio
Scan range,4.994599997,64.999991833
Scan step size,0.0262606
No. of points, 2285
Scan type,CONTINUOUS
Time per step,96.390
[Scan points]
Angle, TimePerStep, Intensity, ESD
5.007730280, 96.390, 3649.0, 60.4070
5.033990845, 96.390, 3720.0, 60.9918
5.060251411, 96.390, 3618.0, 60.1498
5.086511976, 96.390, 3674.0, 60.6135
5.112772541, 96.390, 3619.0, 60.1581
5.139033107, 96.390, 3626.0, 60.2163
5.165293672, 96.390, 3575.0, 59.7913
5.191554237, 96.390, 3510.0, 59.2453
5.217814803, 96.390, 3440.0, 58.6515
5.244075368, 96.390, 3684.0, 60.6960
5.270335934, 96.390, 3442.0, 58.6686
5.296596499, 96.390, 3518.0, 59.3127
5.322857064, 96.390, 3511.0, 59.2537
5.349117630, 96.390, 3469.0, 58.8982
5.375378195, 96.390, 3392.0, 58.2409
5.401638760, 96.390, 3409.0, 58.3866
5.427899326, 96.390, 3463.0, 58.8473
5.454159891, 96.390, 3407.0, 58.3695
5.480420456, 96.390, 3431.0, 58.5747
5.506681022, 96.390, 3432.0, 58.5833
5.532941587, 96.390, 3385.0, 58.1808
5.559202152, 96.390, 3343.0, 57.8187
5.585462718, 96.390, 3402.0, 58.3267
5.611723283, 96.390, 3292.0, 57.3760
5.637983849, 96.390, 3447.0, 58.7112
5.664244414, 96.390, 3260.0, 57.0964
5.690504979, 96.390, 3284.0, 57.3062
5.716765545, 96.390, 3342.0, 57.8100
5.743026110, 96.390, 3316.0, 57.5847
5.769286675, 96.390, 3257.0, 57.0701
5.795547241, 96.390, 3290.0, 57.3585
5.821807806, 96.390, 3224.0, 56.7803
5.848068371, 96.390, 3366.0, 58.0172
5.874328937, 96.390, 3379.0, 58.1292
5.900589502, 96.390, 3230.0, 56.8331
5.926850067, 96.390, 3285.0, 57.3149
5.953110633, 96.390, 3197.0, 56.5420
5.979371198, 96.390, 3196.0, 56.5332
6.005631763, 96.390, 3275.0, 57.2276
6.031892329, 96.390, 3192.0, 56.4978
6.058152894, 96.390, 3292.0, 57.3760
6.084413460, 96.390, 3195.0, 56.5243
6.110674025, 96.390, 3275.0, 57.2276
6.136934590, 96.390, 3193.0, 56.5066
6.163195156, 96.390, 3132.0, 55.9643
6.189455721, 96.390, 3213.0, 56.6833
6.215716286, 96.390, 3232.0, 56.8507
6.241976852, 96.390, 3310.0, 57.5326
6.268237417, 96.390, 3315.0, 57.5760
6.294497982, 96.390, 3246.0, 56.9737
6.320758548, 96.390, 3157.0, 56.1872
6.347019113, 96.390, 3126.0, 55.9106
6.373279678, 96.390, 3182.0, 56.4092
6.399540244, 96.390, 3167.0, 56.2761
6.425800809, 96.390, 3227.0, 56.8067
6.452061375, 96.390, 3192.0, 56.4978
6.478321940, 96.390, 3193.0, 56.5066
6.504582505, 96.390, 3223.0, 56.7715
6.530843071, 96.390, 3188.0, 56.4624
6.557103636, 96.390, 3056.0, 55.2811
6.583364201, 96.390, 3063.0, 55.3444
6.609624767, 96.390, 3117.0, 55.8301
6.635885332, 96.390, 3026.0, 55.0091
6.662145897, 96.390, 3143.0, 56.0625
6.688406463, 96.390, 3209.0, 56.6480
6.714667028, 96.390, 3150.0, 56.1249
6.740927593, 96.390, 3156.0, 56.1783
6.767188159, 96.390, 3103.0, 55.7046
6.793448724, 96.390, 3146.0, 56.0892
6.819709289, 96.390, 3133.0, 55.9732
6.845969855, 96.390, 3131.0, 55.9553
6.872230420, 96.390, 3111.0, 55.7763
6.898490986, 96.390, 3076.0, 55.4617
6.924751551, 96.390, 2981.0, 54.5985
6.951012116, 96.390, 3199.0, 56.5597
6.977272682, 96.390, 3140.0, 56.0357
7.003533247, 96.390, 3026.0, 55.0091
7.029793812, 96.390, 3131.0, 55.9553
7.056054378, 96.390, 3082.0, 55.5158
7.082314943, 96.390, 3078.0, 55.4797
7.108575508, 96.390, 3039.0, 55.1271
7.134836074, 96.390, 3024.0, 54.9909
7.161096639, 96.390, 3035.0, 55.0908
7.187357204, 96.390, 3079.0, 55.4887
7.213617770, 96.390, 3045.0, 55.1815
7.239878335, 96.390, 3083.0, 55.5248
7.266138900, 96.390, 3026.0, 55.0091
7.292399466, 96.390, 3038.0, 55.1181
7.318660031, 96.390, 3053.0, 55.2540
7.344920597, 96.390, 2948.0, 54.2955
7.371181162, 96.390, 3154.0, 56.1605
7.397441727, 96.390, 2964.0, 54.4426
7.423702293, 96.390, 3105.0, 55.7225
7.449962858, 96.390, 2974.0, 54.5344
7.476223423, 96.390, 2974.0, 54.5344
7.502483989, 96.390, 3013.0, 54.8908
7.528744554, 96.390, 2963.0, 54.4334
7.555005119, 96.390, 2993.0, 54.7083
7.581265685, 96.390, 3043.0, 55.1634
7.607526250, 96.390, 3082.0, 55.5158
7.633786815, 96.390, 2971.0, 54.5069
7.660047381, 96.390, 3005.0, 54.8179
7.686307946, 96.390, 2992.0, 54.6992
7.712568512, 96.390, 3002.0, 54.7905
7.738829077, 96.390, 2931.0, 54.1387
7.765089642, 96.390, 2929.0, 54.1202
7.791350208, 96.390, 2932.0, 54.1479
7.817610773, 96.390, 2937.0, 54.1941
7.843871338, 96.390, 2835.0, 53.2447
7.870131904, 96.390, 2962.0, 54.4243
7.896392469, 96.390, 3080.0, 55.4977
7.922653034, 96.390, 2921.0, 54.0463
7.948913600, 96.390, 2896.0, 53.8145
7.975174165, 96.390, 2931.0, 54.1387
8.001434730, 96.390, 2786.0, 52.7826
8.027695296, 96.390, 2967.0, 54.4702
8.053955861, 96.390, 2998.0, 54.7540
8.080216426, 96.390, 2963.0, 54.4334
8.106476992, 96.390, 2945.0, 54.2679
8.132737557, 96.390, 2898.0, 53.8331
8.158998123, 96.390, 2857.0, 53.4509
8.185258688, 96.390, 2940.0, 54.2218
8.211519253, 96.390, 2944.0, 54.2586
8.237779819, 96.390, 2837.0, 53.2635
8.264040384, 96.390, 2965.0, 54.4518
8.290300949, 96.390, 2817.0, 53.0754
8.316561515, 96.390, 2875.0, 53.6190
8.342822080, 96.390, 2931.0, 54.1387
8.369082645, 96.390, 2811.0, 53.0189
8.395343211, 96.390, 2882.0, 53.6843
8.421603776, 96.390, 2868.0, 53.5537
8.447864341, 96.390, 2761.0, 52.5452
8.474124907, 96.390, 2856.0, 53.4416
8.500385472, 96.390, 2857.0, 53.4509
8.526646038, 96.390, 2832.0, 53.2165
8.552906603, 96.390, 2785.0, 52.7731
8.579167168, 96.390, 2859.0, 53.4696
8.605427734, 96.390, 2844.0, 53.3292
8.631688299, 96.390, 2805.0, 52.9623
8.657948864, 96.390, 2909.0, 53.9351
8.684209430, 96.390, 2801.0, 52.9245
8.710469995, 96.390, 2780.0, 52.7257
8.736730560, 96.390, 2769.0, 52.6213
8.762991126, 96.390, 2854.0, 53.4228
8.789251691, 96.390, 2804.0, 52.9528
8.815512256, 96.390, 2906.0, 53.9073
8.841772822, 96.390, 2858.0, 53.4603
8.868033387, 96.390, 2777.0, 52.6972
8.894293952, 96.390, 2750.0, 52.4404
8.920554518, 96.390, 2843.0, 53.3198
8.946815083, 96.390, 2869.0, 53.5630
8.973075649, 96.390, 2849.0, 53.3760
8.999336214, 96.390, 2794.0, 52.8583
9.025596779, 96.390, 2743.0, 52.3737
9.051857345, 96.390, 2834.0, 53.2353
9.078117910, 96.390, 2725.0, 52.2015
9.104378475, 96.390, 2810.0, 53.0094
9.130639041, 96.390, 2818.0, 53.0848
9.156899606, 96.390, 2825.0, 53.1507
9.183160171, 96.390, 2742.0, 52.3641
9.209420737, 96.390, 2695.0, 51.9134
9.235681302, 96.390, 2746.0, 52.4023
9.261941867, 96.390, 2880.0, 53.6656
9.288202433, 96.390, 2798.0, 52.8961
9.314462998, 96.390, 2750.0, 52.4404
9.340723564, 96.390, 2720.0, 52.1536
9.366984129, 96.390, 2841.0, 53.3010
9.393244694, 96.390, 2710.0, 52.0577
9.419505260, 96.390, 2628.0, 51.2640
9.445765825, 96.390, 2695.0, 51.9134
9.472026390, 96.390, 2831.0, 53.2071
9.498286956, 96.390, 2668.0, 51.6527
9.524547521, 96.390, 2729.0, 52.2398
9.550808086, 96.390, 2700.0, 51.9615
9.577068652, 96.390, 2732.0, 52.2685
9.603329217, 96.390, 2718.0, 52.1344
9.629589782, 96.390, 2573.0, 50.7247
9.655850348, 96.390, 2638.0, 51.3615
9.682110913, 96.390, 2678.0, 51.7494
9.708371478, 96.390, 2758.0, 52.5167
9.734632044, 96.390, 2729.0, 52.2398
9.760892609, 96.390, 2715.0, 52.1057
9.787153175, 96.390, 2645.0, 51.4296
9.813413740, 96.390, 2648.0, 51.4587
9.839674305, 96.390, 2661.0, 51.5849
9.865934871, 96.390, 2648.0, 51.4587
9.892195436, 96.390, 2619.0, 51.1762
9.918456001, 96.390, 2623.0, 51.2152
9.944716567, 96.390, 2652.0, 51.4976
9.970977132, 96.390, 2655.0, 51.5267
9.997237697, 96.390, 2672.0, 51.6914
10.023498263, 96.390, 2645.0, 51.4296
10.049758828, 96.390, 2629.0, 51.2738
10.076019393, 96.390, 2641.0, 51.3907
10.102279959, 96.390, 2682.0, 51.7880
10.128540524, 96.390, 2700.0, 51.9615
10.154801090, 96.390, 2579.0, 50.7839
10.181061655, 96.390, 2621.0, 51.1957
10.207322220, 96.390, 2628.0, 51.2640
10.233582786, 96.390, 2636.0, 51.3420
10.259843351, 96.390, 2693.0, 51.8941
10.286103916, 96.390, 2627.0, 51.2543
10.312364482, 96.390, 2649.0, 51.4684
10.338625047, 96.390, 2560.0, 50.5964
10.364885612, 96.390, 2548.0, 50.4777
10.391146178, 96.390, 2668.0, 51.6527
10.417406743, 96.390, 2595.0, 50.9411
10.443667308, 96.390, 2614.0, 51.1273
10.469927874, 96.390, 2601.0, 51.0000
10.496188439, 96.390, 2646.0, 51.4393
10.522449004, 96.390, 2622.0, 51.2055
10.548709570, 96.390, 2695.0, 51.9134
10.574970135, 96.390, 2617.0, 51.1566
10.601230701, 96.390, 2604.0, 51.0294
10.627491266, 96.390, 2674.0, 51.7107
10.653751831, 96.390, 2579.0, 50.7839
10.680012397, 96.390, 2623.0, 51.2152
10.706272962, 96.390, 2619.0, 51.1762
10.732533527, 96.390, 2546.0, 50.4579
10.758794093, 96.390, 2668.0, 51.6527
10.785054658, 96.390, 2502.0, 50.0200
10.811315223, 96.390, 2633.0, 51.3128
10.837575789, 96.390, 2511.0, 50.1099
10.863836354, 96.390, 2596.0, 50.9510
10.890096919, 96.390, 2613.0, 51.1175
10.916357485, 96.390, 2639.0, 51.3712
10.942618050, 96.390, 2669.0, 51.6624
10.968878616, 96.390, 2507.0, 50.0700
10.995139181, 96.390, 2580.0, 50.7937
11.021399746, 96.390, 2614.0, 51.1273
11.047660312, 96.390, 2601.0, 51.0000
11.073920877, 96.390, 2648.0, 51.4587
11.100181442, 96.390, 2493.0, 49.9300
11.126442008, 96.390, 2405.0, 49.0408
11.152702573, 96.390, 2544.0, 50.4381
11.178963138, 96.390, 2476.0, 49.7594
11.205223704, 96.390, 2563.0, 50.6261
11.231484269, 96.390, 2579.0, 50.7839
11.257744834, 96.390, 2583.0, 50.8232
11.284005400, 96.390, 2537.0, 50.3686
11.310265965, 96.390, 2596.0, 50.9510
11.336526530, 96.390, 2507.0, 50.0700
11.362787096, 96.390, 2484.0, 49.8397
11.389047661, 96.390, 2441.0, 49.4065
11.415308227, 96.390, 2427.0, 49.2646
11.441568792, 96.390, 2478.0, 49.7795
11.467829357, 96.390, 2598.0, 50.9706
11.494089923, 96.390, 2417.0, 49.1630
11.520350488, 96.390, 2504.0, 50.0400
11.546611053, 96.390, 2416.0, 49.1528
11.572871619, 96.390, 2580.0, 50.7937
11.599132184, 96.390, 2532.0, 50.3190
11.625392749, 96.390, 2382.0, 48.8057
11.651653315, 96.390, 2478.0, 49.7795
11.677913880, 96.390, 2432.0, 49.3153
11.704174445, 96.390, 2461.0, 49.6085
11.730435011, 96.390, 2397.0, 48.9592
11.756695576, 96.390, 2419.0, 49.1833
11.782956141, 96.390, 2440.0, 49.3964
11.809216707, 96.390, 2403.0, 49.0204
11.835477272, 96.390, 2547.0, 50.4678
11.861737838, 96.390, 2490.0, 49.8999
11.887998403, 96.390, 2422.0, 49.2138
11.914258968, 96.390, 2480.0, 49.7996
11.940519534, 96.390, 2445.0, 49.4469
11.966780099, 96.390, 2411.0, 49.1019
11.993040664, 96.390, 2362.0, 48.6004
12.019301230, 96.390, 2412.0, 49.1121
12.045561795, 96.390, 2396.0, 48.9490
12.071822360, 96.390, 2369.0, 48.6724
12.098082926, 96.390, 2441.0, 49.4065
12.124343491, 96.390, 2448.0, 49.4773
12.150604056, 96.390, 2381.0, 48.7955
12.176864622, 96.390, 2478.0, 49.7795
12.203125187, 96.390, 2496.0, 49.9600
12.229385753, 96.390, 2426.0, 49.2544
12.255646318, 96.390, 2378.0, 48.7647
12.281906883, 96.390, 2340.0, 48.3735
12.308167449, 96.390, 2428.0, 49.2747
12.334428014, 96.390, 2398.0, 48.9694
12.360688579, 96.390, 2411.0, 49.1019
12.386949145, 96.390, 2415.0, 49.1426
12.413209710, 96.390, 2402.0, 49.0102
12.439470275, 96.390, 2388.0, 48.8672
12.465730841, 96.390, 2392.0, 48.9081
12.491991406, 96.390, 2398.0, 48.9694
12.518251971, 96.390, 2399.0, 48.9796
12.544512537, 96.390, 2419.0, 49.1833
12.570773102, 96.390, 2438.0, 49.3761
12.597033667, 96.390, 2348.0, 48.4562
12.623294233, 96.390, 2430.0, 49.2950
12.649554798, 96.390, 2401.0, 49.0000
12.675815364, 96.390, 2301.0, 47.9687
12.702075929, 96.390, 2427.0, 49.2646
12.728336494, 96.390, 2282.0, 47.7703
12.754597060, 96.390, 2364.0, 48.6210
12.780857625, 96.390, 2392.0, 48.9081
12.807118190, 96.390, 2378.0, 48.7647
12.833378756, 96.390, 2373.0, 48.7134
12.859639321, 96.390, 2421.0, 49.2037
12.885899886, 96.390, 2471.0, 49.7092
12.912160452, 96.390, 2400.0, 48.9898
12.938421017, 96.390, 2286.0, 47.8121
12.964681582, 96.390, 2445.0, 49.4469
12.990942148, 96.390, 2334.0, 48.3115
13.017202713, 96.390, 2312.0, 48.0833
13.043463279, 96.390, 2394.0, 48.9285
13.069723844, 96.390, 2374.0, 48.7237
13.095984409, 96.390, 2365.0, 48.6313
13.122244975, 96.390, 2338.0, 48.3529
13.148505540, 96.390, 2348.0, 48.4562
13.174766105, 96.390, 2325.0, 48.2183
13.201026671, 96.390, 2360.0, 48.5798
13.227287236, 96.390, 2344.0, 48.4149
13.253547801, 96.390, 2351.0, 48.4871
13.279808367, 96.390, 2363.0, 48.6107
13.306068932, 96.390, 2433.0, 49.3254
13.332329497, 96.390, 2382.0, 48.8057
13.358590063, 96.390, 2375.0, 48.7340
13.384850628, 96.390, 2431.0, 49.3052
13.411111193, 96.390, 2387.0, 48.8569
13.437371759, 96.390, 2443.0, 49.4267
13.463632324, 96.390, 2419.0, 49.1833
13.489892890, 96.390, 2320.0, 48.1664
13.516153455, 96.390, 2415.0, 49.1426
13.542414020, 96.390, 2423.0, 49.2240
13.568674586, 96.390, 2300.0, 47.9583
13.594935151, 96.390, 2323.0, 48.1975
13.621195716, 96.390, 2315.0, 48.1144
13.647456282, 96.390, 2409.0, 49.0816
13.673716847, 96.390, 2372.0, 48.7032
13.699977412, 96.390, 2366.0, 48.6415
13.726237978, 96.390, 2315.0, 48.1144
13.752498543, 96.390, 2397.0, 48.9592
13.778759108, 96.390, 2396.0, 48.9490
13.805019674, 96.390, 2369.0, 48.6724
13.831280239, 96.390, 2282.0, 47.7703
13.857540805, 96.390, 2367.0, 48.6518
13.883801370, 96.390, 2351.0, 48.4871
13.910061935, 96.390, 2349.0, 48.4665
13.936322501, 96.390, 2379.0, 48.7750
13.962583066, 96.390, 2329.0, 48.2597
13.988843631, 96.390, 2361.0, 48.5901
14.015104197, 96.390, 2279.0, 47.7389
14.041364762, 96.390, 2377.0, 48.7545
14.067625327, 96.390, 2301.0, 47.9687
14.093885893, 96.390, 2312.0, 48.0833
14.120146458, 96.390, 2426.0, 49.2544
14.146407023, 96.390, 2356.0, 48.5386
14.172667589, 96.390, 2332.0, 48.2908
14.198928154, 96.390, 2292.0, 47.8748
14.225188719, 96.390, 2401.0, 49.0000
14.251449285, 96.390, 2228.0, 47.2017
14.277709850, 96.390, 2342.0, 48.3942
14.303970416, 96.390, 2320.0, 48.1664
14.330230981, 96.390, 2396.0, 48.9490
14.356491546, 96.390, 2341.0, 48.3839
14.382752112, 96.390, 2290.0, 47.8539
14.409012677, 96.390, 2368.0, 48.6621
14.435273242, 96.390, 2282.0, 47.7703
14.461533808, 96.390, 2343.0, 48.4045
14.487794373, 96.390, 2344.0, 48.4149
14.514054938, 96.390, 2370.0, 48.6826
14.540315504, 96.390, 2399.0, 48.9796
14.566576069, 96.390, 2396.0, 48.9490
14.592836634, 96.390, 2399.0, 48.9796
14.619097200, 96.390, 2377.0, 48.7545
14.645357765, 96.390, 2288.0, 47.8330
14.671618331, 96.390, 2364.0, 48.6210
14.697878896, 96.390, 2390.0, 48.8876
14.724139461, 96.390, 2363.0, 48.6107
14.750400027, 96.390, 2366.0, 48.6415
14.776660592, 96.390, 2325.0, 48.2183
14.802921157, 96.390, 2307.0, 48.0312
14.829181723, 96.390, 2320.0, 48.1664
14.855442288, 96.390, 2398.0, 48.9694
14.881702853, 96.390, 2419.0, 49.1833
14.907963419, 96.390, 2429.0, 49.2849
14.934223984, 96.390, 2444.0, 49.4368
14.960484549, 96.390, 2428.0, 49.2747
14.986745115, 96.390, 2356.0, 48.5386
15.013005680, 96.390, 2325.0, 48.2183
15.039266245, 96.390, 2445.0, 49.4469
15.065526811, 96.390, 2319.0, 48.1560
15.091787376, 96.390, 2373.0, 48.7134
15.118047942, 96.390, 2421.0, 49.2037
15.144308507, 96.390, 2445.0, 49.4469
15.170569072, 96.390, 2364.0, 48.6210
15.196829638, 96.390, 2276.0, 47.7074
15.223090203, 96.390, 2427.0, 49.2646
15.249350768, 96.390, 2356.0, 48.5386
15.275611334, 96.390, 2407.0, 49.0612
15.301871899, 96.390, 2384.0, 48.8262
15.328132464, 96.390, 2448.0, 49.4773
15.354393030, 96.390, 2405.0, 49.0408
15.380653595, 96.390, 2509.0, 50.0899
15.406914160, 96.390, 2397.0, 48.9592
15.433174726, 96.390, 2479.0, 49.7896
15.459435291, 96.390, 2479.0, 49.7896
15.485695857, 96.390, 2425.0, 49.2443
15.511956422, 96.390, 2387.0, 48.8569
15.538216987, 96.390, 2450.0, 49.4975
15.564477553, 96.390, 2335.0, 48.3218
15.590738118, 96.390, 2434.0, 49.3356
15.616998683, 96.390, 2437.0, 49.3660
15.643259249, 96.390, 2365.0, 48.6313
15.669519814, 96.390, 2506.0, 50.0600
15.695780379, 96.390, 2416.0, 49.1528
15.722040945, 96.390, 2486.0, 49.8598
15.748301510, 96.390, 2440.0, 49.3964
15.774562075, 96.390, 2514.0, 50.1398
15.800822641, 96.390, 2538.0, 50.3786
15.827083206, 96.390, 2557.0, 50.5668
15.853343771, 96.390, 2531.0, 50.3090
15.879604337, 96.390, 2466.0, 49.6588
15.905864902, 96.390, 2489.0, 49.8899
15.932125468, 96.390, 2573.0, 50.7247
15.958386033, 96.390, 2548.0, 50.4777
15.984646598, 96.390, 2568.0, 50.6754
16.010907164, 96.390, 2692.0, 51.8845
16.037167729, 96.390, 2681.0, 51.7784
16.063428294, 96.390, 2583.0, 50.8232
16.089688860, 96.390, 2713.0, 52.0865
16.115949425, 96.390, 2731.0, 52.2590
16.142209990, 96.390, 2664.0, 51.6140
16.168470556, 96.390, 2684.0, 51.8073
16.194731121, 96.390, 2646.0, 51.4393
16.220991686, 96.390, 2506.0, 50.0600
16.247252252, 96.390, 2603.0, 51.0196
16.273512817, 96.390, 2540.0, 50.3984
16.299773382, 96.390, 2490.0, 49.8999
16.326033948, 96.390, 2436.0, 49.3559
16.352294513, 96.390, 2489.0, 49.8899
16.378555079, 96.390, 2534.0, 50.3389
16.404815644, 96.390, 2507.0, 50.0700
16.431076209, 96.390, 2503.0, 50.0300
16.457336775, 96.390, 2517.0, 50.1697
16.483597340, 96.390, 2546.0, 50.4579
16.509857905, 96.390, 2539.0, 50.3885
16.536118471, 96.390, 2536.0, 50.3587
16.562379036, 96.390, 2545.0, 50.4480
16.588639601, 96.390, 2455.0, 49.5480
16.614900167, 96.390, 2499.0, 49.9900
16.641160732, 96.390, 2472.0, 49.7192
16.667421297, 96.390, 2600.0, 50.9902
16.693681863, 96.390, 2437.0, 49.3660
16.719942428, 96.390, 2524.0, 50.2394
16.746202994, 96.390, 2525.0, 50.2494
16.772463559, 96.390, 2498.0, 49.9800
16.798724124, 96.390, 2460.0, 49.5984
16.824984690, 96.390, 2520.0, 50.1996
16.851245255, 96.390, 2548.0, 50.4777
16.877505820, 96.390, 2560.0, 50.5964
16.903766386, 96.390, 2560.0, 50.5964
16.930026951, 96.390, 2525.0, 50.2494
16.956287516, 96.390, 2592.0, 50.9117
16.982548082, 96.390, 2591.0, 50.9019
17.008808647, 96.390, 2578.0, 50.7740
17.035069212, 96.390, 2597.0, 50.9608
17.061329778, 96.390, 2712.0, 52.0769
17.087590343, 96.390, 2613.0, 51.1175
17.113850908, 96.390, 2612.0, 51.1077
17.140111474, 96.390, 2562.0, 50.6162
17.166372039, 96.390, 2632.0, 51.3030
17.192632605, 96.390, 2637.0, 51.3517
17.218893170, 96.390, 2580.0, 50.7937
17.245153735, 96.390, 2709.0, 52.0481
17.271414301, 96.390, 2665.0, 51.6236
17.297674866, 96.390, 2632.0, 51.3030
17.323935431, 96.390, 2559.0, 50.5866
17.350195997, 96.390, 2708.0, 52.0384
17.376456562, 96.390, 2617.0, 51.1566
17.402717127, 96.390, 2676.0, 51.7301
17.428977693, 96.390, 2681.0, 51.7784
17.455238258, 96.390, 2671.0, 51.6817
17.481498823, 96.390, 2684.0, 51.8073
17.507759389, 96.390, 2747.0, 52.4118
17.534019954, 96.390, 2843.0, 53.3198
17.560280520, 96.390, 2707.0, 52.0288
17.586541085, 96.390, 2676.0, 51.7301
17.612801650, 96.390, 2638.0, 51.3615
17.639062216, 96.390, 2655.0, 51.5267
17.665322781, 96.390, 2694.0, 51.9038
17.691583346, 96.390, 2670.0, 51.6720
17.717843912, 96.390, 2773.0, 52.6593
17.744104477, 96.390, 2716.0, 52.1153
17.770365042, 96.390, 2751.0, 52.4500
17.796625608, 96.390, 2731.0, 52.2590
17.822886173, 96.390, 2762.0, 52.5547
17.849146738, 96.390, 2807.0, 52.9811
17.875407304, 96.390, 2757.0, 52.5071
17.901667869, 96.390, 2801.0, 52.9245
17.927928434, 96.390, 2806.0, 52.9717
17.954189000, 96.390, 2778.0, 52.7067
17.980449565, 96.390, 2796.0, 52.8772
18.006710131, 96.390, 2752.0, 52.4595
18.032970696, 96.390, 2865.0, 53.5257
18.059231261, 96.390, 2806.0, 52.9717
18.085491827, 96.390, 2972.0, 54.5161
18.111752392, 96.390, 2968.0, 54.4794
18.138012957, 96.390, 2861.0, 53.4883
18.164273523, 96.390, 2822.0, 53.1225
18.190534088, 96.390, 2965.0, 54.4518
18.216794653, 96.390, 2852.0, 53.4041
18.243055219, 96.390, 2887.0, 53.7308
18.269315784, 96.390, 2922.0, 54.0555
18.295576349, 96.390, 2981.0, 54.5985
18.321836915, 96.390, 2935.0, 54.1756
18.348097480, 96.390, 2814.0, 53.0471
18.374358046, 96.390, 2793.0, 52.8488
18.400618611, 96.390, 2933.0, 54.1572
18.426879176, 96.390, 2955.0, 54.3599
18.453139742, 96.390, 2956.0, 54.3691
18.479400307, 96.390, 2878.0, 53.6470
18.505660872, 96.390, 3057.0, 55.2901
18.531921438, 96.390, 2929.0, 54.1202
18.558182003, 96.390, 2938.0, 54.2033
18.584442568, 96.390, 2850.0, 53.3854
18.610703134, 96.390, 2974.0, 54.5344
18.636963699, 96.390, 3066.0, 55.3715
18.663224264, 96.390, 2957.0, 54.3783
18.689484830, 96.390, 2995.0, 54.7266
18.715745395, 96.390, 2944.0, 54.2586
18.742005960, 96.390, 3028.0, 55.0273
18.768266526, 96.390, 3068.0, 55.3895
18.794527091, 96.390, 3017.0, 54.9272
18.820787657, 96.390, 3050.0, 55.2268
18.847048222, 96.390, 3030.0, 55.0454
18.873308787, 96.390, 3030.0, 55.0454
18.899569353, 96.390, 3106.0, 55.7315
18.925829918, 96.390, 3053.0, 55.2540
18.952090483, 96.390, 3024.0, 54.9909
18.978351049, 96.390, 3146.0, 56.0892
19.004611614, 96.390, 3092.0, 55.6058
19.030872179, 96.390, 3102.0, 55.6956
19.057132745, 96.390, 3182.0, 56.4092
19.083393310, 96.390, 3057.0, 55.2901
19.109653875, 96.390, 3174.0, 56.3383
19.135914441, 96.390, 3148.0, 56.1070
19.162175006, 96.390, 3104.0, 55.7136
19.188435572, 96.390, 3131.0, 55.9553
19.214696137, 96.390, 3257.0, 57.0701
19.240956702, 96.390, 3323.0, 57.6455
19.267217268, 96.390, 3183.0, 56.4181
19.293477833, 96.390, 3142.0, 56.0535
19.319738398, 96.390, 3177.0, 56.3649
19.345998964, 96.390, 3110.0, 55.7674
19.372259529, 96.390, 3280.0, 57.2713
19.398520094, 96.390, 3235.0, 56.8771
19.424780660, 96.390, 3221.0, 56.7539
19.451041225, 96.390, 3262.0, 57.1139
19.477301790, 96.390, 3263.0, 57.1227
19.503562356, 96.390, 3191.0, 56.4889
19.529822921, 96.390, 3308.0, 57.5152
19.556083486, 96.390, 3360.0, 57.9655
19.582344052, 96.390, 3314.0, 57.5674
19.608604617, 96.390, 3230.0, 56.8331
19.634865183, 96.390, 3142.0, 56.0535
19.661125748, 96.390, 3229.0, 56.8243
19.687386313, 96.390, 3309.0, 57.5239
19.713646879, 96.390, 3290.0, 57.3585
19.739907444, 96.390, 3365.0, 58.0086
19.766168009, 96.390, 3344.0, 57.8273
19.792428575, 96.390, 3462.0, 58.8388
19.818689140, 96.390, 3374.0, 58.0861
19.844949705, 96.390, 3446.0, 58.7026
19.871210271, 96.390, 3427.0, 58.5406
19.897470836, 96.390, 3417.0, 58.4551
19.923731401, 96.390, 3531.0, 59.4222
19.949991967, 96.390, 3569.0, 59.7411
19.976252532, 96.390, 3409.0, 58.3866
20.002513097, 96.390, 3603.0, 60.0250
20.028773663, 96.390, 3538.0, 59.4811
20.055034228, 96.390, 3667.0, 60.5558
20.081294794, 96.390, 3751.0, 61.2454
20.107555359, 96.390, 3834.0, 61.9193
20.133815924, 96.390, 3883.0, 62.3137
20.160076490, 96.390, 3925.0, 62.6498
20.186337055, 96.390, 4076.0, 63.8436
20.212597620, 96.390, 4133.0, 64.2884
20.238858186, 96.390, 4034.0, 63.5138
20.265118751, 96.390, 4026.0, 63.4508
20.291379316, 96.390, 3956.0, 62.8967
20.317639882, 96.390, 3941.0, 62.7774
20.343900447, 96.390, 3926.0, 62.6578
20.370161012, 96.390, 3851.0, 62.0564
20.396421578, 96.390, 3784.0, 61.5142
20.422682143, 96.390, 3640.0, 60.3324
20.448942709, 96.390, 3640.0, 60.3324
20.475203274, 96.390, 3557.0, 59.6406
20.501463839, 96.390, 3684.0, 60.6960
20.527724405, 96.390, 3583.0, 59.8582
20.553984970, 96.390, 3570.0, 59.7495
20.580245535, 96.390, 3653.0, 60.4401
20.606506101, 96.390, 3615.0, 60.1249
20.632766666, 96.390, 3648.0, 60.3987
20.659027231, 96.390, 3651.0, 60.4235
20.685287797, 96.390, 3662.0, 60.5145
20.711548362, 96.390, 3728.0, 61.0574
20.737808927, 96.390, 3690.0, 60.7454
20.764069493, 96.390, 3692.0, 60.7618
20.790330058, 96.390, 3685.0, 60.7042
20.816590623, 96.390, 3716.0, 60.9590
20.842851189, 96.390, 3700.0, 60.8276
20.869111754, 96.390, 3672.0, 60.5970
20.895372320, 96.390, 3795.0, 61.6036
20.921632885, 96.390, 3813.0, 61.7495
20.947893450, 96.390, 3790.0, 61.5630
20.974154016, 96.390, 3727.0, 61.0492
21.000414581, 96.390, 3794.0, 61.5955
21.026675146, 96.390, 3786.0, 61.5305
21.052935712, 96.390, 3761.0, 61.3270
21.079196277, 96.390, 3814.0, 61.7576
21.105456842, 96.390, 3874.0, 62.2415
21.131717408, 96.390, 3873.0, 62.2334
21.157977973, 96.390, 3802.0, 61.6604
21.184238538, 96.390, 3981.0, 63.0952
21.210499104, 96.390, 4005.0, 63.2851
21.236759669, 96.390, 4114.0, 64.1405
21.263020235, 96.390, 3939.0, 62.7615
21.289280800, 96.390, 4054.0, 63.6710
21.315541365, 96.390, 4208.0, 64.8691
21.341801931, 96.390, 4261.0, 65.2763
21.368062496, 96.390, 4376.0, 66.1513
21.394323061, 96.390, 4374.0, 66.1362
21.420583627, 96.390, 4370.0, 66.1060
21.446844192, 96.390, 4489.0, 67.0000
21.473104757, 96.390, 4382.0, 66.1967
21.499365323, 96.390, 4205.0, 64.8460
21.525625888, 96.390, 4206.0, 64.8537
21.551886453, 96.390, 4121.0, 64.1950
21.578147019, 96.390, 4048.0, 63.6239
21.604407584, 96.390, 4113.0, 64.1327
21.630668149, 96.390, 3964.0, 62.9603
21.656928715, 96.390, 4034.0, 63.5138
21.683189280, 96.390, 4019.0, 63.3956
21.709449846, 96.390, 3981.0, 63.0952
21.735710411, 96.390, 3962.0, 62.9444
21.761970976, 96.390, 3978.0, 63.0714
21.788231542, 96.390, 4011.0, 63.3325
21.814492107, 96.390, 3948.0, 62.8331
21.840752672, 96.390, 3973.0, 63.0317
21.867013238, 96.390, 3877.0, 62.2656
21.893273803, 96.390, 3984.0, 63.1189
21.919534368, 96.390, 3928.0, 62.6738
21.945794934, 96.390, 3888.0, 62.3538
21.972055499, 96.390, 3911.0, 62.5380
21.998316064, 96.390, 3915.0, 62.5700
22.024576630, 96.390, 3905.0, 62.4900
22.050837195, 96.390, 3949.0, 62.8411
22.077097761, 96.390, 3962.0, 62.9444
22.103358326, 96.390, 3961.0, 62.9365
22.129618891, 96.390, 3957.0, 62.9047
22.155879457, 96.390, 4035.0, 63.5216
22.182140022, 96.390, 3911.0, 62.5380
22.208400587, 96.390, 3991.0, 63.1744
22.234661153, 96.390, 3938.0, 62.7535
22.260921718, 96.390, 3833.0, 61.9112
22.287182283, 96.390, 3922.0, 62.6259
22.313442849, 96.390, 3911.0, 62.5380
22.339703414, 96.390, 3954.0, 62.8808
22.365963979, 96.390, 3988.0, 63.1506
22.392224545, 96.390, 3888.0, 62.3538
22.418485110, 96.390, 3985.0, 63.1269
22.444745675, 96.390, 3938.0, 62.7535
22.471006241, 96.390, 3824.0, 61.8385
22.497266806, 96.390, 3990.0, 63.1664
22.523527372, 96.390, 3979.0, 63.0793
22.549787937, 96.390, 3929.0, 62.6817
22.576048502, 96.390, 4071.0, 63.8044
22.602309068, 96.390, 3990.0, 63.1664
22.628569633, 96.390, 3952.0, 62.8649
22.654830198, 96.390, 4026.0, 63.4508
22.681090764, 96.390, 3970.0, 63.0079
22.707351329, 96.390, 3993.0, 63.1902
22.733611894, 96.390, 3890.0, 62.3699
22.759872460, 96.390, 4116.0, 64.1561
22.786133025, 96.390, 4052.0, 63.6553
22.812393590, 96.390, 4047.0, 63.6160
22.838654156, 96.390, 4143.0, 64.3661
22.864914721, 96.390, 4183.0, 64.6761
22.891175287, 96.390, 4111.0, 64.1171
22.917435852, 96.390, 4146.0, 64.3894
22.943696417, 96.390, 4134.0, 64.2962
22.969956983, 96.390, 4053.0, 63.6632
22.996217548, 96.390, 4037.0, 63.5374
23.022478113, 96.390, 3975.0, 63.0476
23.048738679, 96.390, 3883.0, 62.3137
23.074999244, 96.390, 3947.0, 62.8252
23.101259809, 96.390, 3945.0, 62.8092
23.127520375, 96.390, 3938.0, 62.7535
23.153780940, 96.390, 3924.0, 62.6418
23.180041505, 96.390, 3899.0, 62.4420
23.206302071, 96.390, 3871.0, 62.2174
23.232562636, 96.390, 3915.0, 62.5700
23.258823201, 96.390, 3874.0, 62.2415
23.285083767, 96.390, 3898.0, 62.4340
23.311344332, 96.390, 3845.0, 62.0081
23.337604898, 96.390, 3816.0, 61.7738
23.363865463, 96.390, 3776.0, 61.4492
23.390126028, 96.390, 3781.0, 61.4898
23.416386594, 96.390, 3777.0, 61.4573
23.442647159, 96.390, 3809.0, 61.7171
23.468907724, 96.390, 3880.0, 62.2896
23.495168290, 96.390, 3652.0, 60.4318
23.521428855, 96.390, 3896.0, 62.4179
23.547689420, 96.390, 3797.0, 61.6198
23.573949986, 96.390, 3774.0, 61.4329
23.600210551, 96.390, 3963.0, 62.9524
23.626471116, 96.390, 3831.0, 61.8951
23.652731682, 96.390, 3732.0, 61.0901
23.678992247, 96.390, 3714.0, 60.9426
23.705252813, 96.390, 3820.0, 61.8061
23.731513378, 96.390, 3636.0, 60.2993
23.757773943, 96.390, 3711.0, 60.9180
23.784034509, 96.390, 3685.0, 60.7042
23.810295074, 96.390, 3853.0, 62.0725
23.836555639, 96.390, 3717.0, 60.9672
23.862816205, 96.390, 3663.0, 60.5227
23.889076770, 96.390, 3730.0, 61.0737
23.915337335, 96.390, 3777.0, 61.4573
23.941597901, 96.390, 3776.0, 61.4492
23.967858466, 96.390, 3727.0, 61.0492
23.994119031, 96.390, 3651.0, 60.4235
24.020379597, 96.390, 3620.0, 60.1664
24.046640162, 96.390, 3751.0, 61.2454
24.072900727, 96.390, 3632.0, 60.2661
24.099161293, 96.390, 3655.0, 60.4566
24.125421858, 96.390, 3649.0, 60.4070
24.151682424, 96.390, 3599.0, 59.9917
24.177942989, 96.390, 3642.0, 60.3490
24.204203554, 96.390, 3640.0, 60.3324
24.230464120, 96.390, 3511.0, 59.2537
24.256724685, 96.390, 3606.0, 60.0500
24.282985250, 96.390, 3596.0, 59.9667
24.309245816, 96.390, 3517.0, 59.3043
24.335506381, 96.390, 3583.0, 59.8582
24.361766946, 96.390, 3651.0, 60.4235
24.388027512, 96.390, 3562.0, 59.6825
24.414288077, 96.390, 3581.0, 59.8415
24.440548642, 96.390, 3428.0, 58.5491
24.466809208, 96.390, 3516.0, 59.2959
24.493069773, 96.390, 3486.0, 59.0424
24.519330338, 96.390, 3470.0, 58.9067
24.545590904, 96.390, 3415.0, 58.4380
24.571851469, 96.390, 3528.0, 59.3970
24.598112035, 96.390, 3385.0, 58.1808
24.624372600, 96.390, 3517.0, 59.3043
24.650633165, 96.390, 3534.0, 59.4475
24.676893731, 96.390, 3433.0, 58.5918
24.703154296, 96.390, 3389.0, 58.2151
24.729414861, 96.390, 3417.0, 58.4551
24.755675427, 96.390, 3391.0, 58.2323
24.781935992, 96.390, 3386.0, 58.1893
24.808196557, 96.390, 3396.0, 58.2752
24.834457123, 96.390, 3454.0, 58.7707
24.860717688, 96.390, 3374.0, 58.0861
24.886978253, 96.390, 3417.0, 58.4551
24.913238819, 96.390, 3425.0, 58.5235
24.939499384, 96.390, 3458.0, 58.8048
24.965759950, 96.390, 3372.0, 58.0689
24.992020515, 96.390, 3296.0, 57.4108
25.018281080, 96.390, 3364.0, 58.0000
25.044541646, 96.390, 3304.0, 57.4804
25.070802211, 96.390, 3399.0, 58.3009
25.097062776, 96.390, 3381.0, 58.1464
25.123323342, 96.390, 3408.0, 58.3781
25.149583907, 96.390, 3257.0, 57.0701
25.175844472, 96.390, 3301.0, 57.4543
25.202105038, 96.390, 3409.0, 58.3866
25.228365603, 96.390, 3315.0, 57.5760
25.254626168, 96.390, 3277.0, 57.2451
25.280886734, 96.390, 3243.0, 56.9473
25.307147299, 96.390, 3290.0, 57.3585
25.333407864, 96.390, 3418.0, 58.4637
25.359668430, 96.390, 3267.0, 57.1577
25.385928995, 96.390, 3305.0, 57.4891
25.412189561, 96.390, 3301.0, 57.4543
25.438450126, 96.390, 3181.0, 56.4004
25.464710691, 96.390, 3201.0, 56.5774
25.490971257, 96.390, 3208.0, 56.6392
25.517231822, 96.390, 3225.0, 56.7891
25.543492387, 96.390, 3184.0, 56.4269
25.569752953, 96.390, 3230.0, 56.8331
25.596013518, 96.390, 3108.0, 55.7494
25.622274083, 96.390, 3190.0, 56.4801
25.648534649, 96.390, 3152.0, 56.1427
25.674795214, 96.390, 3269.0, 57.1752
25.701055779, 96.390, 3248.0, 56.9912
25.727316345, 96.390, 3200.0, 56.5685
25.753576910, 96.390, 3112.0, 55.7853
25.779837476, 96.390, 3065.0, 55.3624
25.806098041, 96.390, 3080.0, 55.4977
25.832358606, 96.390, 3042.0, 55.1543
25.858619172, 96.390, 2990.0, 54.6809
25.884879737, 96.390, 2989.0, 54.6717
25.911140302, 96.390, 2978.0, 54.5711
25.937400868, 96.390, 2889.0, 53.7494
25.963661433, 96.390, 3016.0, 54.9181
25.989921998, 96.390, 2965.0, 54.4518
26.016182564, 96.390, 3082.0, 55.5158
26.042443129, 96.390, 3005.0, 54.8179
26.068703694, 96.390, 3061.0, 55.3263
26.094964260, 96.390, 2931.0, 54.1387
26.121224825, 96.390, 2886.0, 53.7215
26.147485390, 96.390, 2943.0, 54.2494
26.173745956, 96.390, 2927.0, 54.1018
26.200006521, 96.390, 2962.0, 54.4243
26.226267087, 96.390, 2862.0, 53.4977
26.252527652, 96.390, 2976.0, 54.5527
26.278788217, 96.390, 2823.0, 53.1319
26.305048783, 96.390, 2966.0, 54.4610
26.331309348, 96.390, 2935.0, 54.1756
26.357569913, 96.390, 2949.0, 54.3047
26.383830479, 96.390, 2872.0, 53.5910
26.410091044, 96.390, 2862.0, 53.4977
26.436351609, 96.390, 2897.0, 53.8238
26.462612175, 96.390, 2936.0, 54.1849
26.488872740, 96.390, 2814.0, 53.0471
26.515133305, 96.390, 2885.0, 53.7122
26.541393871, 96.390, 2895.0, 53.8052
26.567654436, 96.390, 2745.0, 52.3927
26.593915002, 96.390, 2873.0, 53.6004
26.620175567, 96.390, 2858.0, 53.4603
26.646436132, 96.390, 2803.0, 52.9434
26.672696698, 96.390, 2737.0, 52.3163
26.698957263, 96.390, 2792.0, 52.8394
26.725217828, 96.390, 2831.0, 53.2071
26.751478394, 96.390, 2745.0, 52.3927
26.777738959, 96.390, 2771.0, 52.6403
26.803999524, 96.390, 2705.0, 52.0096
26.830260090, 96.390, 2764.0, 52.5738
26.856520655, 96.390, 2658.0, 51.5558
26.882781220, 96.390, 2743.0, 52.3737
26.909041786, 96.390, 2673.0, 51.7011
26.935302351, 96.390, 2667.0, 51.6430
26.961562916, 96.390, 2673.0, 51.7011
26.987823482, 96.390, 2748.0, 52.4214
27.014084047, 96.390, 2665.0, 51.6236
27.040344613, 96.390, 2749.0, 52.4309
27.066605178, 96.390, 2701.0, 51.9711
27.092865743, 96.390, 2607.0, 51.0588
27.119126309, 96.390, 2593.0, 50.9215
27.145386874, 96.390, 2623.0, 51.2152
27.171647439, 96.390, 2629.0, 51.2738
27.197908005, 96.390, 2694.0, 51.9038
27.224168570, 96.390, 2642.0, 51.4004
27.250429135, 96.390, 2567.0, 50.6656
27.276689701, 96.390, 2501.0, 50.0100
27.302950266, 96.390, 2538.0, 50.3786
27.329210831, 96.390, 2630.0, 51.2835
27.355471397, 96.390, 2557.0, 50.5668
27.381731962, 96.390, 2514.0, 50.1398
27.407992528, 96.390, 2528.0, 50.2792
27.434253093, 96.390, 2568.0, 50.6754
27.460513658, 96.390, 2490.0, 49.8999
27.486774224, 96.390, 2510.0, 50.0999
27.513034789, 96.390, 2603.0, 51.0196
27.539295354, 96.390, 2486.0, 49.8598
27.565555920, 96.390, 2530.0, 50.2991
27.591816485, 96.390, 2462.0, 49.6185
27.618077050, 96.390, 2470.0, 49.6991
27.644337616, 96.390, 2489.0, 49.8899
27.670598181, 96.390, 2505.0, 50.0500
27.696858746, 96.390, 2501.0, 50.0100
27.723119312, 96.390, 2461.0, 49.6085
27.749379877, 96.390, 2464.0, 49.6387
27.775640442, 96.390, 2486.0, 49.8598
27.801901008, 96.390, 2576.0, 50.7543
27.828161573, 96.390, 2443.0, 49.4267
27.854422139, 96.390, 2498.0, 49.9800
27.880682704, 96.390, 2438.0, 49.3761
27.906943269, 96.390, 2395.0, 48.9387
27.933203835, 96.390, 2420.0, 49.1935
27.959464400, 96.390, 2344.0, 48.4149
27.985724965, 96.390, 2361.0, 48.5901
28.011985531, 96.390, 2459.0, 49.5883
28.038246096, 96.390, 2309.0, 48.0521
28.064506661, 96.390, 2394.0, 48.9285
28.090767227, 96.390, 2437.0, 49.3660
28.117027792, 96.390, 2306.0, 48.0208
28.143288357, 96.390, 2449.0, 49.4874
28.169548923, 96.390, 2400.0, 48.9898
28.195809488, 96.390, 2375.0, 48.7340
28.222070054, 96.390, 2381.0, 48.7955
28.248330619, 96.390, 2373.0, 48.7134
28.274591184, 96.390, 2342.0, 48.3942
28.300851750, 96.390, 2330.0, 48.2701
28.327112315, 96.390, 2345.0, 48.4252
28.353372880, 96.390, 2330.0, 48.2701
28.379633446, 96.390, 2325.0, 48.2183
28.405894011, 96.390, 2309.0, 48.0521
28.432154576, 96.390, 2226.0, 47.1805
28.458415142, 96.390, 2346.0, 48.4355
28.484675707, 96.390, 2304.0, 48.0000
28.510936272, 96.390, 2337.0, 48.3425
28.537196838, 96.390, 2322.0, 48.1871
28.563457403, 96.390, 2283.0, 47.7807
28.589717968, 96.390, 2312.0, 48.0833
28.615978534, 96.390, 2265.0, 47.5920
28.642239099, 96.390, 2310.0, 48.0625
28.668499665, 96.390, 2192.0, 46.8188
28.694760230, 96.390, 2262.0, 47.5605
28.721020795, 96.390, 2293.0, 47.8853
28.747281361, 96.390, 2224.0, 47.1593
28.773541926, 96.390, 2157.0, 46.4435
28.799802491, 96.390, 2222.0, 47.1381
28.826063057, 96.390, 2205.0, 46.9574
28.852323622, 96.390, 2138.0, 46.2385
28.878584187, 96.390, 2327.0, 48.2390
28.904844753, 96.390, 2093.0, 45.7493
28.931105318, 96.390, 2146.0, 46.3249
28.957365883, 96.390, 2245.0, 47.3814
28.983626449, 96.390, 2233.0, 47.2546
29.009887014, 96.390, 2208.0, 46.9894
29.036147579, 96.390, 2246.0, 47.3920
29.062408145, 96.390, 2212.0, 47.0319
29.088668710, 96.390, 2158.0, 46.4543
29.114929276, 96.390, 2228.0, 47.2017
29.141189841, 96.390, 2068.0, 45.4753
29.167450406, 96.390, 2249.0, 47.4236
29.193710972, 96.390, 2188.0, 46.7761
29.219971537, 96.390, 2234.0, 47.2652
29.246232102, 96.390, 2210.0, 47.0106
29.272492668, 96.390, 2234.0, 47.2652
29.298753233, 96.390, 2186.0, 46.7547
29.325013798, 96.390, 2299.0, 47.9479
29.351274364, 96.390, 2282.0, 47.7703
29.377534929, 96.390, 2254.0, 47.4763
29.403795494, 96.390, 2262.0, 47.5605
29.430056060, 96.390, 2488.0, 49.8799
29.456316625, 96.390, 2379.0, 48.7750
29.482577191, 96.390, 2496.0, 49.9600
29.508837756, 96.390, 2572.0, 50.7149
29.535098321, 96.390, 2629.0, 51.2738
29.561358887, 96.390, 2665.0, 51.6236
29.587619452, 96.390, 2820.0, 53.1037
29.613880017, 96.390, 2917.0, 54.0093
29.640140583, 96.390, 3084.0, 55.5338
29.666401148, 96.390, 3123.0, 55.8838
29.692661713, 96.390, 3027.0, 55.0182
29.718922279, 96.390, 3135.0, 55.9911
29.745182844, 96.390, 3004.0, 54.8088
29.771443409, 96.390, 3001.0, 54.7814
29.797703975, 96.390, 2951.0, 54.3231
29.823964540, 96.390, 2747.0, 52.4118
29.850225105, 96.390, 2761.0, 52.5452
29.876485671, 96.390, 2609.0, 51.0784
29.902746236, 96.390, 2507.0, 50.0700
29.929006802, 96.390, 2399.0, 48.9796
29.955267367, 96.390, 2440.0, 49.3964
29.981527932, 96.390, 2403.0, 49.0204
30.007788498, 96.390, 2260.0, 47.5395
30.034049063, 96.390, 2298.0, 47.9375
30.060309628, 96.390, 2222.0, 47.1381
30.086570194, 96.390, 2074.0, 45.5412
30.112830759, 96.390, 2188.0, 46.7761
30.139091324, 96.390, 2221.0, 47.1275
30.165351890, 96.390, 2177.0, 46.6583
30.191612455, 96.390, 2114.0, 45.9783
30.217873020, 96.390, 2222.0, 47.1381
30.244133586, 96.390, 2127.0, 46.1194
30.270394151, 96.390, 2267.0, 47.6130
30.296654717, 96.390, 2197.0, 46.8722
30.322915282, 96.390, 2264.0, 47.5815
30.349175847, 96.390, 2167.0, 46.5510
30.375436413, 96.390, 2210.0, 47.0106
30.401696978, 96.390, 2180.0, 46.6905
30.427957543, 96.390, 2188.0, 46.7761
30.454218109, 96.390, 2216.0, 47.0744
30.480478674, 96.390, 2201.0, 46.9148
30.506739239, 96.390, 2167.0, 46.5510
30.532999805, 96.390, 2161.0, 46.4866
30.559260370, 96.390, 2194.0, 46.8402
30.585520935, 96.390, 2083.0, 45.6399
30.611781501, 96.390, 2108.0, 45.9130
30.638042066, 96.390, 1972.0, 44.4072
30.664302631, 96.390, 2025.0, 45.0000
30.690563197, 96.390, 1984.0, 44.5421
30.716823762, 96.390, 1945.0, 44.1022
30.743084328, 96.390, 1957.0, 44.2380
30.769344893, 96.390, 1943.0, 44.0795
30.795605458, 96.390, 1930.0, 43.9318
30.821866024, 96.390, 1971.0, 44.3959
30.848126589, 96.390, 1882.0, 43.3820
30.874387154, 96.390, 1929.0, 43.9204
30.900647720, 96.390, 1929.0, 43.9204
30.926908285, 96.390, 1875.0, 43.3013
30.953168850, 96.390, 1902.0, 43.6119
30.979429416, 96.390, 1807.0, 42.5088
31.005689981, 96.390, 1911.0, 43.7150
31.031950546, 96.390, 1867.0, 43.2088
31.058211112, 96.390, 1777.0, 42.1545
31.084471677, 96.390, 1794.0, 42.3556
31.110732243, 96.390, 1807.0, 42.5088
31.136992808, 96.390, 1814.0, 42.5911
31.163253373, 96.390, 1815.0, 42.6028
31.189513939, 96.390, 1728.0, 41.5692
31.215774504, 96.390, 1783.0, 42.2256
31.242035069, 96.390, 1717.0, 41.4367
31.268295635, 96.390, 1735.0, 41.6533
31.294556200, 96.390, 1728.0, 41.5692
31.320816765, 96.390, 1721.0, 41.4849
31.347077331, 96.390, 1731.0, 41.6053
31.373337896, 96.390, 1745.0, 41.7732
31.399598461, 96.390, 1743.0, 41.7493
31.425859027, 96.390, 1721.0, 41.4849
31.452119592, 96.390, 1813.0, 42.5793
31.478380157, 96.390, 1703.0, 41.2674
31.504640723, 96.390, 1754.0, 41.8808
31.530901288, 96.390, 1672.0, 40.8901
31.557161854, 96.390, 1668.0, 40.8412
31.583422419, 96.390, 1712.0, 41.3763
31.609682984, 96.390, 1627.0, 40.3361
31.635943550, 96.390, 1783.0, 42.2256
31.662204115, 96.390, 1750.0, 41.8330
31.688464680, 96.390, 1687.0, 41.0731
31.714725246, 96.390, 1743.0, 41.7493
31.740985811, 96.390, 1755.0, 41.8927
31.767246376, 96.390, 1671.0, 40.8779
31.793506942, 96.390, 1688.0, 41.0853
31.819767507, 96.390, 1697.0, 41.1947
31.846028072, 96.390, 1686.0, 41.0609
31.872288638, 96.390, 1636.0, 40.4475
31.898549203, 96.390, 1690.0, 41.1096
31.924809769, 96.390, 1703.0, 41.2674
31.951070334, 96.390, 1620.0, 40.2492
31.977330899, 96.390, 1684.0, 41.0366
32.003591465, 96.390, 1592.0, 39.8999
32.029852030, 96.390, 1645.0, 40.5586
32.056112595, 96.390, 1606.0, 40.0749
32.082373161, 96.390, 1645.0, 40.5586
32.108633726, 96.390, 1596.0, 39.9500
32.134894291, 96.390, 1625.0, 40.3113
32.161154857, 96.390, 1608.0, 40.0999
32.187415422, 96.390, 1645.0, 40.5586
32.213675987, 96.390, 1561.0, 39.5095
32.239936553, 96.390, 1633.0, 40.4104
32.266197118, 96.390, 1608.0, 40.0999
32.292457683, 96.390, 1556.0, 39.4462
32.318718249, 96.390, 1590.0, 39.8748
32.344978814, 96.390, 1562.0, 39.5221
32.371239380, 96.390, 1572.0, 39.6485
32.397499945, 96.390, 1578.0, 39.7240
32.423760510, 96.390, 1634.0, 40.4228
32.450021076, 96.390, 1750.0, 41.8330
32.476281641, 96.390, 1538.0, 39.2173
32.502542206, 96.390, 1562.0, 39.5221
32.528802772, 96.390, 1591.0, 39.8873
32.555063337, 96.390, 1573.0, 39.6611
32.581323902, 96.390, 1592.0, 39.8999
32.607584468, 96.390, 1531.0, 39.1280
32.633845033, 96.390, 1530.0, 39.1152
32.660105598, 96.390, 1468.0, 38.3145
32.686366164, 96.390, 1548.0, 39.3446
32.712626729, 96.390, 1557.0, 39.4588
32.738887295, 96.390, 1500.0, 38.7298
32.765147860, 96.390, 1495.0, 38.6652
32.791408425, 96.390, 1518.0, 38.9615
32.817668991, 96.390, 1533.0, 39.1535
32.843929556, 96.390, 1467.0, 38.3014
32.870190121, 96.390, 1540.0, 39.2428
32.896450687, 96.390, 1475.0, 38.4057
32.922711252, 96.390, 1424.0, 37.7359
32.948971817, 96.390, 1498.0, 38.7040
32.975232383, 96.390, 1522.0, 39.0128
33.001492948, 96.390, 1437.0, 37.9078
33.027753513, 96.390, 1499.0, 38.7169
33.054014079, 96.390, 1488.0, 38.5746
33.080274644, 96.390, 1429.0, 37.8021
33.106535209, 96.390, 1507.0, 38.8201
33.132795775, 96.390, 1448.0, 38.0526
33.159056340, 96.390, 1486.0, 38.5487
33.185316906, 96.390, 1510.0, 38.8587
33.211577471, 96.390, 1413.0, 37.5899
33.237838036, 96.390, 1431.0, 37.8286
33.264098602, 96.390, 1406.0, 37.4967
33.290359167, 96.390, 1457.0, 38.1707
33.316619732, 96.390, 1351.0, 36.7560
33.342880298, 96.390, 1456.0, 38.1576
33.369140863, 96.390, 1417.0, 37.6431
33.395401428, 96.390, 1494.0, 38.6523
33.421661994, 96.390, 1485.0, 38.5357
33.447922559, 96.390, 1470.0, 38.3406
33.474183124, 96.390, 1408.0, 37.5233
33.500443690, 96.390, 1488.0, 38.5746
33.526704255, 96.390, 1496.0, 38.6782
33.552964820, 96.390, 1455.0, 38.1445
33.579225386, 96.390, 1431.0, 37.8286
33.605485951, 96.390, 1388.0, 37.2559
33.631746517, 96.390, 1445.0, 38.0132
33.658007082, 96.390, 1406.0, 37.4967
33.684267647, 96.390, 1449.0, 38.0657
33.710528213, 96.390, 1428.0, 37.7889
33.736788778, 96.390, 1349.0, 36.7287
33.763049343, 96.390, 1436.0, 37.8946
33.789309909, 96.390, 1415.0, 37.6165
33.815570474, 96.390, 1388.0, 37.2559
33.841831039, 96.390, 1379.0, 37.1349
33.868091605, 96.390, 1355.0, 36.8103
33.894352170, 96.390, 1375.0, 37.0810
33.920612735, 96.390, 1382.0, 37.1753
33.946873301, 96.390, 1370.0, 37.0135
33.973133866, 96.390, 1369.0, 37.0000
33.999394432, 96.390, 1394.0, 37.3363
34.025654997, 96.390, 1376.0, 37.0945
34.051915562, 96.390, 1422.0, 37.7094
34.078176128, 96.390, 1397.0, 37.3765
34.104436693, 96.390, 1385.0, 37.2156
34.130697258, 96.390, 1453.0, 38.1182
34.156957824, 96.390, 1380.0, 37.1484
34.183218389, 96.390, 1377.0, 37.1080
34.209478954, 96.390, 1381.0, 37.1618
34.235739520, 96.390, 1370.0, 37.0135
34.262000085, 96.390, 1305.0, 36.1248
34.288260650, 96.390, 1330.0, 36.4692
34.314521216, 96.390, 1399.0, 37.4032
34.340781781, 96.390, 1376.0, 37.0945
34.367042346, 96.390, 1324.0, 36.3868
34.393302912, 96.390, 1379.0, 37.1349
34.419563477, 96.390, 1380.0, 37.1484
34.445824043, 96.390, 1337.0, 36.5650
34.472084608, 96.390, 1418.0, 37.6563
34.498345173, 96.390, 1358.0, 36.8511
34.524605739, 96.390, 1337.0, 36.5650
34.550866304, 96.390, 1273.0, 35.6791
34.577126869, 96.390, 1340.0, 36.6060
34.603387435, 96.390, 1334.0, 36.5240
34.629648000, 96.390, 1374.0, 37.0675
34.655908565, 96.390, 1313.0, 36.2353
34.682169131, 96.390, 1294.0, 35.9722
34.708429696, 96.390, 1264.0, 35.5528
34.734690261, 96.390, 1329.0, 36.4555
34.760950827, 96.390, 1352.0, 36.7696
34.787211392, 96.390, 1339.0, 36.5923
34.813471958, 96.390, 1312.0, 36.2215
34.839732523, 96.390, 1291.0, 35.9305
34.865993088, 96.390, 1297.0, 36.0139
34.892253654, 96.390, 1298.0, 36.0278
34.918514219, 96.390, 1384.0, 37.2022
34.944774784, 96.390, 1325.0, 36.4005
34.971035350, 96.390, 1296.0, 36.0000
34.997295915, 96.390, 1385.0, 37.2156
35.023556480, 96.390, 1311.0, 36.2077
35.049817046, 96.390, 1244.0, 35.2704
35.076077611, 96.390, 1309.0, 36.1801
35.102338176, 96.390, 1290.0, 35.9166
35.128598742, 96.390, 1287.0, 35.8748
35.154859307, 96.390, 1343.0, 36.6470
35.181119872, 96.390, 1286.0, 35.8608
35.207380438, 96.390, 1280.0, 35.7771
35.233641003, 96.390, 1362.0, 36.9053
35.259901569, 96.390, 1346.0, 36.6879
35.286162134, 96.390, 1346.0, 36.6879
35.312422699, 96.390, 1386.0, 37.2290
35.338683265, 96.390, 1361.0, 36.8917
35.364943830, 96.390, 1400.0, 37.4166
35.391204395, 96.390, 1347.0, 36.7015
35.417464961, 96.390, 1423.0, 37.7227
35.443725526, 96.390, 1358.0, 36.8511
35.469986091, 96.390, 1383.0, 37.1887
35.496246657, 96.390, 1373.0, 37.0540
35.522507222, 96.390, 1396.0, 37.3631
35.548767787, 96.390, 1367.0, 36.9730
35.575028353, 96.390, 1350.0, 36.7423
35.601288918, 96.390, 1345.0, 36.6742
35.627549484, 96.390, 1325.0, 36.4005
35.653810049, 96.390, 1368.0, 36.9865
35.680070614, 96.390, 1332.0, 36.4966
35.706331180, 96.390, 1364.0, 36.9324
35.732591745, 96.390, 1338.0, 36.5787
35.758852310, 96.390, 1337.0, 36.5650
35.785112876, 96.390, 1347.0, 36.7015
35.811373441, 96.390, 1278.0, 35.7491
35.837634006, 96.390, 1324.0, 36.3868
35.863894572, 96.390, 1314.0, 36.2491
35.890155137, 96.390, 1299.0, 36.0416
35.916415702, 96.390, 1304.0, 36.1109
35.942676268, 96.390, 1285.0, 35.8469
35.968936833, 96.390, 1268.0, 35.6090
35.995197398, 96.390, 1246.0, 35.2987
36.021457964, 96.390, 1178.0, 34.3220
36.047718529, 96.390, 1260.0, 35.4965
36.073979095, 96.390, 1226.0, 35.0143
36.100239660, 96.390, 1217.0, 34.8855
36.126500225, 96.390, 1261.0, 35.5106
36.152760791, 96.390, 1198.0, 34.6121
36.179021356, 96.390, 1190.0, 34.4964
36.205281921, 96.390, 1219.0, 34.9142
36.231542487, 96.390, 1188.0, 34.4674
36.257803052, 96.390, 1195.0, 34.5688
36.284063617, 96.390, 1189.0, 34.4819
36.310324183, 96.390, 1218.0, 34.8999
36.336584748, 96.390, 1232.0, 35.0999
36.362845313, 96.390, 1179.0, 34.3366
36.389105879, 96.390, 1120.0, 33.4664
36.415366444, 96.390, 1156.0, 34.0000
36.441627010, 96.390, 1181.0, 34.3657
36.467887575, 96.390, 1210.0, 34.7851
36.494148140, 96.390, 1127.0, 33.5708
36.520408706, 96.390, 1190.0, 34.4964
36.546669271, 96.390, 1151.0, 33.9264
36.572929836, 96.390, 1165.0, 34.1321
36.599190402, 96.390, 1128.0, 33.5857
36.625450967, 96.390, 1244.0, 35.2704
36.651711532, 96.390, 1166.0, 34.1467
36.677972098, 96.390, 1165.0, 34.1321
36.704232663, 96.390, 1160.0, 34.0588
36.730493228, 96.390, 1187.0, 34.4529
36.756753794, 96.390, 1128.0, 33.5857
36.783014359, 96.390, 1140.0, 33.7639
36.809274924, 96.390, 1177.0, 34.3074
36.835535490, 96.390, 1218.0, 34.8999
36.861796055, 96.390, 1150.0, 33.9116
36.888056621, 96.390, 1151.0, 33.9264
36.914317186, 96.390, 1161.0, 34.0735
36.940577751, 96.390, 1113.0, 33.3617
36.966838317, 96.390, 1209.0, 34.7707
36.993098882, 96.390, 1133.0, 33.6601
37.019359447, 96.390, 1135.0, 33.6898
37.045620013, 96.390, 1178.0, 34.3220
37.071880578, 96.390, 1131.0, 33.6303
37.098141143, 96.390, 1124.0, 33.5261
37.124401709, 96.390, 1134.0, 33.6749
37.150662274, 96.390, 1193.0, 34.5398
37.176922839, 96.390, 1075.0, 32.7872
37.203183405, 96.390, 1183.0, 34.3948
37.229443970, 96.390, 1138.0, 33.7343
37.255704535, 96.390, 1099.0, 33.1512
37.281965101, 96.390, 1223.0, 34.9714
37.308225666, 96.390, 1166.0, 34.1467
37.334486232, 96.390, 1058.0, 32.5269
37.360746797, 96.390, 1115.0, 33.3916
37.387007362, 96.390, 1103.0, 33.2114
37.413267928, 96.390, 1111.0, 33.3317
37.439528493, 96.390, 1102.0, 33.1964
37.465789058, 96.390, 1151.0, 33.9264
37.492049624, 96.390, 1142.0, 33.7935
37.518310189, 96.390, 1173.0, 34.2491
37.544570754, 96.390, 1125.0, 33.5410
37.570831320, 96.390, 1122.0, 33.4963
37.597091885, 96.390, 1055.0, 32.4808
37.623352450, 96.390, 1180.0, 34.3511
37.649613016, 96.390, 1118.0, 33.4365
37.675873581, 96.390, 1121.0, 33.4813
37.702134147, 96.390, 1143.0, 33.8083
37.728394712, 96.390, 1139.0, 33.7491
37.754655277, 96.390, 1110.0, 33.3167
37.780915843, 96.390, 1050.0, 32.4037
37.807176408, 96.390, 1156.0, 34.0000
37.833436973, 96.390, 1090.0, 33.0151
37.859697539, 96.390, 1059.0, 32.5423
37.885958104, 96.390, 1068.0, 32.6803
37.912218669, 96.390, 1081.0, 32.8786
37.938479235, 96.390, 1086.0, 32.9545
37.964739800, 96.390, 1073.0, 32.7567
37.991000365, 96.390, 1035.0, 32.1714
38.017260931, 96.390, 1108.0, 33.2866
38.043521496, 96.390, 1134.0, 33.6749
38.069782061, 96.390, 1089.0, 33.0000
38.096042627, 96.390, 1062.0, 32.5883
38.122303192, 96.390, 1044.0, 32.3110
38.148563758, 96.390, 1074.0, 32.7719
38.174824323, 96.390, 1052.0, 32.4345
38.201084888, 96.390, 1081.0, 32.8786
38.227345454, 96.390, 1065.0, 32.6343
38.253606019, 96.390, 1119.0, 33.4515
38.279866584, 96.390, 1044.0, 32.3110
38.306127150, 96.390, 1061.0, 32.5730
38.332387715, 96.390, 1089.0, 33.0000
38.358648280, 96.390, 1044.0, 32.3110
38.384908846, 96.390, 1077.0, 32.8177
38.411169411, 96.390, 1065.0, 32.6343
38.437429976, 96.390, 1084.0, 32.9242
38.463690542, 96.390, 1133.0, 33.6601
38.489951107, 96.390, 1011.0, 31.7962
38.516211673, 96.390, 1046.0, 32.3419
38.542472238, 96.390, 1017.0, 31.8904
38.568732803, 96.390, 1075.0, 32.7872
38.594993369, 96.390, 1068.0, 32.6803
38.621253934, 96.390, 1004.0, 31.6860
38.647514499, 96.390, 1078.0, 32.8329
38.673775065, 96.390, 1024.0, 32.0000
38.700035630, 96.390, 1066.0, 32.6497
38.726296195, 96.390, 1067.0, 32.6650
38.752556761, 96.390, 1020.0, 31.9374
38.778817326, 96.390, 954.0, 30.8869
38.805077891, 96.390, 1028.0, 32.0624
38.831338457, 96.390, 958.0, 30.9516
38.857599022, 96.390, 990.0, 31.4643
38.883859587, 96.390, 1013.0, 31.8277
38.910120153, 96.390, 994.0, 31.5278
38.936380718, 96.390, 1003.0, 31.6702
38.962641284, 96.390, 975.0, 31.2250
38.988901849, 96.390, 1022.0, 31.9687
39.015162414, 96.390, 971.0, 31.1609
39.041422980, 96.390, 936.0, 30.5941
39.067683545, 96.390, 931.0, 30.5123
39.093944110, 96.390, 972.0, 31.1769
39.120204676, 96.390, 1011.0, 31.7962
39.146465241, 96.390, 1009.0, 31.7648
39.172725806, 96.390, 992.0, 31.4960
39.198986372, 96.390, 980.0, 31.3050
39.225246937, 96.390, 988.0, 31.4325
39.251507502, 96.390, 1013.0, 31.8277
39.277768068, 96.390, 998.0, 31.5911
39.304028633, 96.390, 1004.0, 31.6860
39.330289199, 96.390, 991.0, 31.4802
39.356549764, 96.390, 957.0, 30.9354
39.382810329, 96.390, 1005.0, 31.7017
39.409070895, 96.390, 954.0, 30.8869
39.435331460, 96.390, 982.0, 31.3369
39.461592025, 96.390, 966.0, 31.0805
39.487852591, 96.390, 972.0, 31.1769
39.514113156, 96.390, 990.0, 31.4643
39.540373721, 96.390, 997.0, 31.5753
39.566634287, 96.390, 959.0, 30.9677
39.592894852, 96.390, 914.0, 30.2324
39.619155417, 96.390, 957.0, 30.9354
39.645415983, 96.390, 937.0, 30.6105
39.671676548, 96.390, 1005.0, 31.7017
39.697937113, 96.390, 953.0, 30.8707
39.724197679, 96.390, 994.0, 31.5278
39.750458244, 96.390, 977.0, 31.2570
39.776718810, 96.390, 969.0, 31.1288
39.802979375, 96.390, 972.0, 31.1769
39.829239940, 96.390, 990.0, 31.4643
39.855500506, 96.390, 1021.0, 31.9531
39.881761071, 96.390, 912.0, 30.1993
39.908021636, 96.390, 947.0, 30.7734
39.934282202, 96.390, 961.0, 31.0000
39.960542767, 96.390, 973.0, 31.1929
39.986803332, 96.390, 926.0, 30.4302
40.013063898, 96.390, 1012.0, 31.8119
40.039324463, 96.390, 908.0, 30.1330
40.065585028, 96.390, 985.0, 31.3847
40.091845594, 96.390, 944.0, 30.7246
40.118106159, 96.390, 961.0, 31.0000
40.144366725, 96.390, 927.0, 30.4467
40.170627290, 96.390, 1014.0, 31.8434
40.196887855, 96.390, 942.0, 30.6920
40.223148421, 96.390, 937.0, 30.6105
40.249408986, 96.390, 941.0, 30.6757
40.275669551, 96.390, 921.0, 30.3480
40.301930117, 96.390, 957.0, 30.9354
40.328190682, 96.390, 1033.0, 32.1403
40.354451247, 96.390, 988.0, 31.4325
40.380711813, 96.390, 955.0, 30.9031
40.406972378, 96.390, 1003.0, 31.6702
40.433232943, 96.390, 923.0, 30.3809
40.459493509, 96.390, 980.0, 31.3050
40.485754074, 96.390, 998.0, 31.5911
40.512014639, 96.390, 920.0, 30.3315
40.538275205, 96.390, 926.0, 30.4302
40.564535770, 96.390, 976.0, 31.2410
40.590796336, 96.390, 973.0, 31.1929
40.617056901, 96.390, 963.0, 31.0322
40.643317466, 96.390, 920.0, 30.3315
40.669578032, 96.390, 951.0, 30.8383
40.695838597, 96.390, 959.0, 30.9677
40.722099162, 96.390, 953.0, 30.8707
40.748359728, 96.390, 975.0, 31.2250
40.774620293, 96.390, 976.0, 31.2410
40.800880858, 96.390, 910.0, 30.1662
40.827141424, 96.390, 954.0, 30.8869
40.853401989, 96.390, 965.0, 31.0644
40.879662554, 96.390, 928.0, 30.4631
40.905923120, 96.390, 914.0, 30.2324
40.932183685, 96.390, 931.0, 30.5123
40.958444251, 96.390, 938.0, 30.6268
40.984704816, 96.390, 932.0, 30.5287
41.010965381, 96.390, 910.0, 30.1662
41.037225947, 96.390, 917.0, 30.2820
41.063486512, 96.390, 935.0, 30.5778
41.089747077, 96.390, 918.0, 30.2985
41.116007643, 96.390, 910.0, 30.1662
41.142268208, 96.390, 908.0, 30.1330
41.168528773, 96.390, 895.0, 29.9166
41.194789339, 96.390, 881.0, 29.6816
41.221049904, 96.390, 990.0, 31.4643
41.247310469, 96.390, 904.0, 30.0666
41.273571035, 96.390, 920.0, 30.3315
41.299831600, 96.390, 970.0, 31.1448
41.326092165, 96.390, 930.0, 30.4959
41.352352731, 96.390, 948.0, 30.7896
41.378613296, 96.390, 961.0, 31.0000
41.404873862, 96.390, 969.0, 31.1288
41.431134427, 96.390, 961.0, 31.0000
41.457394992, 96.390, 897.0, 29.9500
41.483655558, 96.390, 940.0, 30.6594
41.509916123, 96.390, 939.0, 30.6431
41.536176688, 96.390, 943.0, 30.7083
41.562437254, 96.390, 883.0, 29.7153
41.588697819, 96.390, 995.0, 31.5436
41.614958384, 96.390, 890.0, 29.8329
41.641218950, 96.390, 910.0, 30.1662
41.667479515, 96.390, 956.0, 30.9192
41.693740080, 96.390, 907.0, 30.1164
41.720000646, 96.390, 921.0, 30.3480
41.746261211, 96.390, 948.0, 30.7896
41.772521776, 96.390, 910.0, 30.1662
41.798782342, 96.390, 947.0, 30.7734
41.825042907, 96.390, 887.0, 29.7825
41.851303473, 96.390, 965.0, 31.0644
41.877564038, 96.390, 926.0, 30.4302
41.903824603, 96.390, 866.0, 29.4279
41.930085169, 96.390, 905.0, 30.0832
41.956345734, 96.390, 907.0, 30.1164
41.982606299, 96.390, 885.0, 29.7489
42.008866865, 96.390, 915.0, 30.2490
42.035127430, 96.390, 925.0, 30.4138
42.061387995, 96.390, 908.0, 30.1330
42.087648561, 96.390, 876.0, 29.5973
42.113909126, 96.390, 953.0, 30.8707
42.140169691, 96.390, 959.0, 30.9677
42.166430257, 96.390, 978.0, 31.2730
42.192690822, 96.390, 926.0, 30.4302
42.218951388, 96.390, 898.0, 29.9666
42.245211953, 96.390, 924.0, 30.3974
42.271472518, 96.390, 925.0, 30.4138
42.297733084, 96.390, 913.0, 30.2159
42.323993649, 96.390, 880.0, 29.6648
42.350254214, 96.390, 905.0, 30.0832
42.376514780, 96.390, 928.0, 30.4631
42.402775345, 96.390, 936.0, 30.5941
42.429035910, 96.390, 981.0, 31.3209
42.455296476, 96.390, 905.0, 30.0832
42.481557041, 96.390, 920.0, 30.3315
42.507817606, 96.390, 953.0, 30.8707
42.534078172, 96.390, 899.0, 29.9833
42.560338737, 96.390, 949.0, 30.8058
42.586599302, 96.390, 915.0, 30.2490
42.612859868, 96.390, 923.0, 30.3809
42.639120433, 96.390, 915.0, 30.2490
42.665380999, 96.390, 954.0, 30.8869
42.691641564, 96.390, 940.0, 30.6594
42.717902129, 96.390, 946.0, 30.7571
42.744162695, 96.390, 979.0, 31.2890
42.770423260, 96.390, 975.0, 31.2250
42.796683825, 96.390, 951.0, 30.8383
42.822944391, 96.390, 930.0, 30.4959
42.849204956, 96.390, 986.0, 31.4006
42.875465521, 96.390, 970.0, 31.1448
42.901726087, 96.390, 1004.0, 31.6860
42.927986652, 96.390, 925.0, 30.4138
42.954247217, 96.390, 944.0, 30.7246
42.980507783, 96.390, 1038.0, 32.2180
43.006768348, 96.390, 967.0, 31.0966
43.033028914, 96.390, 987.0, 31.4166
43.059289479, 96.390, 1055.0, 32.4808
43.085550044, 96.390, 1030.0, 32.0936
43.111810610, 96.390, 1038.0, 32.2180
43.138071175, 96.390, 995.0, 31.5436
43.164331740, 96.390, 1028.0, 32.0624
43.190592306, 96.390, 1023.0, 31.9844
43.216852871, 96.390, 986.0, 31.4006
43.243113436, 96.390, 962.0, 31.0161
43.269374002, 96.390, 989.0, 31.4484
43.295634567, 96.390, 913.0, 30.2159
43.321895132, 96.390, 1001.0, 31.6386
43.348155698, 96.390, 980.0, 31.3050
43.374416263, 96.390, 943.0, 30.7083
43.400676828, 96.390, 967.0, 31.0966
43.426937394, 96.390, 945.0, 30.7409
43.453197959, 96.390, 948.0, 30.7896
43.479458525, 96.390, 935.0, 30.5778
43.505719090, 96.390, 939.0, 30.6431
43.531979655, 96.390, 969.0, 31.1288
43.558240221, 96.390, 948.0, 30.7896
43.584500786, 96.390, 897.0, 29.9500
43.610761351, 96.390, 965.0, 31.0644
43.637021917, 96.390, 920.0, 30.3315
43.663282482, 96.390, 928.0, 30.4631
43.689543047, 96.390, 920.0, 30.3315
43.715803613, 96.390, 949.0, 30.8058
43.742064178, 96.390, 981.0, 31.3209
43.768324743, 96.390, 927.0, 30.4467
43.794585309, 96.390, 1005.0, 31.7017
43.820845874, 96.390, 879.0, 29.6479
43.847106440, 96.390, 910.0, 30.1662
43.873367005, 96.390, 976.0, 31.2410
43.899627570, 96.390, 1049.0, 32.3883
43.925888136, 96.390, 929.0, 30.4795
43.952148701, 96.390, 1006.0, 31.7175
43.978409266, 96.390, 951.0, 30.8383
44.004669832, 96.390, 1018.0, 31.9061
44.030930397, 96.390, 1018.0, 31.9061
44.057190962, 96.390, 943.0, 30.7083
44.083451528, 96.390, 957.0, 30.9354
44.109712093, 96.390, 962.0, 31.0161
44.135972658, 96.390, 982.0, 31.3369
44.162233224, 96.390, 952.0, 30.8545
44.188493789, 96.390, 970.0, 31.1448
44.214754354, 96.390, 957.0, 30.9354
44.241014920, 96.390, 1020.0, 31.9374
44.267275485, 96.390, 1005.0, 31.7017
44.293536051, 96.390, 953.0, 30.8707
44.319796616, 96.390, 945.0, 30.7409
44.346057181, 96.390, 978.0, 31.2730
44.372317747, 96.390, 981.0, 31.3209
44.398578312, 96.390, 948.0, 30.7896
44.424838877, 96.390, 940.0, 30.6594
44.451099443, 96.390, 950.0, 30.8221
44.477360008, 96.390, 946.0, 30.7571
44.503620573, 96.390, 918.0, 30.2985
44.529881139, 96.390, 913.0, 30.2159
44.556141704, 96.390, 891.0, 29.8496
44.582402269, 96.390, 973.0, 31.1929
44.608662835, 96.390, 949.0, 30.8058
44.634923400, 96.390, 920.0, 30.3315
44.661183966, 96.390, 917.0, 30.2820
44.687444531, 96.390, 927.0, 30.4467
44.713705096, 96.390, 910.0, 30.1662
44.739965662, 96.390, 881.0, 29.6816
44.766226227, 96.390, 914.0, 30.2324
44.792486792, 96.390, 906.0, 30.0998
44.818747358, 96.390, 862.0, 29.3598
44.845007923, 96.390, 918.0, 30.2985
44.871268488, 96.390, 944.0, 30.7246
44.897529054, 96.390, 914.0, 30.2324
44.923789619, 96.390, 910.0, 30.1662
44.950050184, 96.390, 952.0, 30.8545
44.976310750, 96.390, 902.0, 30.0333
45.002571315, 96.390, 952.0, 30.8545
45.028831880, 96.390, 919.0, 30.3150
45.055092446, 96.390, 886.0, 29.7658
45.081353011, 96.390, 957.0, 30.9354
45.107613577, 96.390, 902.0, 30.0333
45.133874142, 96.390, 922.0, 30.3645
45.160134707, 96.390, 928.0, 30.4631
45.186395273, 96.390, 958.0, 30.9516
45.212655838, 96.390, 881.0, 29.6816
45.238916403, 96.390, 835.0, 28.8964
45.265176969, 96.390, 912.0, 30.1993
45.291437534, 96.390, 896.0, 29.9333
45.317698099, 96.390, 969.0, 31.1288
45.343958665, 96.390, 900.0, 30.0000
45.370219230, 96.390, 895.0, 29.9166
45.396479795, 96.390, 879.0, 29.6479
45.422740361, 96.390, 878.0, 29.6311
45.449000926, 96.390, 848.0, 29.1204
45.475261492, 96.390, 935.0, 30.5778
45.501522057, 96.390, 875.0, 29.5804
45.527782622, 96.390, 900.0, 30.0000
45.554043188, 96.390, 846.0, 29.0861
45.580303753, 96.390, 848.0, 29.1204
45.606564318, 96.390, 927.0, 30.4467
45.632824884, 96.390, 879.0, 29.6479
45.659085449, 96.390, 908.0, 30.1330
45.685346014, 96.390, 864.0, 29.3939
45.711606580, 96.390, 880.0, 29.6648
45.737867145, 96.390, 858.0, 29.2916
45.764127710, 96.390, 899.0, 29.9833
45.790388276, 96.390, 876.0, 29.5973
45.816648841, 96.390, 924.0, 30.3974
45.842909406, 96.390, 866.0, 29.4279
45.869169972, 96.390, 916.0, 30.2655
45.895430537, 96.390, 791.0, 28.1247
45.921691103, 96.390, 881.0, 29.6816
45.947951668, 96.390, 893.0, 29.8831
45.974212233, 96.390, 903.0, 30.0500
46.000472799, 96.390, 886.0, 29.7658
46.026733364, 96.390, 860.0, 29.3258
46.052993929, 96.390, 853.0, 29.2062
46.079254495, 96.390, 880.0, 29.6648
46.105515060, 96.390, 864.0, 29.3939
46.131775625, 96.390, 869.0, 29.4788
46.158036191, 96.390, 828.0, 28.7750
46.184296756, 96.390, 877.0, 29.6142
46.210557321, 96.390, 821.0, 28.6531
46.236817887, 96.390, 875.0, 29.5804
46.263078452, 96.390, 963.0, 31.0322
46.289339017, 96.390, 902.0, 30.0333
46.315599583, 96.390, 873.0, 29.5466
46.341860148, 96.390, 952.0, 30.8545
46.368120714, 96.390, 807.0, 28.4077
46.394381279, 96.390, 853.0, 29.2062
46.420641844, 96.390, 950.0, 30.8221
46.446902410, 96.390, 876.0, 29.5973
46.473162975, 96.390, 854.0, 29.2233
46.499423540, 96.390, 904.0, 30.0666
46.525684106, 96.390, 885.0, 29.7489
46.551944671, 96.390, 912.0, 30.1993
46.578205236, 96.390, 870.0, 29.4958
46.604465802, 96.390, 857.0, 29.2746
46.630726367, 96.390, 902.0, 30.0333
46.656986932, 96.390, 859.0, 29.3087
46.683247498, 96.390, 873.0, 29.5466
46.709508063, 96.390, 888.0, 29.7993
46.735768629, 96.390, 912.0, 30.1993
46.762029194, 96.390, 851.0, 29.1719
46.788289759, 96.390, 862.0, 29.3598
46.814550325, 96.390, 870.0, 29.4958
46.840810890, 96.390, 887.0, 29.7825
46.867071455, 96.390, 858.0, 29.2916
46.893332021, 96.390, 845.0, 29.0689
46.919592586, 96.390, 820.0, 28.6356
46.945853151, 96.390, 836.0, 28.9137
46.972113717, 96.390, 844.0, 29.0517
46.998374282, 96.390, 843.0, 29.0345
47.024634847, 96.390, 882.0, 29.6985
47.050895413, 96.390, 884.0, 29.7321
47.077155978, 96.390, 840.0, 28.9828
47.103416543, 96.390, 877.0, 29.6142
47.129677109, 96.390, 844.0, 29.0517
47.155937674, 96.390, 832.0, 28.8444
47.182198240, 96.390, 841.0, 29.0000
47.208458805, 96.390, 893.0, 29.8831
47.234719370, 96.390, 821.0, 28.6531
47.260979936, 96.390, 872.0, 29.5296
47.287240501, 96.390, 835.0, 28.8964
47.313501066, 96.390, 917.0, 30.2820
47.339761632, 96.390, 872.0, 29.5296
47.366022197, 96.390, 843.0, 29.0345
47.392282762, 96.390, 922.0, 30.3645
47.418543328, 96.390, 826.0, 28.7402
47.444803893, 96.390, 860.0, 29.3258
47.471064458, 96.390, 855.0, 29.2404
47.497325024, 96.390, 852.0, 29.1890
47.523585589, 96.390, 862.0, 29.3598
47.549846155, 96.390, 881.0, 29.6816
47.576106720, 96.390, 862.0, 29.3598
47.602367285, 96.390, 882.0, 29.6985
47.628627851, 96.390, 888.0, 29.7993
47.654888416, 96.390, 842.0, 29.0172
47.681148981, 96.390, 829.0, 28.7924
47.707409547, 96.390, 869.0, 29.4788
47.733670112, 96.390, 864.0, 29.3939
47.759930677, 96.390, 825.0, 28.7228
47.786191243, 96.390, 824.0, 28.7054
47.812451808, 96.390, 847.0, 29.1033
47.838712373, 96.390, 884.0, 29.7321
47.864972939, 96.390, 888.0, 29.7993
47.891233504, 96.390, 872.0, 29.5296
47.917494069, 96.390, 862.0, 29.3598
47.943754635, 96.390, 851.0, 29.1719
47.970015200, 96.390, 854.0, 29.2233
47.996275766, 96.390, 853.0, 29.2062
48.022536331, 96.390, 876.0, 29.5973
48.048796896, 96.390, 827.0, 28.7576
48.075057462, 96.390, 867.0, 29.4449
48.101318027, 96.390, 904.0, 30.0666
48.127578592, 96.390, 863.0, 29.3769
48.153839158, 96.390, 864.0, 29.3939
48.180099723, 96.390, 848.0, 29.1204
48.206360288, 96.390, 864.0, 29.3939
48.232620854, 96.390, 860.0, 29.3258
48.258881419, 96.390, 808.0, 28.4253
48.285141984, 96.390, 880.0, 29.6648
48.311402550, 96.390, 845.0, 29.0689
48.337663115, 96.390, 865.0, 29.4109
48.363923681, 96.390, 806.0, 28.3901
48.390184246, 96.390, 856.0, 29.2575
48.416444811, 96.390, 878.0, 29.6311
48.442705377, 96.390, 918.0, 30.2985
48.468965942, 96.390, 816.0, 28.5657
48.495226507, 96.390, 913.0, 30.2159
48.521487073, 96.390, 893.0, 29.8831
48.547747638, 96.390, 903.0, 30.0500
48.574008203, 96.390, 856.0, 29.2575
48.600268769, 96.390, 861.0, 29.3428
48.626529334, 96.390, 919.0, 30.3150
48.652789899, 96.390, 884.0, 29.7321
48.679050465, 96.390, 869.0, 29.4788
48.705311030, 96.390, 884.0, 29.7321
48.731571595, 96.390, 915.0, 30.2490
48.757832161, 96.390, 901.0, 30.0167
48.784092726, 96.390, 848.0, 29.1204
48.810353292, 96.390, 898.0, 29.9666
48.836613857, 96.390, 891.0, 29.8496
48.862874422, 96.390, 891.0, 29.8496
48.889134988, 96.390, 912.0, 30.1993
48.915395553, 96.390, 884.0, 29.7321
48.941656118, 96.390, 943.0, 30.7083
48.967916684, 96.390, 874.0, 29.5635
48.994177249, 96.390, 849.0, 29.1376
49.020437814, 96.390, 795.0, 28.1957
49.046698380, 96.390, 861.0, 29.3428
49.072958945, 96.390, 862.0, 29.3598
49.099219510, 96.390, 810.0, 28.4605
49.125480076, 96.390, 889.0, 29.8161
49.151740641, 96.390, 829.0, 28.7924
49.178001207, 96.390, 868.0, 29.4618
49.204261772, 96.390, 882.0, 29.6985
49.230522337, 96.390, 902.0, 30.0333
49.256782903, 96.390, 955.0, 30.9031
49.283043468, 96.390, 850.0, 29.1548
49.309304033, 96.390, 805.0, 28.3725
49.335564599, 96.390, 910.0, 30.1662
49.361825164, 96.390, 884.0, 29.7321
49.388085729, 96.390, 854.0, 29.2233
49.414346295, 96.390, 850.0, 29.1548
49.440606860, 96.390, 907.0, 30.1164
49.466867425, 96.390, 919.0, 30.3150
49.493127991, 96.390, 895.0, 29.9166
49.519388556, 96.390, 914.0, 30.2324
49.545649121, 96.390, 871.0, 29.5127
49.571909687, 96.390, 868.0, 29.4618
49.598170252, 96.390, 866.0, 29.4279
49.624430818, 96.390, 859.0, 29.3087
49.650691383, 96.390, 921.0, 30.3480
49.676951948, 96.390, 896.0, 29.9333
49.703212514, 96.390, 866.0, 29.4279
49.729473079, 96.390, 854.0, 29.2233
49.755733644, 96.390, 853.0, 29.2062
49.781994210, 96.390, 887.0, 29.7825
49.808254775, 96.390, 855.0, 29.2404
49.834515340, 96.390, 851.0, 29.1719
49.860775906, 96.390, 884.0, 29.7321
49.887036471, 96.390, 854.0, 29.2233
49.913297036, 96.390, 880.0, 29.6648
49.939557602, 96.390, 863.0, 29.3769
49.965818167, 96.390, 836.0, 28.9137
49.992078732, 96.390, 806.0, 28.3901
50.018339298, 96.390, 881.0, 29.6816
50.044599863, 96.390, 831.0, 28.8271
50.070860429, 96.390, 806.0, 28.3901
50.097120994, 96.390, 832.0, 28.8444
50.123381559, 96.390, 880.0, 29.6648
50.149642125, 96.390, 793.0, 28.1603
50.175902690, 96.390, 830.0, 28.8097
50.202163255, 96.390, 813.0, 28.5132
50.228423821, 96.390, 901.0, 30.0167
50.254684386, 96.390, 783.0, 27.9821
50.280944951, 96.390, 757.0, 27.5136
50.307205517, 96.390, 734.0, 27.0924
50.333466082, 96.390, 795.0, 28.1957
50.359726647, 96.390, 825.0, 28.7228
50.385987213, 96.390, 779.0, 27.9106
50.412247778, 96.390, 793.0, 28.1603
50.438508344, 96.390, 758.0, 27.5318
50.464768909, 96.390, 822.0, 28.6705
50.491029474, 96.390, 812.0, 28.4956
50.517290040, 96.390, 799.0, 28.2666
50.543550605, 96.390, 827.0, 28.7576
50.569811170, 96.390, 815.0, 28.5482
50.596071736, 96.390, 841.0, 29.0000
50.622332301, 96.390, 821.0, 28.6531
50.648592866, 96.390, 809.0, 28.4429
50.674853432, 96.390, 832.0, 28.8444
50.701113997, 96.390, 846.0, 29.0861
50.727374562, 96.390, 848.0, 29.1204
50.753635128, 96.390, 803.0, 28.3373
50.779895693, 96.390, 847.0, 29.1033
50.806156258, 96.390, 810.0, 28.4605
50.832416824, 96.390, 801.0, 28.3019
50.858677389, 96.390, 830.0, 28.8097
50.884937955, 96.390, 748.0, 27.3496
50.911198520, 96.390, 810.0, 28.4605
50.937459085, 96.390, 785.0, 28.0179
50.963719651, 96.390, 756.0, 27.4955
50.989980216, 96.390, 766.0, 27.6767
51.016240781, 96.390, 786.0, 28.0357
51.042501347, 96.390, 812.0, 28.4956
51.068761912, 96.390, 816.0, 28.5657
51.095022477, 96.390, 814.0, 28.5307
51.121283043, 96.390, 738.0, 27.1662
51.147543608, 96.390, 807.0, 28.4077
51.173804173, 96.390, 775.0, 27.8388
51.200064739, 96.390, 827.0, 28.7576
51.226325304, 96.390, 815.0, 28.5482
51.252585870, 96.390, 735.0, 27.1109
51.278846435, 96.390, 802.0, 28.3196
51.305107000, 96.390, 758.0, 27.5318
51.331367566, 96.390, 803.0, 28.3373
51.357628131, 96.390, 802.0, 28.3196
51.383888696, 96.390, 739.0, 27.1846
51.410149262, 96.390, 784.0, 28.0000
51.436409827, 96.390, 745.0, 27.2947
51.462670392, 96.390, 780.0, 27.9285
51.488930958, 96.390, 800.0, 28.2843
51.515191523, 96.390, 812.0, 28.4956
51.541452088, 96.390, 733.0, 27.0740
51.567712654, 96.390, 841.0, 29.0000
51.593973219, 96.390, 771.0, 27.7669
51.620233784, 96.390, 773.0, 27.8029
51.646494350, 96.390, 792.0, 28.1425
51.672754915, 96.390, 734.0, 27.0924
51.699015481, 96.390, 823.0, 28.6880
51.725276046, 96.390, 816.0, 28.5657
51.751536611, 96.390, 811.0, 28.4781
51.777797177, 96.390, 815.0, 28.5482
51.804057742, 96.390, 754.0, 27.4591
51.830318307, 96.390, 811.0, 28.4781
51.856578873, 96.390, 820.0, 28.6356
51.882839438, 96.390, 729.0, 27.0000
51.909100003, 96.390, 758.0, 27.5318
51.935360569, 96.390, 829.0, 28.7924
51.961621134, 96.390, 829.0, 28.7924
51.987881699, 96.390, 776.0, 27.8568
52.014142265, 96.390, 770.0, 27.7489
52.040402830, 96.390, 808.0, 28.4253
52.066663396, 96.390, 748.0, 27.3496
52.092923961, 96.390, 769.0, 27.7308
52.119184526, 96.390, 759.0, 27.5500
52.145445092, 96.390, 764.0, 27.6405
52.171705657, 96.390, 748.0, 27.3496
52.197966222, 96.390, 818.0, 28.6007
52.224226788, 96.390, 813.0, 28.5132
52.250487353, 96.390, 767.0, 27.6948
52.276747918, 96.390, 801.0, 28.3019
52.303008484, 96.390, 802.0, 28.3196
52.329269049, 96.390, 845.0, 29.0689
52.355529614, 96.390, 791.0, 28.1247
52.381790180, 96.390, 825.0, 28.7228
52.408050745, 96.390, 844.0, 29.0517
52.434311310, 96.390, 786.0, 28.0357
52.460571876, 96.390, 789.0, 28.0891
52.486832441, 96.390, 813.0, 28.5132
52.513093007, 96.390, 787.0, 28.0535
52.539353572, 96.390, 784.0, 28.0000
52.565614137, 96.390, 767.0, 27.6948
52.591874703, 96.390, 778.0, 27.8927
52.618135268, 96.390, 797.0, 28.2312
52.644395833, 96.390, 728.0, 26.9815
52.670656399, 96.390, 776.0, 27.8568
52.696916964, 96.390, 736.0, 27.1293
52.723177529, 96.390, 793.0, 28.1603
52.749438095, 96.390, 795.0, 28.1957
52.775698660, 96.390, 784.0, 28.0000
52.801959225, 96.390, 826.0, 28.7402
52.828219791, 96.390, 759.0, 27.5500
52.854480356, 96.390, 759.0, 27.5500
52.880740922, 96.390, 750.0, 27.3861
52.907001487, 96.390, 834.0, 28.8791
52.933262052, 96.390, 766.0, 27.6767
52.959522618, 96.390, 798.0, 28.2489
52.985783183, 96.390, 778.0, 27.8927
53.012043748, 96.390, 756.0, 27.4955
53.038304314, 96.390, 792.0, 28.1425
53.064564879, 96.390, 741.0, 27.2213
53.090825444, 96.390, 803.0, 28.3373
53.117086010, 96.390, 738.0, 27.1662
53.143346575, 96.390, 781.0, 27.9464
53.169607140, 96.390, 771.0, 27.7669
53.195867706, 96.390, 816.0, 28.5657
53.222128271, 96.390, 821.0, 28.6531
53.248388836, 96.390, 722.0, 26.8701
53.274649402, 96.390, 766.0, 27.6767
53.300909967, 96.390, 807.0, 28.4077
53.327170533, 96.390, 814.0, 28.5307
53.353431098, 96.390, 790.0, 28.1069
53.379691663, 96.390, 792.0, 28.1425
53.405952229, 96.390, 824.0, 28.7054
53.432212794, 96.390, 808.0, 28.4253
53.458473359, 96.390, 829.0, 28.7924
53.484733925, 96.390, 801.0, 28.3019
53.510994490, 96.390, 778.0, 27.8927
53.537255055, 96.390, 782.0, 27.9643
53.563515621, 96.390, 786.0, 28.0357
53.589776186, 96.390, 798.0, 28.2489
53.616036751, 96.390, 768.0, 27.7128
53.642297317, 96.390, 799.0, 28.2666
53.668557882, 96.390, 749.0, 27.3679
53.694818448, 96.390, 747.0, 27.3313
53.721079013, 96.390, 803.0, 28.3373
53.747339578, 96.390, 767.0, 27.6948
53.773600144, 96.390, 834.0, 28.8791
53.799860709, 96.390, 793.0, 28.1603
53.826121274, 96.390, 719.0, 26.8142
53.852381840, 96.390, 814.0, 28.5307
53.878642405, 96.390, 820.0, 28.6356
53.904902970, 96.390, 788.0, 28.0713
53.931163536, 96.390, 827.0, 28.7576
53.957424101, 96.390, 792.0, 28.1425
53.983684666, 96.390, 846.0, 29.0861
54.009945232, 96.390, 790.0, 28.1069
54.036205797, 96.390, 778.0, 27.8927
54.062466362, 96.390, 808.0, 28.4253
54.088726928, 96.390, 834.0, 28.8791
54.114987493, 96.390, 774.0, 27.8209
54.141248059, 96.390, 789.0, 28.0891
54.167508624, 96.390, 788.0, 28.0713
54.193769189, 96.390, 819.0, 28.6182
54.220029755, 96.390, 830.0, 28.8097
54.246290320, 96.390, 794.0, 28.1780
54.272550885, 96.390, 810.0, 28.4605
54.298811451, 96.390, 793.0, 28.1603
54.325072016, 96.390, 799.0, 28.2666
54.351332581, 96.390, 794.0, 28.1780
54.377593147, 96.390, 802.0, 28.3196
54.403853712, 96.390, 811.0, 28.4781
54.430114277, 96.390, 853.0, 29.2062
54.456374843, 96.390, 774.0, 27.8209
54.482635408, 96.390, 811.0, 28.4781
54.508895973, 96.390, 810.0, 28.4605
54.535156539, 96.390, 805.0, 28.3725
54.561417104, 96.390, 803.0, 28.3373
54.587677670, 96.390, 841.0, 29.0000
54.613938235, 96.390, 842.0, 29.0172
54.640198800, 96.390, 800.0, 28.2843
54.666459366, 96.390, 804.0, 28.3549
54.692719931, 96.390, 798.0, 28.2489
54.718980496, 96.390, 791.0, 28.1247
54.745241062, 96.390, 792.0, 28.1425
54.771501627, 96.390, 827.0, 28.7576
54.797762192, 96.390, 819.0, 28.6182
54.824022758, 96.390, 753.0, 27.4408
54.850283323, 96.390, 837.0, 28.9310
54.876543888, 96.390, 808.0, 28.4253
54.902804454, 96.390, 806.0, 28.3901
54.929065019, 96.390, 811.0, 28.4781
54.955325585, 96.390, 775.0, 27.8388
54.981586150, 96.390, 760.0, 27.5681
55.007846715, 96.390, 818.0, 28.6007
55.034107281, 96.390, 771.0, 27.7669
55.060367846, 96.390, 743.0, 27.2580
55.086628411, 96.390, 733.0, 27.0740
55.112888977, 96.390, 768.0, 27.7128
55.139149542, 96.390, 766.0, 27.6767
55.165410107, 96.390, 770.0, 27.7489
55.191670673, 96.390, 813.0, 28.5132
55.217931238, 96.390, 828.0, 28.7750
55.244191803, 96.390, 825.0, 28.7228
55.270452369, 96.390, 785.0, 28.0179
55.296712934, 96.390, 806.0, 28.3901
55.322973499, 96.390, 724.0, 26.9072
55.349234065, 96.390, 762.0, 27.6043
55.375494630, 96.390, 808.0, 28.4253
55.401755196, 96.390, 791.0, 28.1247
55.428015761, 96.390, 772.0, 27.7849
55.454276326, 96.390, 731.0, 27.0370
55.480536892, 96.390, 769.0, 27.7308
55.506797457, 96.390, 752.0, 27.4226
55.533058022, 96.390, 844.0, 29.0517
55.559318588, 96.390, 791.0, 28.1247
55.585579153, 96.390, 805.0, 28.3725
55.611839718, 96.390, 792.0, 28.1425
55.638100284, 96.390, 813.0, 28.5132
55.664360849, 96.390, 772.0, 27.7849
55.690621414, 96.390, 726.0, 26.9444
55.716881980, 96.390, 750.0, 27.3861
55.743142545, 96.390, 784.0, 28.0000
55.769403111, 96.390, 807.0, 28.4077
55.795663676, 96.390, 770.0, 27.7489
55.821924241, 96.390, 824.0, 28.7054
55.848184807, 96.390, 752.0, 27.4226
55.874445372, 96.390, 790.0, 28.1069
55.900705937, 96.390, 776.0, 27.8568
55.926966503, 96.390, 782.0, 27.9643
55.953227068, 96.390, 777.0, 27.8747
55.979487633, 96.390, 705.0, 26.5518
56.005748199, 96.390, 772.0, 27.7849
56.032008764, 96.390, 774.0, 27.8209
56.058269329, 96.390, 740.0, 27.2029
56.084529895, 96.390, 769.0, 27.7308
56.110790460, 96.390, 811.0, 28.4781
56.137051025, 96.390, 776.0, 27.8568
56.163311591, 96.390, 786.0, 28.0357
56.189572156, 96.390, 825.0, 28.7228
56.215832722, 96.390, 742.0, 27.2397
56.242093287, 96.390, 739.0, 27.1846
56.268353852, 96.390, 766.0, 27.6767
56.294614418, 96.390, 785.0, 28.0179
56.320874983, 96.390, 834.0, 28.8791
56.347135548, 96.390, 790.0, 28.1069
56.373396114, 96.390, 825.0, 28.7228
56.399656679, 96.390, 781.0, 27.9464
56.425917244, 96.390, 800.0, 28.2843
56.452177810, 96.390, 758.0, 27.5318
56.478438375, 96.390, 804.0, 28.3549
56.504698940, 96.390, 787.0, 28.0535
56.530959506, 96.390, 780.0, 27.9285
56.557220071, 96.390, 781.0, 27.9464
56.583480637, 96.390, 813.0, 28.5132
56.609741202, 96.390, 787.0, 28.0535
56.636001767, 96.390, 771.0, 27.7669
56.662262333, 96.390, 813.0, 28.5132
56.688522898, 96.390, 786.0, 28.0357
56.714783463, 96.390, 806.0, 28.3901
56.741044029, 96.390, 824.0, 28.7054
56.767304594, 96.390, 846.0, 29.0861
56.793565159, 96.390, 861.0, 29.3428
56.819825725, 96.390, 724.0, 26.9072
56.846086290, 96.390, 804.0, 28.3549
56.872346855, 96.390, 783.0, 27.9821
56.898607421, 96.390, 797.0, 28.2312
56.924867986, 96.390, 787.0, 28.0535
56.951128551, 96.390, 787.0, 28.0535
56.977389117, 96.390, 768.0, 27.7128
57.003649682, 96.390, 777.0, 27.8747
57.029910248, 96.390, 842.0, 29.0172
57.056170813, 96.390, 816.0, 28.5657
57.082431378, 96.390, 809.0, 28.4429
57.108691944, 96.390, 846.0, 29.0861
57.134952509, 96.390, 820.0, 28.6356
57.161213074, 96.390, 790.0, 28.1069
57.187473640, 96.390, 786.0, 28.0357
57.213734205, 96.390, 806.0, 28.3901
57.239994770, 96.390, 839.0, 28.9655
57.266255336, 96.390, 757.0, 27.5136
57.292515901, 96.390, 790.0, 28.1069
57.318776466, 96.390, 731.0, 27.0370
57.345037032, 96.390, 803.0, 28.3373
57.371297597, 96.390, 801.0, 28.3019
57.397558163, 96.390, 828.0, 28.7750
57.423818728, 96.390, 811.0, 28.4781
57.450079293, 96.390, 790.0, 28.1069
57.476339859, 96.390, 845.0, 29.0689
57.502600424, 96.390, 778.0, 27.8927
57.528860989, 96.390, 747.0, 27.3313
57.555121555, 96.390, 791.0, 28.1247
57.581382120, 96.390, 828.0, 28.7750
57.607642685, 96.390, 772.0, 27.7849
57.633903251, 96.390, 754.0, 27.4591
57.660163816, 96.390, 807.0, 28.4077
57.686424381, 96.390, 783.0, 27.9821
57.712684947, 96.390, 769.0, 27.7308
57.738945512, 96.390, 775.0, 27.8388
57.765206077, 96.390, 757.0, 27.5136
57.791466643, 96.390, 795.0, 28.1957
57.817727208, 96.390, 787.0, 28.0535
57.843987774, 96.390, 745.0, 27.2947
57.870248339, 96.390, 798.0, 28.2489
57.896508904, 96.390, 815.0, 28.5482
57.922769470, 96.390, 801.0, 28.3019
57.949030035, 96.390, 795.0, 28.1957
57.975290600, 96.390, 799.0, 28.2666
58.001551166, 96.390, 783.0, 27.9821
58.027811731, 96.390, 796.0, 28.2135
58.054072296, 96.390, 765.0, 27.6586
58.080332862, 96.390, 798.0, 28.2489
58.106593427, 96.390, 784.0, 28.0000
58.132853992, 96.390, 842.0, 29.0172
58.159114558, 96.390, 849.0, 29.1376
58.185375123, 96.390, 775.0, 27.8388
58.211635689, 96.390, 813.0, 28.5132
58.237896254, 96.390, 858.0, 29.2916
58.264156819, 96.390, 824.0, 28.7054
58.290417385, 96.390, 797.0, 28.2312
58.316677950, 96.390, 843.0, 29.0345
58.342938515, 96.390, 842.0, 29.0172
58.369199081, 96.390, 853.0, 29.2062
58.395459646, 96.390, 876.0, 29.5973
58.421720211, 96.390, 896.0, 29.9333
58.447980777, 96.390, 858.0, 29.2916
58.474241342, 96.390, 890.0, 29.8329
58.500501907, 96.390, 841.0, 29.0000
58.526762473, 96.390, 885.0, 29.7489
58.553023038, 96.390, 889.0, 29.8161
58.579283603, 96.390, 877.0, 29.6142
58.605544169, 96.390, 882.0, 29.6985
58.631804734, 96.390, 913.0, 30.2159
58.658065300, 96.390, 880.0, 29.6648
58.684325865, 96.390, 882.0, 29.6985
58.710586430, 96.390, 865.0, 29.4109
58.736846996, 96.390, 903.0, 30.0500
58.763107561, 96.390, 830.0, 28.8097
58.789368126, 96.390, 840.0, 28.9828
58.815628692, 96.390, 827.0, 28.7576
58.841889257, 96.390, 801.0, 28.3019
58.868149822, 96.390, 795.0, 28.1957
58.894410388, 96.390, 807.0, 28.4077
58.920670953, 96.390, 868.0, 29.4618
58.946931518, 96.390, 837.0, 28.9310
58.973192084, 96.390, 777.0, 27.8747
58.999452649, 96.390, 756.0, 27.4955
59.025713214, 96.390, 815.0, 28.5482
59.051973780, 96.390, 787.0, 28.0535
59.078234345, 96.390, 813.0, 28.5132
59.104494911, 96.390, 840.0, 28.9828
59.130755476, 96.390, 836.0, 28.9137
59.157016041, 96.390, 810.0, 28.4605
59.183276607, 96.390, 835.0, 28.8964
59.209537172, 96.390, 789.0, 28.0891
59.235797737, 96.390, 730.0, 27.0185
59.262058303, 96.390, 772.0, 27.7849
59.288318868, 96.390, 804.0, 28.3549
59.314579433, 96.390, 730.0, 27.0185
59.340839999, 96.390, 793.0, 28.1603
59.367100564, 96.390, 795.0, 28.1957
59.393361129, 96.390, 778.0, 27.8927
59.419621695, 96.390, 794.0, 28.1780
59.445882260, 96.390, 826.0, 28.7402
59.472142826, 96.390, 792.0, 28.1425
59.498403391, 96.390, 782.0, 27.9643
59.524663956, 96.390, 854.0, 29.2233
59.550924522, 96.390, 792.0, 28.1425
59.577185087, 96.390, 800.0, 28.2843
59.603445652, 96.390, 751.0, 27.4044
59.629706218, 96.390, 819.0, 28.6182
59.655966783, 96.390, 803.0, 28.3373
59.682227348, 96.390, 822.0, 28.6705
59.708487914, 96.390, 830.0, 28.8097
59.734748479, 96.390, 830.0, 28.8097
59.761009044, 96.390, 799.0, 28.2666
59.787269610, 96.390, 779.0, 27.9106
59.813530175, 96.390, 814.0, 28.5307
59.839790740, 96.390, 772.0, 27.7849
59.866051306, 96.390, 791.0, 28.1247
59.892311871, 96.390, 740.0, 27.2029
59.918572437, 96.390, 795.0, 28.1957
59.944833002, 96.390, 789.0, 28.0891
59.971093567, 96.390, 795.0, 28.1957
59.997354133, 96.390, 756.0, 27.4955
60.023614698, 96.390, 778.0, 27.8927
60.049875263, 96.390, 792.0, 28.1425
60.076135829, 96.390, 826.0, 28.7402
60.102396394, 96.390, 793.0, 28.1603
60.128656959, 96.390, 812.0, 28.4956
60.154917525, 96.390, 727.0, 26.9629
60.181178090, 96.390, 819.0, 28.6182
60.207438655, 96.390, 787.0, 28.0535
60.233699221, 96.390, 777.0, 27.8747
60.259959786, 96.390, 813.0, 28.5132
60.286220352, 96.390, 785.0, 28.0179
60.312480917, 96.390, 822.0, 28.6705
60.338741482, 96.390, 781.0, 27.9464
60.365002048, 96.390, 772.0, 27.7849
60.391262613, 96.390, 826.0, 28.7402
60.417523178, 96.390, 756.0, 27.4955
60.443783744, 96.390, 772.0, 27.7849
60.470044309, 96.390, 844.0, 29.0517
60.496304874, 96.390, 823.0, 28.6880
60.522565440, 96.390, 798.0, 28.2489
60.548826005, 96.390, 758.0, 27.5318
60.575086570, 96.390, 779.0, 27.9106
60.601347136, 96.390, 837.0, 28.9310
60.627607701, 96.390, 772.0, 27.7849
60.653868266, 96.390, 761.0, 27.5862
60.680128832, 96.390, 754.0, 27.4591
60.706389397, 96.390, 784.0, 28.0000
60.732649963, 96.390, 784.0, 28.0000
60.758910528, 96.390, 830.0, 28.8097
60.785171093, 96.390, 808.0, 28.4253
60.811431659, 96.390, 775.0, 27.8388
60.837692224, 96.390, 791.0, 28.1247
60.863952789, 96.390, 771.0, 27.7669
60.890213355, 96.390, 788.0, 28.0713
60.916473920, 96.390, 836.0, 28.9137
60.942734485, 96.390, 784.0, 28.0000
60.968995051, 96.390, 777.0, 27.8747
60.995255616, 96.390, 789.0, 28.0891
61.021516181, 96.390, 795.0, 28.1957
61.047776747, 96.390, 831.0, 28.8271
61.074037312, 96.390, 796.0, 28.2135
61.100297878, 96.390, 828.0, 28.7750
61.126558443, 96.390, 752.0, 27.4226
61.152819008, 96.390, 785.0, 28.0179
61.179079574, 96.390, 793.0, 28.1603
61.205340139, 96.390, 804.0, 28.3549
61.231600704, 96.390, 803.0, 28.3373
61.257861270, 96.390, 793.0, 28.1603
61.284121835, 96.390, 810.0, 28.4605
61.310382400, 96.390, 852.0, 29.1890
61.336642966, 96.390, 809.0, 28.4429
61.362903531, 96.390, 804.0, 28.3549
61.389164096, 96.390, 744.0, 27.2764
61.415424662, 96.390, 789.0, 28.0891
61.441685227, 96.390, 864.0, 29.3939
61.467945792, 96.390, 787.0, 28.0535
61.494206358, 96.390, 809.0, 28.4429
61.520466923, 96.390, 840.0, 28.9828
61.546727489, 96.390, 794.0, 28.1780
61.572988054, 96.390, 798.0, 28.2489
61.599248619, 96.390, 796.0, 28.2135
61.625509185, 96.390, 837.0, 28.9310
61.651769750, 96.390, 827.0, 28.7576
61.678030315, 96.390, 792.0, 28.1425
61.704290881, 96.390, 791.0, 28.1247
61.730551446, 96.390, 807.0, 28.4077
61.756812011, 96.390, 796.0, 28.2135
61.783072577, 96.390, 841.0, 29.0000
61.809333142, 96.390, 860.0, 29.3258
61.835593707, 96.390, 822.0, 28.6705
61.861854273, 96.390, 746.0, 27.3130
61.888114838, 96.390, 841.0, 29.0000
61.914375404, 96.390, 808.0, 28.4253
61.940635969, 96.390, 858.0, 29.2916
61.966896534, 96.390, 831.0, 28.8271
61.993157100, 96.390, 777.0, 27.8747
62.019417665, 96.390, 750.0, 27.3861
62.045678230, 96.390, 789.0, 28.0891
62.071938796, 96.390, 859.0, 29.3087
62.098199361, 96.390, 808.0, 28.4253
62.124459926, 96.390, 757.0, 27.5136
62.150720492, 96.390, 831.0, 28.8271
62.176981057, 96.390, 772.0, 27.7849
62.203241622, 96.390, 752.0, 27.4226
62.229502188, 96.390, 807.0, 28.4077
62.255762753, 96.390, 821.0, 28.6531
62.282023318, 96.390, 763.0, 27.6225
62.308283884, 96.390, 850.0, 29.1548
62.334544449, 96.390, 822.0, 28.6705
62.360805015, 96.390, 822.0, 28.6705
62.387065580, 96.390, 831.0, 28.8271
62.413326145, 96.390, 800.0, 28.2843
62.439586711, 96.390, 826.0, 28.7402
62.465847276, 96.390, 790.0, 28.1069
62.492107841, 96.390, 828.0, 28.7750
62.518368407, 96.390, 789.0, 28.0891
62.544628972, 96.390, 803.0, 28.3373
62.570889537, 96.390, 826.0, 28.7402
62.597150103, 96.390, 833.0, 28.8617
62.623410668, 96.390, 804.0, 28.3549
62.649671233, 96.390, 804.0, 28.3549
62.675931799, 96.390, 841.0, 29.0000
62.702192364, 96.390, 809.0, 28.4429
62.728452930, 96.390, 805.0, 28.3725
62.754713495, 96.390, 800.0, 28.2843
62.780974060, 96.390, 850.0, 29.1548
62.807234626, 96.390, 823.0, 28.6880
62.833495191, 96.390, 821.0, 28.6531
62.859755756, 96.390, 782.0, 27.9643
62.886016322, 96.390, 850.0, 29.1548
62.912276887, 96.390, 873.0, 29.5466
62.938537452, 96.390, 842.0, 29.0172
62.964798018, 96.390, 831.0, 28.8271
62.991058583, 96.390, 802.0, 28.3196
63.017319148, 96.390, 841.0, 29.0000
63.043579714, 96.390, 888.0, 29.7993
63.069840279, 96.390, 833.0, 28.8617
63.096100844, 96.390, 844.0, 29.0517
63.122361410, 96.390, 834.0, 28.8791
63.148621975, 96.390, 854.0, 29.2233
63.174882541, 96.390, 812.0, 28.4956
63.201143106, 96.390, 811.0, 28.4781
63.227403671, 96.390, 833.0, 28.8617
63.253664237, 96.390, 865.0, 29.4109
63.279924802, 96.390, 828.0, 28.7750
63.306185367, 96.390, 904.0, 30.0666
63.332445933, 96.390, 811.0, 28.4781
63.358706498, 96.390, 855.0, 29.2404
63.384967063, 96.390, 840.0, 28.9828
63.411227629, 96.390, 838.0, 28.9482
63.437488194, 96.390, 881.0, 29.6816
63.463748759, 96.390, 876.0, 29.5973
63.490009325, 96.390, 827.0, 28.7576
63.516269890, 96.390, 788.0, 28.0713
63.542530455, 96.390, 834.0, 28.8791
63.568791021, 96.390, 789.0, 28.0891
63.595051586, 96.390, 861.0, 29.3428
63.621312152, 96.390, 848.0, 29.1204
63.647572717, 96.390, 875.0, 29.5804
63.673833282, 96.390, 792.0, 28.1425
63.700093848, 96.390, 859.0, 29.3087
63.726354413, 96.390, 855.0, 29.2404
63.752614978, 96.390, 770.0, 27.7489
63.778875544, 96.390, 899.0, 29.9833
63.805136109, 96.390, 801.0, 28.3019
63.831396674, 96.390, 759.0, 27.5500
63.857657240, 96.390, 823.0, 28.6880
63.883917805, 96.390, 779.0, 27.9106
63.910178370, 96.390, 788.0, 28.0713
63.936438936, 96.390, 844.0, 29.0517
63.962699501, 96.390, 855.0, 29.2404
63.988960067, 96.390, 821.0, 28.6531
64.015220632, 96.390, 798.0, 28.2489
64.041481197, 96.390, 792.0, 28.1425
64.067741763, 96.390, 780.0, 27.9285
64.094002328, 96.390, 822.0, 28.6705
64.120262893, 96.390, 814.0, 28.5307
64.146523459, 96.390, 816.0, 28.5657
64.172784024, 96.390, 764.0, 27.6405
64.199044589, 96.390, 813.0, 28.5132
64.225305155, 96.390, 838.0, 28.9482
64.251565720, 96.390, 797.0, 28.2312
64.277826285, 96.390, 801.0, 28.3019
64.304086851, 96.390, 731.0, 27.0370
64.330347416, 96.390, 825.0, 28.7228
64.356607981, 96.390, 825.0, 28.7228
64.382868547, 96.390, 781.0, 27.9464
64.409129112, 96.390, 810.0, 28.4605
64.435389678, 96.390, 810.0, 28.4605
64.461650243, 96.390, 763.0, 27.6225
64.487910808, 96.390, 813.0, 28.5132
64.514171374, 96.390, 801.0, 28.3019
64.540431939, 96.390, 807.0, 28.4077
64.566692504, 96.390, 789.0, 28.0891
64.592953070, 96.390, 783.0, 27.9821
64.619213635, 96.390, 831.0, 28.8271
64.645474200, 96.390, 799.0, 28.2666
64.671734766, 96.390, 822.0, 28.6705
64.697995331, 96.390, 758.0, 27.5318
64.724255896, 96.390, 762.0, 27.6043
64.750516462, 96.390, 818.0, 28.6007
64.776777027, 96.390, 792.0, 28.1425
64.803037593, 96.390, 798.0, 28.2489
64.829298158, 96.390, 760.0, 27.5681
64.855558723, 96.390, 777.0, 27.8747
64.881819289, 96.390, 824.0, 28.7054
64.908079854, 96.390, 744.0, 27.2764
64.934340419, 96.390, 822.0, 28.6705
64.960600985, 96.390, 805.0, 28.3725
64.986861550, 96.390, 813.0, 28.5132
