[Measurement conditions]
Sample identification,MNASPH_ALcornerPC27oct21
Comment - 1,"Configuration=Stage for Flat Samples/Holders, Owner=User-1, Creation date=7/1/2020 9:53:24 AM"
Comment - 2,"Goniometer=Theta/Theta; Minimum step size 2Theta:0.0001; Minimum step size Omega:0.0001"
Comment - 3,"Sample stage=Stage for flat samples/holders"
Comment - 4,"Diffractometer system=EMPYREAN"
Comment - 5,"Measurement program=C:\Users\ibo5034\OneDrive - The Pennsylvania State University\NEUP\Zerobackground scan.xrdmp, Identifier={98A3B11C-88F9-4AA6-982C-73314A311EF5}"
Anode material,Cu
K-Alpha1 wavelength,1.5405980
K-Alpha2 wavelength,1.5444260
Ratio K-Alpha2/K-Alpha1,0.500
Divergence slit,Fixed,0.25
Monochromator used,NO
Generator voltage, 45
Tube current, 40
File date and time,03/Dec/2021 10:17
Unit cell,
h k l, 0 0 0
Scan axis,Gonio
Scan range,4.994599997,64.999991833
Scan step size,0.0262606
No. of points, 2285
Scan type,CONTINUOUS
Time per step,96.390
[Scan points]
Angle, TimePerStep, Intensity, ESD
5.007730280, 96.390, 5442.0, 73.7699
5.033990845, 96.390, 5291.0, 72.7393
5.060251411, 96.390, 5265.0, 72.5603
5.086511976, 96.390, 5186.0, 72.0139
5.112772541, 96.390, 5174.0, 71.9305
5.139033107, 96.390, 5230.0, 72.3187
5.165293672, 96.390, 5165.0, 71.8679
5.191554237, 96.390, 5083.0, 71.2952
5.217814803, 96.390, 5083.0, 71.2952
5.244075368, 96.390, 5045.0, 71.0282
5.270335934, 96.390, 4951.0, 70.3633
5.296596499, 96.390, 4752.0, 68.9348
5.322857064, 96.390, 4842.0, 69.5845
5.349117630, 96.390, 4681.0, 68.4178
5.375378195, 96.390, 4679.0, 68.4032
5.401638760, 96.390, 4787.0, 69.1881
5.427899326, 96.390, 4638.0, 68.1029
5.454159891, 96.390, 4847.0, 69.6204
5.480420456, 96.390, 4701.0, 68.5638
5.506681022, 96.390, 4624.0, 68.0000
5.532941587, 96.390, 4576.0, 67.6461
5.559202152, 96.390, 4583.0, 67.6979
5.585462718, 96.390, 4622.0, 67.9853
5.611723283, 96.390, 4512.0, 67.1714
5.637983849, 96.390, 4418.0, 66.4680
5.664244414, 96.390, 4478.0, 66.9179
5.690504979, 96.390, 4432.0, 66.5733
5.716765545, 96.390, 4355.0, 65.9924
5.743026110, 96.390, 4428.0, 66.5432
5.769286675, 96.390, 4342.0, 65.8939
5.795547241, 96.390, 4383.0, 66.2042
5.821807806, 96.390, 4235.0, 65.0769
5.848068371, 96.390, 4297.0, 65.5515
5.874328937, 96.390, 4379.0, 66.1740
5.900589502, 96.390, 4207.0, 64.8614
5.926850067, 96.390, 4183.0, 64.6761
5.953110633, 96.390, 4234.0, 65.0692
5.979371198, 96.390, 4194.0, 64.7611
6.005631763, 96.390, 4130.0, 64.2651
6.031892329, 96.390, 4135.0, 64.3040
6.058152894, 96.390, 4161.0, 64.5058
6.084413460, 96.390, 4183.0, 64.6761
6.110674025, 96.390, 4053.0, 63.6632
6.136934590, 96.390, 4051.0, 63.6475
6.163195156, 96.390, 4074.0, 63.8279
6.189455721, 96.390, 4016.0, 63.3719
6.215716286, 96.390, 3942.0, 62.7853
6.241976852, 96.390, 3862.0, 62.1450
6.268237417, 96.390, 3957.0, 62.9047
6.294497982, 96.390, 4050.0, 63.6396
6.320758548, 96.390, 4000.0, 63.2456
6.347019113, 96.390, 3828.0, 61.8708
6.373279678, 96.390, 3926.0, 62.6578
6.399540244, 96.390, 3955.0, 62.8888
6.425800809, 96.390, 3942.0, 62.7853
6.452061375, 96.390, 3859.0, 62.1208
6.478321940, 96.390, 3765.0, 61.3596
6.504582505, 96.390, 3994.0, 63.1981
6.530843071, 96.390, 3864.0, 62.1611
6.557103636, 96.390, 3890.0, 62.3699
6.583364201, 96.390, 3821.0, 61.8142
6.609624767, 96.390, 3821.0, 61.8142
6.635885332, 96.390, 3769.0, 61.3922
6.662145897, 96.390, 3808.0, 61.7090
6.688406463, 96.390, 3723.0, 61.0164
6.714667028, 96.390, 3738.0, 61.1392
6.740927593, 96.390, 3705.0, 60.8687
6.767188159, 96.390, 3864.0, 62.1611
6.793448724, 96.390, 3724.0, 61.0246
6.819709289, 96.390, 3847.0, 62.0242
6.845969855, 96.390, 3704.0, 60.8605
6.872230420, 96.390, 3680.0, 60.6630
6.898490986, 96.390, 3716.0, 60.9590
6.924751551, 96.390, 3717.0, 60.9672
6.951012116, 96.390, 3639.0, 60.3241
6.977272682, 96.390, 3655.0, 60.4566
7.003533247, 96.390, 3559.0, 59.6574
7.029793812, 96.390, 3529.0, 59.4054
7.056054378, 96.390, 3496.0, 59.1270
7.082314943, 96.390, 3619.0, 60.1581
7.108575508, 96.390, 3532.0, 59.4306
7.134836074, 96.390, 3637.0, 60.3075
7.161096639, 96.390, 3519.0, 59.3212
7.187357204, 96.390, 3555.0, 59.6238
7.213617770, 96.390, 3625.0, 60.2080
7.239878335, 96.390, 3565.0, 59.7076
7.266138900, 96.390, 3368.0, 58.0345
7.292399466, 96.390, 3539.0, 59.4895
7.318660031, 96.390, 3601.0, 60.0083
7.344920597, 96.390, 3460.0, 58.8218
7.371181162, 96.390, 3448.0, 58.7197
7.397441727, 96.390, 3378.0, 58.1206
7.423702293, 96.390, 3524.0, 59.3633
7.449962858, 96.390, 3495.0, 59.1185
7.476223423, 96.390, 3408.0, 58.3781
7.502483989, 96.390, 3499.0, 59.1523
7.528744554, 96.390, 3330.0, 57.7062
7.555005119, 96.390, 3455.0, 58.7792
7.581265685, 96.390, 3402.0, 58.3267
7.607526250, 96.390, 3404.0, 58.3438
7.633786815, 96.390, 3432.0, 58.5833
7.660047381, 96.390, 3547.0, 59.5567
7.686307946, 96.390, 3430.0, 58.5662
7.712568512, 96.390, 3381.0, 58.1464
7.738829077, 96.390, 3365.0, 58.0086
7.765089642, 96.390, 3458.0, 58.8048
7.791350208, 96.390, 3450.0, 58.7367
7.817610773, 96.390, 3291.0, 57.3672
7.843871338, 96.390, 3351.0, 57.8878
7.870131904, 96.390, 3240.0, 56.9210
7.896392469, 96.390, 3356.0, 57.9310
7.922653034, 96.390, 3480.0, 58.9915
7.948913600, 96.390, 3314.0, 57.5674
7.975174165, 96.390, 3323.0, 57.6455
8.001434730, 96.390, 3346.0, 57.8446
8.027695296, 96.390, 3307.0, 57.5065
8.053955861, 96.390, 3308.0, 57.5152
8.080216426, 96.390, 3316.0, 57.5847
8.106476992, 96.390, 3369.0, 58.0431
8.132737557, 96.390, 3250.0, 57.0088
8.158998123, 96.390, 3348.0, 57.8619
8.185258688, 96.390, 3233.0, 56.8595
8.211519253, 96.390, 3304.0, 57.4804
8.237779819, 96.390, 3287.0, 57.3324
8.264040384, 96.390, 3268.0, 57.1664
8.290300949, 96.390, 3193.0, 56.5066
8.316561515, 96.390, 3260.0, 57.0964
8.342822080, 96.390, 3278.0, 57.2538
8.369082645, 96.390, 3235.0, 56.8771
8.395343211, 96.390, 3247.0, 56.9825
8.421603776, 96.390, 3216.0, 56.7098
8.447864341, 96.390, 3171.0, 56.3116
8.474124907, 96.390, 3181.0, 56.4004
8.500385472, 96.390, 3155.0, 56.1694
8.526646038, 96.390, 3155.0, 56.1694
8.552906603, 96.390, 3187.0, 56.4535
8.579167168, 96.390, 3096.0, 55.6417
8.605427734, 96.390, 3215.0, 56.7010
8.631688299, 96.390, 3234.0, 56.8683
8.657948864, 96.390, 3177.0, 56.3649
8.684209430, 96.390, 3138.0, 56.0179
8.710469995, 96.390, 3131.0, 55.9553
8.736730560, 96.390, 3040.0, 55.1362
8.762991126, 96.390, 3085.0, 55.5428
8.789251691, 96.390, 3067.0, 55.3805
8.815512256, 96.390, 3115.0, 55.8122
8.841772822, 96.390, 3209.0, 56.6480
8.868033387, 96.390, 3089.0, 55.5788
8.894293952, 96.390, 3108.0, 55.7494
8.920554518, 96.390, 3131.0, 55.9553
8.946815083, 96.390, 3067.0, 55.3805
8.973075649, 96.390, 3063.0, 55.3444
8.999336214, 96.390, 3026.0, 55.0091
9.025596779, 96.390, 2991.0, 54.6900
9.051857345, 96.390, 3033.0, 55.0727
9.078117910, 96.390, 3085.0, 55.5428
9.104378475, 96.390, 3048.0, 55.2087
9.130639041, 96.390, 3000.0, 54.7723
9.156899606, 96.390, 3055.0, 55.2721
9.183160171, 96.390, 3069.0, 55.3986
9.209420737, 96.390, 2987.0, 54.6535
9.235681302, 96.390, 2941.0, 54.2310
9.261941867, 96.390, 2958.0, 54.3875
9.288202433, 96.390, 2977.0, 54.5619
9.314462998, 96.390, 2958.0, 54.3875
9.340723564, 96.390, 2973.0, 54.5252
9.366984129, 96.390, 2989.0, 54.6717
9.393244694, 96.390, 2940.0, 54.2218
9.419505260, 96.390, 3036.0, 55.0999
9.445765825, 96.390, 2971.0, 54.5069
9.472026390, 96.390, 2990.0, 54.6809
9.498286956, 96.390, 3018.0, 54.9363
9.524547521, 96.390, 2951.0, 54.3231
9.550808086, 96.390, 3044.0, 55.1725
9.577068652, 96.390, 2946.0, 54.2771
9.603329217, 96.390, 2903.0, 53.8795
9.629589782, 96.390, 2892.0, 53.7773
9.655850348, 96.390, 2924.0, 54.0740
9.682110913, 96.390, 2861.0, 53.4883
9.708371478, 96.390, 2896.0, 53.8145
9.734632044, 96.390, 2877.0, 53.6377
9.760892609, 96.390, 2931.0, 54.1387
9.787153175, 96.390, 2893.0, 53.7866
9.813413740, 96.390, 2870.0, 53.5724
9.839674305, 96.390, 2841.0, 53.3010
9.865934871, 96.390, 2896.0, 53.8145
9.892195436, 96.390, 2926.0, 54.0925
9.918456001, 96.390, 2923.0, 54.0648
9.944716567, 96.390, 2955.0, 54.3599
9.970977132, 96.390, 2808.0, 52.9906
9.997237697, 96.390, 2839.0, 53.2823
10.023498263, 96.390, 2811.0, 53.0189
10.049758828, 96.390, 2834.0, 53.2353
10.076019393, 96.390, 2858.0, 53.4603
10.102279959, 96.390, 2925.0, 54.0833
10.128540524, 96.390, 2806.0, 52.9717
10.154801090, 96.390, 2878.0, 53.6470
10.181061655, 96.390, 2897.0, 53.8238
10.207322220, 96.390, 2789.0, 52.8110
10.233582786, 96.390, 2817.0, 53.0754
10.259843351, 96.390, 2832.0, 53.2165
10.286103916, 96.390, 2881.0, 53.6749
10.312364482, 96.390, 2863.0, 53.5070
10.338625047, 96.390, 2877.0, 53.6377
10.364885612, 96.390, 2748.0, 52.4214
10.391146178, 96.390, 2749.0, 52.4309
10.417406743, 96.390, 2809.0, 53.0000
10.443667308, 96.390, 2840.0, 53.2917
10.469927874, 96.390, 2815.0, 53.0566
10.496188439, 96.390, 2766.0, 52.5928
10.522449004, 96.390, 2723.0, 52.1824
10.548709570, 96.390, 2707.0, 52.0288
10.574970135, 96.390, 2713.0, 52.0865
10.601230701, 96.390, 2854.0, 53.4228
10.627491266, 96.390, 2762.0, 52.5547
10.653751831, 96.390, 2738.0, 52.3259
10.680012397, 96.390, 2784.0, 52.7636
10.706272962, 96.390, 2739.0, 52.3355
10.732533527, 96.390, 2794.0, 52.8583
10.758794093, 96.390, 2674.0, 51.7107
10.785054658, 96.390, 2739.0, 52.3355
10.811315223, 96.390, 2717.0, 52.1249
10.837575789, 96.390, 2714.0, 52.0961
10.863836354, 96.390, 2708.0, 52.0384
10.890096919, 96.390, 2728.0, 52.2303
10.916357485, 96.390, 2690.0, 51.8652
10.942618050, 96.390, 2732.0, 52.2685
10.968878616, 96.390, 2654.0, 51.5170
10.995139181, 96.390, 2677.0, 51.7397
11.021399746, 96.390, 2700.0, 51.9615
11.047660312, 96.390, 2744.0, 52.3832
11.073920877, 96.390, 2726.0, 52.2111
11.100181442, 96.390, 2650.0, 51.4782
11.126442008, 96.390, 2657.0, 51.5461
11.152702573, 96.390, 2777.0, 52.6972
11.178963138, 96.390, 2687.0, 51.8363
11.205223704, 96.390, 2708.0, 52.0384
11.231484269, 96.390, 2695.0, 51.9134
11.257744834, 96.390, 2696.0, 51.9230
11.284005400, 96.390, 2679.0, 51.7591
11.310265965, 96.390, 2626.0, 51.2445
11.336526530, 96.390, 2671.0, 51.6817
11.362787096, 96.390, 2671.0, 51.6817
11.389047661, 96.390, 2642.0, 51.4004
11.415308227, 96.390, 2605.0, 51.0392
11.441568792, 96.390, 2618.0, 51.1664
11.467829357, 96.390, 2557.0, 50.5668
11.494089923, 96.390, 2668.0, 51.6527
11.520350488, 96.390, 2613.0, 51.1175
11.546611053, 96.390, 2601.0, 51.0000
11.572871619, 96.390, 2540.0, 50.3984
11.599132184, 96.390, 2601.0, 51.0000
11.625392749, 96.390, 2639.0, 51.3712
11.651653315, 96.390, 2590.0, 50.8920
11.677913880, 96.390, 2542.0, 50.4183
11.704174445, 96.390, 2602.0, 51.0098
11.730435011, 96.390, 2631.0, 51.2933
11.756695576, 96.390, 2570.0, 50.6952
11.782956141, 96.390, 2493.0, 49.9300
11.809216707, 96.390, 2599.0, 50.9804
11.835477272, 96.390, 2621.0, 51.1957
11.861737838, 96.390, 2618.0, 51.1664
11.887998403, 96.390, 2617.0, 51.1566
11.914258968, 96.390, 2527.0, 50.2693
11.940519534, 96.390, 2565.0, 50.6458
11.966780099, 96.390, 2616.0, 51.1468
11.993040664, 96.390, 2539.0, 50.3885
12.019301230, 96.390, 2537.0, 50.3686
12.045561795, 96.390, 2511.0, 50.1099
12.071822360, 96.390, 2459.0, 49.5883
12.098082926, 96.390, 2564.0, 50.6360
12.124343491, 96.390, 2562.0, 50.6162
12.150604056, 96.390, 2605.0, 51.0392
12.176864622, 96.390, 2509.0, 50.0899
12.203125187, 96.390, 2606.0, 51.0490
12.229385753, 96.390, 2546.0, 50.4579
12.255646318, 96.390, 2484.0, 49.8397
12.281906883, 96.390, 2429.0, 49.2849
12.308167449, 96.390, 2456.0, 49.5580
12.334428014, 96.390, 2526.0, 50.2593
12.360688579, 96.390, 2538.0, 50.3786
12.386949145, 96.390, 2444.0, 49.4368
12.413209710, 96.390, 2509.0, 50.0899
12.439470275, 96.390, 2601.0, 51.0000
12.465730841, 96.390, 2537.0, 50.3686
12.491991406, 96.390, 2490.0, 49.8999
12.518251971, 96.390, 2508.0, 50.0799
12.544512537, 96.390, 2452.0, 49.5177
12.570773102, 96.390, 2394.0, 48.9285
12.597033667, 96.390, 2446.0, 49.4571
12.623294233, 96.390, 2542.0, 50.4183
12.649554798, 96.390, 2383.0, 48.8160
12.675815364, 96.390, 2483.0, 49.8297
12.702075929, 96.390, 2476.0, 49.7594
12.728336494, 96.390, 2495.0, 49.9500
12.754597060, 96.390, 2448.0, 49.4773
12.780857625, 96.390, 2531.0, 50.3090
12.807118190, 96.390, 2439.0, 49.3862
12.833378756, 96.390, 2440.0, 49.3964
12.859639321, 96.390, 2423.0, 49.2240
12.885899886, 96.390, 2402.0, 49.0102
12.912160452, 96.390, 2414.0, 49.1325
12.938421017, 96.390, 2414.0, 49.1325
12.964681582, 96.390, 2458.0, 49.5782
12.990942148, 96.390, 2470.0, 49.6991
13.017202713, 96.390, 2545.0, 50.4480
13.043463279, 96.390, 2433.0, 49.3254
13.069723844, 96.390, 2429.0, 49.2849
13.095984409, 96.390, 2478.0, 49.7795
13.122244975, 96.390, 2319.0, 48.1560
13.148505540, 96.390, 2511.0, 50.1099
13.174766105, 96.390, 2470.0, 49.6991
13.201026671, 96.390, 2414.0, 49.1325
13.227287236, 96.390, 2452.0, 49.5177
13.253547801, 96.390, 2417.0, 49.1630
13.279808367, 96.390, 2452.0, 49.5177
13.306068932, 96.390, 2292.0, 47.8748
13.332329497, 96.390, 2403.0, 49.0204
13.358590063, 96.390, 2392.0, 48.9081
13.384850628, 96.390, 2338.0, 48.3529
13.411111193, 96.390, 2509.0, 50.0899
13.437371759, 96.390, 2449.0, 49.4874
13.463632324, 96.390, 2476.0, 49.7594
13.489892890, 96.390, 2335.0, 48.3218
13.516153455, 96.390, 2337.0, 48.3425
13.542414020, 96.390, 2361.0, 48.5901
13.568674586, 96.390, 2401.0, 49.0000
13.594935151, 96.390, 2318.0, 48.1456
13.621195716, 96.390, 2330.0, 48.2701
13.647456282, 96.390, 2300.0, 47.9583
13.673716847, 96.390, 2399.0, 48.9796
13.699977412, 96.390, 2313.0, 48.0937
13.726237978, 96.390, 2325.0, 48.2183
13.752498543, 96.390, 2354.0, 48.5180
13.778759108, 96.390, 2414.0, 49.1325
13.805019674, 96.390, 2280.0, 47.7493
13.831280239, 96.390, 2393.0, 48.9183
13.857540805, 96.390, 2362.0, 48.6004
13.883801370, 96.390, 2360.0, 48.5798
13.910061935, 96.390, 2353.0, 48.5077
13.936322501, 96.390, 2358.0, 48.5592
13.962583066, 96.390, 2336.0, 48.3322
13.988843631, 96.390, 2381.0, 48.7955
14.015104197, 96.390, 2333.0, 48.3011
14.041364762, 96.390, 2378.0, 48.7647
14.067625327, 96.390, 2203.0, 46.9361
14.093885893, 96.390, 2455.0, 49.5480
14.120146458, 96.390, 2286.0, 47.8121
14.146407023, 96.390, 2399.0, 48.9796
14.172667589, 96.390, 2382.0, 48.8057
14.198928154, 96.390, 2332.0, 48.2908
14.225188719, 96.390, 2266.0, 47.6025
14.251449285, 96.390, 2345.0, 48.4252
14.277709850, 96.390, 2194.0, 46.8402
14.303970416, 96.390, 2292.0, 47.8748
14.330230981, 96.390, 2364.0, 48.6210
14.356491546, 96.390, 2312.0, 48.0833
14.382752112, 96.390, 2305.0, 48.0104
14.409012677, 96.390, 2390.0, 48.8876
14.435273242, 96.390, 2310.0, 48.0625
14.461533808, 96.390, 2355.0, 48.5283
14.487794373, 96.390, 2287.0, 47.8226
14.514054938, 96.390, 2275.0, 47.6970
14.540315504, 96.390, 2286.0, 47.8121
14.566576069, 96.390, 2374.0, 48.7237
14.592836634, 96.390, 2227.0, 47.1911
14.619097200, 96.390, 2343.0, 48.4045
14.645357765, 96.390, 2317.0, 48.1352
14.671618331, 96.390, 2280.0, 47.7493
14.697878896, 96.390, 2324.0, 48.2079
14.724139461, 96.390, 2251.0, 47.4447
14.750400027, 96.390, 2304.0, 48.0000
14.776660592, 96.390, 2338.0, 48.3529
14.802921157, 96.390, 2260.0, 47.5395
14.829181723, 96.390, 2259.0, 47.5289
14.855442288, 96.390, 2323.0, 48.1975
14.881702853, 96.390, 2265.0, 47.5920
14.907963419, 96.390, 2341.0, 48.3839
14.934223984, 96.390, 2250.0, 47.4342
14.960484549, 96.390, 2320.0, 48.1664
14.986745115, 96.390, 2231.0, 47.2335
15.013005680, 96.390, 2219.0, 47.1063
15.039266245, 96.390, 2308.0, 48.0416
15.065526811, 96.390, 2227.0, 47.1911
15.091787376, 96.390, 2278.0, 47.7284
15.118047942, 96.390, 2198.0, 46.8828
15.144308507, 96.390, 2197.0, 46.8722
15.170569072, 96.390, 2188.0, 46.7761
15.196829638, 96.390, 2288.0, 47.8330
15.223090203, 96.390, 2281.0, 47.7598
15.249350768, 96.390, 2314.0, 48.1041
15.275611334, 96.390, 2260.0, 47.5395
15.301871899, 96.390, 2227.0, 47.1911
15.328132464, 96.390, 2256.0, 47.4974
15.354393030, 96.390, 2200.0, 46.9042
15.380653595, 96.390, 2281.0, 47.7598
15.406914160, 96.390, 2181.0, 46.7012
15.433174726, 96.390, 2149.0, 46.3573
15.459435291, 96.390, 2331.0, 48.2804
15.485695857, 96.390, 2320.0, 48.1664
15.511956422, 96.390, 2309.0, 48.0521
15.538216987, 96.390, 2222.0, 47.1381
15.564477553, 96.390, 2347.0, 48.4458
15.590738118, 96.390, 2279.0, 47.7389
15.616998683, 96.390, 2304.0, 48.0000
15.643259249, 96.390, 2287.0, 47.8226
15.669519814, 96.390, 2277.0, 47.7179
15.695780379, 96.390, 2227.0, 47.1911
15.722040945, 96.390, 2298.0, 47.9375
15.748301510, 96.390, 2342.0, 48.3942
15.774562075, 96.390, 2246.0, 47.3920
15.800822641, 96.390, 2365.0, 48.6313
15.827083206, 96.390, 2260.0, 47.5395
15.853343771, 96.390, 2249.0, 47.4236
15.879604337, 96.390, 2273.0, 47.6760
15.905864902, 96.390, 2174.0, 46.6262
15.932125468, 96.390, 2216.0, 47.0744
15.958386033, 96.390, 2291.0, 47.8644
15.984646598, 96.390, 2240.0, 47.3286
16.010907164, 96.390, 2219.0, 47.1063
16.037167729, 96.390, 2311.0, 48.0729
16.063428294, 96.390, 2294.0, 47.8957
16.089688860, 96.390, 2235.0, 47.2758
16.115949425, 96.390, 2231.0, 47.2335
16.142209990, 96.390, 2312.0, 48.0833
16.168470556, 96.390, 2291.0, 47.8644
16.194731121, 96.390, 2264.0, 47.5815
16.220991686, 96.390, 2222.0, 47.1381
16.247252252, 96.390, 2332.0, 48.2908
16.273512817, 96.390, 2126.0, 46.1086
16.299773382, 96.390, 2263.0, 47.5710
16.326033948, 96.390, 2290.0, 47.8539
16.352294513, 96.390, 2272.0, 47.6655
16.378555079, 96.390, 2303.0, 47.9896
16.404815644, 96.390, 2393.0, 48.9183
16.431076209, 96.390, 2265.0, 47.5920
16.457336775, 96.390, 2290.0, 47.8539
16.483597340, 96.390, 2182.0, 46.7119
16.509857905, 96.390, 2256.0, 47.4974
16.536118471, 96.390, 2369.0, 48.6724
16.562379036, 96.390, 2252.0, 47.4552
16.588639601, 96.390, 2299.0, 47.9479
16.614900167, 96.390, 2268.0, 47.6235
16.641160732, 96.390, 2237.0, 47.2969
16.667421297, 96.390, 2433.0, 49.3254
16.693681863, 96.390, 2237.0, 47.2969
16.719942428, 96.390, 2276.0, 47.7074
16.746202994, 96.390, 2246.0, 47.3920
16.772463559, 96.390, 2213.0, 47.0425
16.798724124, 96.390, 2270.0, 47.6445
16.824984690, 96.390, 2329.0, 48.2597
16.851245255, 96.390, 2327.0, 48.2390
16.877505820, 96.390, 2343.0, 48.4045
16.903766386, 96.390, 2322.0, 48.1871
16.930026951, 96.390, 2296.0, 47.9166
16.956287516, 96.390, 2342.0, 48.3942
16.982548082, 96.390, 2372.0, 48.7032
17.008808647, 96.390, 2288.0, 47.8330
17.035069212, 96.390, 2260.0, 47.5395
17.061329778, 96.390, 2287.0, 47.8226
17.087590343, 96.390, 2303.0, 47.9896
17.113850908, 96.390, 2310.0, 48.0625
17.140111474, 96.390, 2323.0, 48.1975
17.166372039, 96.390, 2327.0, 48.2390
17.192632605, 96.390, 2327.0, 48.2390
17.218893170, 96.390, 2338.0, 48.3529
17.245153735, 96.390, 2352.0, 48.4974
17.271414301, 96.390, 2308.0, 48.0416
17.297674866, 96.390, 2313.0, 48.0937
17.323935431, 96.390, 2356.0, 48.5386
17.350195997, 96.390, 2333.0, 48.3011
17.376456562, 96.390, 2274.0, 47.6865
17.402717127, 96.390, 2290.0, 47.8539
17.428977693, 96.390, 2329.0, 48.2597
17.455238258, 96.390, 2365.0, 48.6313
17.481498823, 96.390, 2342.0, 48.3942
17.507759389, 96.390, 2356.0, 48.5386
17.534019954, 96.390, 2368.0, 48.6621
17.560280520, 96.390, 2327.0, 48.2390
17.586541085, 96.390, 2443.0, 49.4267
17.612801650, 96.390, 2434.0, 49.3356
17.639062216, 96.390, 2417.0, 49.1630
17.665322781, 96.390, 2294.0, 47.8957
17.691583346, 96.390, 2516.0, 50.1597
17.717843912, 96.390, 2409.0, 49.0816
17.744104477, 96.390, 2372.0, 48.7032
17.770365042, 96.390, 2437.0, 49.3660
17.796625608, 96.390, 2435.0, 49.3457
17.822886173, 96.390, 2448.0, 49.4773
17.849146738, 96.390, 2306.0, 48.0208
17.875407304, 96.390, 2419.0, 49.1833
17.901667869, 96.390, 2389.0, 48.8774
17.927928434, 96.390, 2431.0, 49.3052
17.954189000, 96.390, 2387.0, 48.8569
17.980449565, 96.390, 2443.0, 49.4267
18.006710131, 96.390, 2452.0, 49.5177
18.032970696, 96.390, 2385.0, 48.8365
18.059231261, 96.390, 2493.0, 49.9300
18.085491827, 96.390, 2503.0, 50.0300
18.111752392, 96.390, 2421.0, 49.2037
18.138012957, 96.390, 2425.0, 49.2443
18.164273523, 96.390, 2429.0, 49.2849
18.190534088, 96.390, 2424.0, 49.2341
18.216794653, 96.390, 2487.0, 49.8698
18.243055219, 96.390, 2399.0, 48.9796
18.269315784, 96.390, 2381.0, 48.7955
18.295576349, 96.390, 2489.0, 49.8899
18.321836915, 96.390, 2383.0, 48.8160
18.348097480, 96.390, 2482.0, 49.8197
18.374358046, 96.390, 2451.0, 49.5076
18.400618611, 96.390, 2534.0, 50.3389
18.426879176, 96.390, 2428.0, 49.2747
18.453139742, 96.390, 2546.0, 50.4579
18.479400307, 96.390, 2455.0, 49.5480
18.505660872, 96.390, 2536.0, 50.3587
18.531921438, 96.390, 2517.0, 50.1697
18.558182003, 96.390, 2478.0, 49.7795
18.584442568, 96.390, 2511.0, 50.1099
18.610703134, 96.390, 2422.0, 49.2138
18.636963699, 96.390, 2479.0, 49.7896
18.663224264, 96.390, 2543.0, 50.4282
18.689484830, 96.390, 2568.0, 50.6754
18.715745395, 96.390, 2525.0, 50.2494
18.742005960, 96.390, 2479.0, 49.7896
18.768266526, 96.390, 2587.0, 50.8626
18.794527091, 96.390, 2543.0, 50.4282
18.820787657, 96.390, 2643.0, 51.4101
18.847048222, 96.390, 2579.0, 50.7839
18.873308787, 96.390, 2497.0, 49.9700
18.899569353, 96.390, 2618.0, 51.1664
18.925829918, 96.390, 2550.0, 50.4975
18.952090483, 96.390, 2520.0, 50.1996
18.978351049, 96.390, 2526.0, 50.2593
19.004611614, 96.390, 2596.0, 50.9510
19.030872179, 96.390, 2603.0, 51.0196
19.057132745, 96.390, 2555.0, 50.5470
19.083393310, 96.390, 2553.0, 50.5272
19.109653875, 96.390, 2620.0, 51.1859
19.135914441, 96.390, 2629.0, 51.2738
19.162175006, 96.390, 2591.0, 50.9019
19.188435572, 96.390, 2589.0, 50.8822
19.214696137, 96.390, 2643.0, 51.4101
19.240956702, 96.390, 2664.0, 51.6140
19.267217268, 96.390, 2638.0, 51.3615
19.293477833, 96.390, 2607.0, 51.0588
19.319738398, 96.390, 2632.0, 51.3030
19.345998964, 96.390, 2639.0, 51.3712
19.372259529, 96.390, 2611.0, 51.0979
19.398520094, 96.390, 2709.0, 52.0481
19.424780660, 96.390, 2576.0, 50.7543
19.451041225, 96.390, 2658.0, 51.5558
19.477301790, 96.390, 2629.0, 51.2738
19.503562356, 96.390, 2714.0, 52.0961
19.529822921, 96.390, 2764.0, 52.5738
19.556083486, 96.390, 2764.0, 52.5738
19.582344052, 96.390, 2689.0, 51.8556
19.608604617, 96.390, 2602.0, 51.0098
19.634865183, 96.390, 2649.0, 51.4684
19.661125748, 96.390, 2664.0, 51.6140
19.687386313, 96.390, 2653.0, 51.5073
19.713646879, 96.390, 2779.0, 52.7162
19.739907444, 96.390, 2779.0, 52.7162
19.766168009, 96.390, 2824.0, 53.1413
19.792428575, 96.390, 2739.0, 52.3355
19.818689140, 96.390, 2681.0, 51.7784
19.844949705, 96.390, 2721.0, 52.1632
19.871210271, 96.390, 2718.0, 52.1344
19.897470836, 96.390, 2683.0, 51.7977
19.923731401, 96.390, 2717.0, 52.1249
19.949991967, 96.390, 2654.0, 51.5170
19.976252532, 96.390, 2772.0, 52.6498
20.002513097, 96.390, 2691.0, 51.8748
20.028773663, 96.390, 2820.0, 53.1037
20.055034228, 96.390, 2845.0, 53.3385
20.081294794, 96.390, 2854.0, 53.4228
20.107555359, 96.390, 2684.0, 51.8073
20.133815924, 96.390, 2731.0, 52.2590
20.160076490, 96.390, 2854.0, 53.4228
20.186337055, 96.390, 2716.0, 52.1153
20.212597620, 96.390, 2818.0, 53.0848
20.238858186, 96.390, 2848.0, 53.3667
20.265118751, 96.390, 2852.0, 53.4041
20.291379316, 96.390, 2834.0, 53.2353
20.317639882, 96.390, 2839.0, 53.2823
20.343900447, 96.390, 2916.0, 54.0000
20.370161012, 96.390, 2844.0, 53.3292
20.396421578, 96.390, 2872.0, 53.5910
20.422682143, 96.390, 2881.0, 53.6749
20.448942709, 96.390, 2983.0, 54.6168
20.475203274, 96.390, 2834.0, 53.2353
20.501463839, 96.390, 2784.0, 52.7636
20.527724405, 96.390, 2734.0, 52.2877
20.553984970, 96.390, 2897.0, 53.8238
20.580245535, 96.390, 2828.0, 53.1789
20.606506101, 96.390, 2906.0, 53.9073
20.632766666, 96.390, 2898.0, 53.8331
20.659027231, 96.390, 2928.0, 54.1110
20.685287797, 96.390, 2928.0, 54.1110
20.711548362, 96.390, 2977.0, 54.5619
20.737808927, 96.390, 2906.0, 53.9073
20.764069493, 96.390, 2803.0, 52.9434
20.790330058, 96.390, 2853.0, 53.4135
20.816590623, 96.390, 2784.0, 52.7636
20.842851189, 96.390, 2878.0, 53.6470
20.869111754, 96.390, 2978.0, 54.5711
20.895372320, 96.390, 2941.0, 54.2310
20.921632885, 96.390, 2978.0, 54.5711
20.947893450, 96.390, 2843.0, 53.3198
20.974154016, 96.390, 2910.0, 53.9444
21.000414581, 96.390, 2900.0, 53.8516
21.026675146, 96.390, 3028.0, 55.0273
21.052935712, 96.390, 2996.0, 54.7357
21.079196277, 96.390, 3088.0, 55.5698
21.105456842, 96.390, 3024.0, 54.9909
21.131717408, 96.390, 2895.0, 53.8052
21.157977973, 96.390, 2986.0, 54.6443
21.184238538, 96.390, 2987.0, 54.6535
21.210499104, 96.390, 3074.0, 55.4437
21.236759669, 96.390, 3045.0, 55.1815
21.263020235, 96.390, 2977.0, 54.5619
21.289280800, 96.390, 2968.0, 54.4794
21.315541365, 96.390, 2896.0, 53.8145
21.341801931, 96.390, 3060.0, 55.3173
21.368062496, 96.390, 3055.0, 55.2721
21.394323061, 96.390, 2994.0, 54.7175
21.420583627, 96.390, 2968.0, 54.4794
21.446844192, 96.390, 2992.0, 54.6992
21.473104757, 96.390, 3061.0, 55.3263
21.499365323, 96.390, 3010.0, 54.8635
21.525625888, 96.390, 3012.0, 54.8817
21.551886453, 96.390, 3013.0, 54.8908
21.578147019, 96.390, 3075.0, 55.4527
21.604407584, 96.390, 3048.0, 55.2087
21.630668149, 96.390, 3088.0, 55.5698
21.656928715, 96.390, 2966.0, 54.4610
21.683189280, 96.390, 3130.0, 55.9464
21.709449846, 96.390, 3075.0, 55.4527
21.735710411, 96.390, 3033.0, 55.0727
21.761970976, 96.390, 3021.0, 54.9636
21.788231542, 96.390, 3164.0, 56.2494
21.814492107, 96.390, 3146.0, 56.0892
21.840752672, 96.390, 3030.0, 55.0454
21.867013238, 96.390, 3068.0, 55.3895
21.893273803, 96.390, 3107.0, 55.7405
21.919534368, 96.390, 3136.0, 56.0000
21.945794934, 96.390, 3062.0, 55.3353
21.972055499, 96.390, 3173.0, 56.3294
21.998316064, 96.390, 3022.0, 54.9727
22.024576630, 96.390, 3278.0, 57.2538
22.050837195, 96.390, 3224.0, 56.7803
22.077097761, 96.390, 3094.0, 55.6237
22.103358326, 96.390, 3181.0, 56.4004
22.129618891, 96.390, 3210.0, 56.6569
22.155879457, 96.390, 3117.0, 55.8301
22.182140022, 96.390, 3141.0, 56.0446
22.208400587, 96.390, 3073.0, 55.4346
22.234661153, 96.390, 3183.0, 56.4181
22.260921718, 96.390, 3072.0, 55.4256
22.287182283, 96.390, 3128.0, 55.9285
22.313442849, 96.390, 3160.0, 56.2139
22.339703414, 96.390, 3269.0, 57.1752
22.365963979, 96.390, 3137.0, 56.0089
22.392224545, 96.390, 3224.0, 56.7803
22.418485110, 96.390, 3264.0, 57.1314
22.444745675, 96.390, 3199.0, 56.5597
22.471006241, 96.390, 3223.0, 56.7715
22.497266806, 96.390, 3034.0, 55.0818
22.523527372, 96.390, 3093.0, 55.6147
22.549787937, 96.390, 3243.0, 56.9473
22.576048502, 96.390, 3049.0, 55.2178
22.602309068, 96.390, 3200.0, 56.5685
22.628569633, 96.390, 3197.0, 56.5420
22.654830198, 96.390, 3187.0, 56.4535
22.681090764, 96.390, 3103.0, 55.7046
22.707351329, 96.390, 3211.0, 56.6657
22.733611894, 96.390, 3181.0, 56.4004
22.759872460, 96.390, 3167.0, 56.2761
22.786133025, 96.390, 3202.0, 56.5862
22.812393590, 96.390, 3160.0, 56.2139
22.838654156, 96.390, 3136.0, 56.0000
22.864914721, 96.390, 3187.0, 56.4535
22.891175287, 96.390, 3155.0, 56.1694
22.917435852, 96.390, 3180.0, 56.3915
22.943696417, 96.390, 3205.0, 56.6127
22.969956983, 96.390, 3117.0, 55.8301
22.996217548, 96.390, 3065.0, 55.3624
23.022478113, 96.390, 3130.0, 55.9464
23.048738679, 96.390, 3147.0, 56.0981
23.074999244, 96.390, 3138.0, 56.0179
23.101259809, 96.390, 3178.0, 56.3738
23.127520375, 96.390, 3118.0, 55.8391
23.153780940, 96.390, 3093.0, 55.6147
23.180041505, 96.390, 3069.0, 55.3986
23.206302071, 96.390, 3188.0, 56.4624
23.232562636, 96.390, 3021.0, 54.9636
23.258823201, 96.390, 3121.0, 55.8659
23.285083767, 96.390, 3137.0, 56.0089
23.311344332, 96.390, 3172.0, 56.3205
23.337604898, 96.390, 3198.0, 56.5509
23.363865463, 96.390, 3078.0, 55.4797
23.390126028, 96.390, 3155.0, 56.1694
23.416386594, 96.390, 3035.0, 55.0908
23.442647159, 96.390, 3080.0, 55.4977
23.468907724, 96.390, 3011.0, 54.8726
23.495168290, 96.390, 3107.0, 55.7405
23.521428855, 96.390, 3103.0, 55.7046
23.547689420, 96.390, 3094.0, 55.6237
23.573949986, 96.390, 3104.0, 55.7136
23.600210551, 96.390, 3055.0, 55.2721
23.626471116, 96.390, 3142.0, 56.0535
23.652731682, 96.390, 3108.0, 55.7494
23.678992247, 96.390, 3131.0, 55.9553
23.705252813, 96.390, 3108.0, 55.7494
23.731513378, 96.390, 3165.0, 56.2583
23.757773943, 96.390, 3107.0, 55.7405
23.784034509, 96.390, 3091.0, 55.5968
23.810295074, 96.390, 3103.0, 55.7046
23.836555639, 96.390, 3068.0, 55.3895
23.862816205, 96.390, 3102.0, 55.6956
23.889076770, 96.390, 2978.0, 54.5711
23.915337335, 96.390, 3116.0, 55.8211
23.941597901, 96.390, 3119.0, 55.8480
23.967858466, 96.390, 3075.0, 55.4527
23.994119031, 96.390, 2984.0, 54.6260
24.020379597, 96.390, 3081.0, 55.5068
24.046640162, 96.390, 3059.0, 55.3082
24.072900727, 96.390, 3066.0, 55.3715
24.099161293, 96.390, 3075.0, 55.4527
24.125421858, 96.390, 3026.0, 55.0091
24.151682424, 96.390, 3158.0, 56.1961
24.177942989, 96.390, 3048.0, 55.2087
24.204203554, 96.390, 3095.0, 55.6327
24.230464120, 96.390, 3142.0, 56.0535
24.256724685, 96.390, 2946.0, 54.2771
24.282985250, 96.390, 2990.0, 54.6809
24.309245816, 96.390, 3008.0, 54.8452
24.335506381, 96.390, 3034.0, 55.0818
24.361766946, 96.390, 3055.0, 55.2721
24.388027512, 96.390, 3047.0, 55.1996
24.414288077, 96.390, 3060.0, 55.3173
24.440548642, 96.390, 3089.0, 55.5788
24.466809208, 96.390, 3007.0, 54.8361
24.493069773, 96.390, 2983.0, 54.6168
24.519330338, 96.390, 2986.0, 54.6443
24.545590904, 96.390, 2954.0, 54.3507
24.571851469, 96.390, 2964.0, 54.4426
24.598112035, 96.390, 3025.0, 55.0000
24.624372600, 96.390, 3008.0, 54.8452
24.650633165, 96.390, 3039.0, 55.1271
24.676893731, 96.390, 2947.0, 54.2863
24.703154296, 96.390, 3049.0, 55.2178
24.729414861, 96.390, 2976.0, 54.5527
24.755675427, 96.390, 2865.0, 53.5257
24.781935992, 96.390, 3056.0, 55.2811
24.808196557, 96.390, 3106.0, 55.7315
24.834457123, 96.390, 2880.0, 53.6656
24.860717688, 96.390, 2900.0, 53.8516
24.886978253, 96.390, 3031.0, 55.0545
24.913238819, 96.390, 2937.0, 54.1941
24.939499384, 96.390, 2963.0, 54.4334
24.965759950, 96.390, 2930.0, 54.1295
24.992020515, 96.390, 2975.0, 54.5436
25.018281080, 96.390, 2936.0, 54.1849
25.044541646, 96.390, 3004.0, 54.8088
25.070802211, 96.390, 2958.0, 54.3875
25.097062776, 96.390, 2936.0, 54.1849
25.123323342, 96.390, 2954.0, 54.3507
25.149583907, 96.390, 2937.0, 54.1941
25.175844472, 96.390, 2879.0, 53.6563
25.202105038, 96.390, 2956.0, 54.3691
25.228365603, 96.390, 2966.0, 54.4610
25.254626168, 96.390, 2880.0, 53.6656
25.280886734, 96.390, 2856.0, 53.4416
25.307147299, 96.390, 2893.0, 53.7866
25.333407864, 96.390, 3082.0, 55.5158
25.359668430, 96.390, 2901.0, 53.8609
25.385928995, 96.390, 2909.0, 53.9351
25.412189561, 96.390, 2804.0, 52.9528
25.438450126, 96.390, 2878.0, 53.6470
25.464710691, 96.390, 2975.0, 54.5436
25.490971257, 96.390, 2756.0, 52.4976
25.517231822, 96.390, 2876.0, 53.6284
25.543492387, 96.390, 2854.0, 53.4228
25.569752953, 96.390, 2825.0, 53.1507
25.596013518, 96.390, 2907.0, 53.9166
25.622274083, 96.390, 2873.0, 53.6004
25.648534649, 96.390, 2878.0, 53.6470
25.674795214, 96.390, 2944.0, 54.2586
25.701055779, 96.390, 2860.0, 53.4790
25.727316345, 96.390, 2968.0, 54.4794
25.753576910, 96.390, 2915.0, 53.9907
25.779837476, 96.390, 2888.0, 53.7401
25.806098041, 96.390, 2762.0, 52.5547
25.832358606, 96.390, 2770.0, 52.6308
25.858619172, 96.390, 2828.0, 53.1789
25.884879737, 96.390, 2732.0, 52.2685
25.911140302, 96.390, 2837.0, 53.2635
25.937400868, 96.390, 2809.0, 53.0000
25.963661433, 96.390, 2790.0, 52.8205
25.989921998, 96.390, 2899.0, 53.8424
26.016182564, 96.390, 2706.0, 52.0192
26.042443129, 96.390, 2899.0, 53.8424
26.068703694, 96.390, 2754.0, 52.4786
26.094964260, 96.390, 2832.0, 53.2165
26.121224825, 96.390, 2739.0, 52.3355
26.147485390, 96.390, 2795.0, 52.8678
26.173745956, 96.390, 2722.0, 52.1728
26.200006521, 96.390, 2805.0, 52.9623
26.226267087, 96.390, 2757.0, 52.5071
26.252527652, 96.390, 2669.0, 51.6624
26.278788217, 96.390, 2724.0, 52.1920
26.305048783, 96.390, 2729.0, 52.2398
26.331309348, 96.390, 2764.0, 52.5738
26.357569913, 96.390, 2800.0, 52.9150
26.383830479, 96.390, 2752.0, 52.4595
26.410091044, 96.390, 2616.0, 51.1468
26.436351609, 96.390, 2713.0, 52.0865
26.462612175, 96.390, 2738.0, 52.3259
26.488872740, 96.390, 2666.0, 51.6333
26.515133305, 96.390, 2669.0, 51.6624
26.541393871, 96.390, 2713.0, 52.0865
26.567654436, 96.390, 2702.0, 51.9808
26.593915002, 96.390, 2759.0, 52.5262
26.620175567, 96.390, 2772.0, 52.6498
26.646436132, 96.390, 2727.0, 52.2207
26.672696698, 96.390, 2621.0, 51.1957
26.698957263, 96.390, 2706.0, 52.0192
26.725217828, 96.390, 2717.0, 52.1249
26.751478394, 96.390, 2748.0, 52.4214
26.777738959, 96.390, 2696.0, 51.9230
26.803999524, 96.390, 2663.0, 51.6043
26.830260090, 96.390, 2702.0, 51.9808
26.856520655, 96.390, 2643.0, 51.4101
26.882781220, 96.390, 2649.0, 51.4684
26.909041786, 96.390, 2654.0, 51.5170
26.935302351, 96.390, 2615.0, 51.1371
26.961562916, 96.390, 2719.0, 52.1440
26.987823482, 96.390, 2673.0, 51.7011
27.014084047, 96.390, 2714.0, 52.0961
27.040344613, 96.390, 2692.0, 51.8845
27.066605178, 96.390, 2642.0, 51.4004
27.092865743, 96.390, 2585.0, 50.8429
27.119126309, 96.390, 2669.0, 51.6624
27.145386874, 96.390, 2593.0, 50.9215
27.171647439, 96.390, 2649.0, 51.4684
27.197908005, 96.390, 2722.0, 52.1728
27.224168570, 96.390, 2618.0, 51.1664
27.250429135, 96.390, 2534.0, 50.3389
27.276689701, 96.390, 2699.0, 51.9519
27.302950266, 96.390, 2614.0, 51.1273
27.329210831, 96.390, 2621.0, 51.1957
27.355471397, 96.390, 2637.0, 51.3517
27.381731962, 96.390, 2599.0, 50.9804
27.407992528, 96.390, 2701.0, 51.9711
27.434253093, 96.390, 2670.0, 51.6720
27.460513658, 96.390, 2615.0, 51.1371
27.486774224, 96.390, 2636.0, 51.3420
27.513034789, 96.390, 2525.0, 50.2494
27.539295354, 96.390, 2561.0, 50.6063
27.565555920, 96.390, 2512.0, 50.1199
27.591816485, 96.390, 2608.0, 51.0686
27.618077050, 96.390, 2544.0, 50.4381
27.644337616, 96.390, 2538.0, 50.3786
27.670598181, 96.390, 2504.0, 50.0400
27.696858746, 96.390, 2539.0, 50.3885
27.723119312, 96.390, 2490.0, 49.8999
27.749379877, 96.390, 2553.0, 50.5272
27.775640442, 96.390, 2581.0, 50.8035
27.801901008, 96.390, 2525.0, 50.2494
27.828161573, 96.390, 2468.0, 49.6790
27.854422139, 96.390, 2455.0, 49.5480
27.880682704, 96.390, 2502.0, 50.0200
27.906943269, 96.390, 2568.0, 50.6754
27.933203835, 96.390, 2458.0, 49.5782
27.959464400, 96.390, 2607.0, 51.0588
27.985724965, 96.390, 2535.0, 50.3488
28.011985531, 96.390, 2486.0, 49.8598
28.038246096, 96.390, 2501.0, 50.0100
28.064506661, 96.390, 2434.0, 49.3356
28.090767227, 96.390, 2550.0, 50.4975
28.117027792, 96.390, 2503.0, 50.0300
28.143288357, 96.390, 2409.0, 49.0816
28.169548923, 96.390, 2435.0, 49.3457
28.195809488, 96.390, 2507.0, 50.0700
28.222070054, 96.390, 2453.0, 49.5278
28.248330619, 96.390, 2392.0, 48.9081
28.274591184, 96.390, 2393.0, 48.9183
28.300851750, 96.390, 2442.0, 49.4166
28.327112315, 96.390, 2461.0, 49.6085
28.353372880, 96.390, 2425.0, 49.2443
28.379633446, 96.390, 2390.0, 48.8876
28.405894011, 96.390, 2539.0, 50.3885
28.432154576, 96.390, 2430.0, 49.2950
28.458415142, 96.390, 2455.0, 49.5480
28.484675707, 96.390, 2468.0, 49.6790
28.510936272, 96.390, 2402.0, 49.0102
28.537196838, 96.390, 2535.0, 50.3488
28.563457403, 96.390, 2398.0, 48.9694
28.589717968, 96.390, 2441.0, 49.4065
28.615978534, 96.390, 2397.0, 48.9592
28.642239099, 96.390, 2365.0, 48.6313
28.668499665, 96.390, 2354.0, 48.5180
28.694760230, 96.390, 2367.0, 48.6518
28.721020795, 96.390, 2376.0, 48.7442
28.747281361, 96.390, 2399.0, 48.9796
28.773541926, 96.390, 2395.0, 48.9387
28.799802491, 96.390, 2313.0, 48.0937
28.826063057, 96.390, 2317.0, 48.1352
28.852323622, 96.390, 2489.0, 49.8899
28.878584187, 96.390, 2321.0, 48.1768
28.904844753, 96.390, 2377.0, 48.7545
28.931105318, 96.390, 2392.0, 48.9081
28.957365883, 96.390, 2336.0, 48.3322
28.983626449, 96.390, 2365.0, 48.6313
29.009887014, 96.390, 2335.0, 48.3218
29.036147579, 96.390, 2349.0, 48.4665
29.062408145, 96.390, 2387.0, 48.8569
29.088668710, 96.390, 2334.0, 48.3115
29.114929276, 96.390, 2400.0, 48.9898
29.141189841, 96.390, 2413.0, 49.1223
29.167450406, 96.390, 2327.0, 48.2390
29.193710972, 96.390, 2350.0, 48.4768
29.219971537, 96.390, 2386.0, 48.8467
29.246232102, 96.390, 2345.0, 48.4252
29.272492668, 96.390, 2222.0, 47.1381
29.298753233, 96.390, 2293.0, 47.8853
29.325013798, 96.390, 2322.0, 48.1871
29.351274364, 96.390, 2284.0, 47.7912
29.377534929, 96.390, 2316.0, 48.1248
29.403795494, 96.390, 2338.0, 48.3529
29.430056060, 96.390, 2238.0, 47.3075
29.456316625, 96.390, 2214.0, 47.0532
29.482577191, 96.390, 2260.0, 47.5395
29.508837756, 96.390, 2339.0, 48.3632
29.535098321, 96.390, 2378.0, 48.7647
29.561358887, 96.390, 2283.0, 47.7807
29.587619452, 96.390, 2309.0, 48.0521
29.613880017, 96.390, 2254.0, 47.4763
29.640140583, 96.390, 2316.0, 48.1248
29.666401148, 96.390, 2271.0, 47.6550
29.692661713, 96.390, 2249.0, 47.4236
29.718922279, 96.390, 2321.0, 48.1768
29.745182844, 96.390, 2210.0, 47.0106
29.771443409, 96.390, 2283.0, 47.7807
29.797703975, 96.390, 2218.0, 47.0956
29.823964540, 96.390, 2221.0, 47.1275
29.850225105, 96.390, 2296.0, 47.9166
29.876485671, 96.390, 2202.0, 46.9255
29.902746236, 96.390, 2227.0, 47.1911
29.929006802, 96.390, 2225.0, 47.1699
29.955267367, 96.390, 2199.0, 46.8935
29.981527932, 96.390, 2226.0, 47.1805
30.007788498, 96.390, 2120.0, 46.0435
30.034049063, 96.390, 2282.0, 47.7703
30.060309628, 96.390, 2188.0, 46.7761
30.086570194, 96.390, 2304.0, 48.0000
30.112830759, 96.390, 2228.0, 47.2017
30.139091324, 96.390, 2255.0, 47.4868
30.165351890, 96.390, 2200.0, 46.9042
30.191612455, 96.390, 2222.0, 47.1381
30.217873020, 96.390, 2259.0, 47.5289
30.244133586, 96.390, 2229.0, 47.2123
30.270394151, 96.390, 2148.0, 46.3465
30.296654717, 96.390, 2171.0, 46.5940
30.322915282, 96.390, 2145.0, 46.3141
30.349175847, 96.390, 2128.0, 46.1303
30.375436413, 96.390, 2152.0, 46.3897
30.401696978, 96.390, 2317.0, 48.1352
30.427957543, 96.390, 2270.0, 47.6445
30.454218109, 96.390, 2206.0, 46.9681
30.480478674, 96.390, 2127.0, 46.1194
30.506739239, 96.390, 2166.0, 46.5403
30.532999805, 96.390, 2108.0, 45.9130
30.559260370, 96.390, 2217.0, 47.0850
30.585520935, 96.390, 2140.0, 46.2601
30.611781501, 96.390, 2211.0, 47.0213
30.638042066, 96.390, 2123.0, 46.0760
30.664302631, 96.390, 2144.0, 46.3033
30.690563197, 96.390, 2184.0, 46.7333
30.716823762, 96.390, 2132.0, 46.1736
30.743084328, 96.390, 2025.0, 45.0000
30.769344893, 96.390, 2116.0, 46.0000
30.795605458, 96.390, 2145.0, 46.3141
30.821866024, 96.390, 2167.0, 46.5510
30.848126589, 96.390, 2055.0, 45.3321
30.874387154, 96.390, 2152.0, 46.3897
30.900647720, 96.390, 2169.0, 46.5725
30.926908285, 96.390, 2152.0, 46.3897
30.953168850, 96.390, 2142.0, 46.2817
30.979429416, 96.390, 2014.0, 44.8776
31.005689981, 96.390, 2120.0, 46.0435
31.031950546, 96.390, 2131.0, 46.1628
31.058211112, 96.390, 2124.0, 46.0869
31.084471677, 96.390, 2101.0, 45.8367
31.110732243, 96.390, 2049.0, 45.2659
31.136992808, 96.390, 2115.0, 45.9891
31.163253373, 96.390, 2070.0, 45.4973
31.189513939, 96.390, 2172.0, 46.6047
31.215774504, 96.390, 2123.0, 46.0760
31.242035069, 96.390, 2035.0, 45.1110
31.268295635, 96.390, 2086.0, 45.6727
31.294556200, 96.390, 2106.0, 45.8912
31.320816765, 96.390, 2105.0, 45.8803
31.347077331, 96.390, 2015.0, 44.8888
31.373337896, 96.390, 2169.0, 46.5725
31.399598461, 96.390, 2008.0, 44.8107
31.425859027, 96.390, 2033.0, 45.0888
31.452119592, 96.390, 1997.0, 44.6878
31.478380157, 96.390, 2010.0, 44.8330
31.504640723, 96.390, 2008.0, 44.8107
31.530901288, 96.390, 2025.0, 45.0000
31.557161854, 96.390, 2136.0, 46.2169
31.583422419, 96.390, 2008.0, 44.8107
31.609682984, 96.390, 2093.0, 45.7493
31.635943550, 96.390, 2051.0, 45.2880
31.662204115, 96.390, 1977.0, 44.4635
31.688464680, 96.390, 1983.0, 44.5309
31.714725246, 96.390, 2038.0, 45.1442
31.740985811, 96.390, 2004.0, 44.7661
31.767246376, 96.390, 2007.0, 44.7996
31.793506942, 96.390, 1998.0, 44.6990
31.819767507, 96.390, 1993.0, 44.6430
31.846028072, 96.390, 1907.0, 43.6692
31.872288638, 96.390, 2023.0, 44.9778
31.898549203, 96.390, 1901.0, 43.6005
31.924809769, 96.390, 1978.0, 44.4747
31.951070334, 96.390, 1874.0, 43.2897
31.977330899, 96.390, 2068.0, 45.4753
32.003591465, 96.390, 1942.0, 44.0681
32.029852030, 96.390, 1989.0, 44.5982
32.056112595, 96.390, 1955.0, 44.2154
32.082373161, 96.390, 1879.0, 43.3474
32.108633726, 96.390, 1961.0, 44.2832
32.134894291, 96.390, 1938.0, 44.0227
32.161154857, 96.390, 1992.0, 44.6318
32.187415422, 96.390, 1985.0, 44.5533
32.213675987, 96.390, 1917.0, 43.7836
32.239936553, 96.390, 1868.0, 43.2204
32.266197118, 96.390, 1978.0, 44.4747
32.292457683, 96.390, 1973.0, 44.4185
32.318718249, 96.390, 1934.0, 43.9773
32.344978814, 96.390, 1908.0, 43.6807
32.371239380, 96.390, 1979.0, 44.4860
32.397499945, 96.390, 1936.0, 44.0000
32.423760510, 96.390, 1916.0, 43.7721
32.450021076, 96.390, 1931.0, 43.9431
32.476281641, 96.390, 1954.0, 44.2041
32.502542206, 96.390, 1885.0, 43.4166
32.528802772, 96.390, 1884.0, 43.4051
32.555063337, 96.390, 1931.0, 43.9431
32.581323902, 96.390, 1863.0, 43.1625
32.607584468, 96.390, 1894.0, 43.5201
32.633845033, 96.390, 1878.0, 43.3359
32.660105598, 96.390, 1906.0, 43.6578
32.686366164, 96.390, 1876.0, 43.3128
32.712626729, 96.390, 1869.0, 43.2319
32.738887295, 96.390, 1898.0, 43.5660
32.765147860, 96.390, 1859.0, 43.1161
32.791408425, 96.390, 1890.0, 43.4741
32.817668991, 96.390, 1850.0, 43.0116
32.843929556, 96.390, 1897.0, 43.5546
32.870190121, 96.390, 1856.0, 43.0813
32.896450687, 96.390, 1867.0, 43.2088
32.922711252, 96.390, 1924.0, 43.8634
32.948971817, 96.390, 1913.0, 43.7379
32.975232383, 96.390, 1888.0, 43.4511
33.001492948, 96.390, 1925.0, 43.8748
33.027753513, 96.390, 1837.0, 42.8602
33.054014079, 96.390, 1915.0, 43.7607
33.080274644, 96.390, 1838.0, 42.8719
33.106535209, 96.390, 1872.0, 43.2666
33.132795775, 96.390, 1854.0, 43.0581
33.159056340, 96.390, 1917.0, 43.7836
33.185316906, 96.390, 1862.0, 43.1509
33.211577471, 96.390, 1883.0, 43.3935
33.237838036, 96.390, 1851.0, 43.0232
33.264098602, 96.390, 1941.0, 44.0568
33.290359167, 96.390, 1820.0, 42.6615
33.316619732, 96.390, 1924.0, 43.8634
33.342880298, 96.390, 1844.0, 42.9418
33.369140863, 96.390, 1736.0, 41.6653
33.395401428, 96.390, 1846.0, 42.9651
33.421661994, 96.390, 1854.0, 43.0581
33.447922559, 96.390, 1790.0, 42.3084
33.474183124, 96.390, 1783.0, 42.2256
33.500443690, 96.390, 1774.0, 42.1189
33.526704255, 96.390, 1771.0, 42.0833
33.552964820, 96.390, 1845.0, 42.9535
33.579225386, 96.390, 1875.0, 43.3013
33.605485951, 96.390, 1902.0, 43.6119
33.631746517, 96.390, 1895.0, 43.5316
33.658007082, 96.390, 1820.0, 42.6615
33.684267647, 96.390, 1753.0, 41.8688
33.710528213, 96.390, 1789.0, 42.2966
33.736788778, 96.390, 1696.0, 41.1825
33.763049343, 96.390, 1804.0, 42.4735
33.789309909, 96.390, 1803.0, 42.4617
33.815570474, 96.390, 1853.0, 43.0465
33.841831039, 96.390, 1720.0, 41.4729
33.868091605, 96.390, 1803.0, 42.4617
33.894352170, 96.390, 1798.0, 42.4028
33.920612735, 96.390, 1760.0, 41.9524
33.946873301, 96.390, 1792.0, 42.3320
33.973133866, 96.390, 1832.0, 42.8019
33.999394432, 96.390, 1770.0, 42.0714
34.025654997, 96.390, 1720.0, 41.4729
34.051915562, 96.390, 1763.0, 41.9881
34.078176128, 96.390, 1712.0, 41.3763
34.104436693, 96.390, 1722.0, 41.4970
34.130697258, 96.390, 1740.0, 41.7133
34.156957824, 96.390, 1721.0, 41.4849
34.183218389, 96.390, 1769.0, 42.0595
34.209478954, 96.390, 1753.0, 41.8688
34.235739520, 96.390, 1762.0, 41.9762
34.262000085, 96.390, 1735.0, 41.6533
34.288260650, 96.390, 1716.0, 41.4246
34.314521216, 96.390, 1798.0, 42.4028
34.340781781, 96.390, 1663.0, 40.7799
34.367042346, 96.390, 1728.0, 41.5692
34.393302912, 96.390, 1672.0, 40.8901
34.419563477, 96.390, 1688.0, 41.0853
34.445824043, 96.390, 1735.0, 41.6533
34.472084608, 96.390, 1687.0, 41.0731
34.498345173, 96.390, 1744.0, 41.7612
34.524605739, 96.390, 1646.0, 40.5709
34.550866304, 96.390, 1725.0, 41.5331
34.577126869, 96.390, 1672.0, 40.8901
34.603387435, 96.390, 1707.0, 41.3159
34.629648000, 96.390, 1772.0, 42.0951
34.655908565, 96.390, 1725.0, 41.5331
34.682169131, 96.390, 1759.0, 41.9404
34.708429696, 96.390, 1727.0, 41.5572
34.734690261, 96.390, 1696.0, 41.1825
34.760950827, 96.390, 1722.0, 41.4970
34.787211392, 96.390, 1662.0, 40.7676
34.813471958, 96.390, 1639.0, 40.4846
34.839732523, 96.390, 1725.0, 41.5331
34.865993088, 96.390, 1699.0, 41.2189
34.892253654, 96.390, 1693.0, 41.1461
34.918514219, 96.390, 1666.0, 40.8167
34.944774784, 96.390, 1689.0, 41.0974
34.971035350, 96.390, 1684.0, 41.0366
34.997295915, 96.390, 1604.0, 40.0500
35.023556480, 96.390, 1617.0, 40.2119
35.049817046, 96.390, 1644.0, 40.5463
35.076077611, 96.390, 1613.0, 40.1622
35.102338176, 96.390, 1654.0, 40.6694
35.128598742, 96.390, 1651.0, 40.6325
35.154859307, 96.390, 1637.0, 40.4599
35.181119872, 96.390, 1672.0, 40.8901
35.207380438, 96.390, 1591.0, 39.8873
35.233641003, 96.390, 1590.0, 39.8748
35.259901569, 96.390, 1621.0, 40.2616
35.286162134, 96.390, 1683.0, 41.0244
35.312422699, 96.390, 1569.0, 39.6106
35.338683265, 96.390, 1638.0, 40.4722
35.364943830, 96.390, 1619.0, 40.2368
35.391204395, 96.390, 1587.0, 39.8372
35.417464961, 96.390, 1631.0, 40.3856
35.443725526, 96.390, 1628.0, 40.3485
35.469986091, 96.390, 1597.0, 39.9625
35.496246657, 96.390, 1614.0, 40.1746
35.522507222, 96.390, 1676.0, 40.9390
35.548767787, 96.390, 1678.0, 40.9634
35.575028353, 96.390, 1705.0, 41.2916
35.601288918, 96.390, 1546.0, 39.3192
35.627549484, 96.390, 1591.0, 39.8873
35.653810049, 96.390, 1668.0, 40.8412
35.680070614, 96.390, 1586.0, 39.8246
35.706331180, 96.390, 1528.0, 39.0896
35.732591745, 96.390, 1556.0, 39.4462
35.758852310, 96.390, 1610.0, 40.1248
35.785112876, 96.390, 1574.0, 39.6737
35.811373441, 96.390, 1630.0, 40.3733
35.837634006, 96.390, 1555.0, 39.4335
35.863894572, 96.390, 1603.0, 40.0375
35.890155137, 96.390, 1482.0, 38.4968
35.916415702, 96.390, 1543.0, 39.2810
35.942676268, 96.390, 1578.0, 39.7240
35.968936833, 96.390, 1563.0, 39.5348
35.995197398, 96.390, 1551.0, 39.3827
36.021457964, 96.390, 1604.0, 40.0500
36.047718529, 96.390, 1489.0, 38.5876
36.073979095, 96.390, 1526.0, 39.0640
36.100239660, 96.390, 1535.0, 39.1791
36.126500225, 96.390, 1469.0, 38.3275
36.152760791, 96.390, 1588.0, 39.8497
36.179021356, 96.390, 1532.0, 39.1408
36.205281921, 96.390, 1546.0, 39.3192
36.231542487, 96.390, 1512.0, 38.8844
36.257803052, 96.390, 1489.0, 38.5876
36.284063617, 96.390, 1462.0, 38.2361
36.310324183, 96.390, 1491.0, 38.6135
36.336584748, 96.390, 1474.0, 38.3927
36.362845313, 96.390, 1528.0, 39.0896
36.389105879, 96.390, 1526.0, 39.0640
36.415366444, 96.390, 1549.0, 39.3573
36.441627010, 96.390, 1459.0, 38.1969
36.467887575, 96.390, 1496.0, 38.6782
36.494148140, 96.390, 1492.0, 38.6264
36.520408706, 96.390, 1556.0, 39.4462
36.546669271, 96.390, 1534.0, 39.1663
36.572929836, 96.390, 1500.0, 38.7298
36.599190402, 96.390, 1487.0, 38.5616
36.625450967, 96.390, 1398.0, 37.3898
36.651711532, 96.390, 1520.0, 38.9872
36.677972098, 96.390, 1416.0, 37.6298
36.704232663, 96.390, 1491.0, 38.6135
36.730493228, 96.390, 1454.0, 38.1314
36.756753794, 96.390, 1512.0, 38.8844
36.783014359, 96.390, 1556.0, 39.4462
36.809274924, 96.390, 1392.0, 37.3095
36.835535490, 96.390, 1491.0, 38.6135
36.861796055, 96.390, 1528.0, 39.0896
36.888056621, 96.390, 1453.0, 38.1182
36.914317186, 96.390, 1471.0, 38.3536
36.940577751, 96.390, 1525.0, 39.0512
36.966838317, 96.390, 1549.0, 39.3573
36.993098882, 96.390, 1513.0, 38.8973
37.019359447, 96.390, 1426.0, 37.7624
37.045620013, 96.390, 1503.0, 38.7685
37.071880578, 96.390, 1419.0, 37.6696
37.098141143, 96.390, 1506.0, 38.8072
37.124401709, 96.390, 1465.0, 38.2753
37.150662274, 96.390, 1427.0, 37.7757
37.176922839, 96.390, 1497.0, 38.6911
37.203183405, 96.390, 1441.0, 37.9605
37.229443970, 96.390, 1389.0, 37.2693
37.255704535, 96.390, 1484.0, 38.5227
37.281965101, 96.390, 1443.0, 37.9868
37.308225666, 96.390, 1518.0, 38.9615
37.334486232, 96.390, 1396.0, 37.3631
37.360746797, 96.390, 1401.0, 37.4299
37.387007362, 96.390, 1326.0, 36.4143
37.413267928, 96.390, 1415.0, 37.6165
37.439528493, 96.390, 1389.0, 37.2693
37.465789058, 96.390, 1385.0, 37.2156
37.492049624, 96.390, 1435.0, 37.8814
37.518310189, 96.390, 1398.0, 37.3898
37.544570754, 96.390, 1392.0, 37.3095
37.570831320, 96.390, 1451.0, 38.0920
37.597091885, 96.390, 1396.0, 37.3631
37.623352450, 96.390, 1391.0, 37.2961
37.649613016, 96.390, 1431.0, 37.8286
37.675873581, 96.390, 1373.0, 37.0540
37.702134147, 96.390, 1395.0, 37.3497
37.728394712, 96.390, 1376.0, 37.0945
37.754655277, 96.390, 1490.0, 38.6005
37.780915843, 96.390, 1413.0, 37.5899
37.807176408, 96.390, 1333.0, 36.5103
37.833436973, 96.390, 1461.0, 38.2230
37.859697539, 96.390, 1348.0, 36.7151
37.885958104, 96.390, 1382.0, 37.1753
37.912218669, 96.390, 1420.0, 37.6829
37.938479235, 96.390, 1451.0, 38.0920
37.964739800, 96.390, 1406.0, 37.4967
37.991000365, 96.390, 1393.0, 37.3229
38.017260931, 96.390, 1230.0, 35.0714
38.043521496, 96.390, 1418.0, 37.6563
38.069782061, 96.390, 1361.0, 36.8917
38.096042627, 96.390, 1389.0, 37.2693
38.122303192, 96.390, 1391.0, 37.2961
38.148563758, 96.390, 1378.0, 37.1214
38.174824323, 96.390, 1340.0, 36.6060
38.201084888, 96.390, 1302.0, 36.0832
38.227345454, 96.390, 1322.0, 36.3593
38.253606019, 96.390, 1357.0, 36.8375
38.279866584, 96.390, 1383.0, 37.1887
38.306127150, 96.390, 1355.0, 36.8103
38.332387715, 96.390, 1425.0, 37.7492
38.358648280, 96.390, 1303.0, 36.0971
38.384908846, 96.390, 1351.0, 36.7560
38.411169411, 96.390, 1331.0, 36.4829
38.437429976, 96.390, 1366.0, 36.9594
38.463690542, 96.390, 1331.0, 36.4829
38.489951107, 96.390, 1377.0, 37.1080
38.516211673, 96.390, 1433.0, 37.8550
38.542472238, 96.390, 1349.0, 36.7287
38.568732803, 96.390, 1357.0, 36.8375
38.594993369, 96.390, 1353.0, 36.7831
38.621253934, 96.390, 1426.0, 37.7624
38.647514499, 96.390, 1345.0, 36.6742
38.673775065, 96.390, 1360.0, 36.8782
38.700035630, 96.390, 1393.0, 37.3229
38.726296195, 96.390, 1329.0, 36.4555
38.752556761, 96.390, 1314.0, 36.2491
38.778817326, 96.390, 1400.0, 37.4166
38.805077891, 96.390, 1364.0, 36.9324
38.831338457, 96.390, 1248.0, 35.3270
38.857599022, 96.390, 1418.0, 37.6563
38.883859587, 96.390, 1386.0, 37.2290
38.910120153, 96.390, 1363.0, 36.9188
38.936380718, 96.390, 1294.0, 35.9722
38.962641284, 96.390, 1307.0, 36.1525
38.988901849, 96.390, 1359.0, 36.8646
39.015162414, 96.390, 1376.0, 37.0945
39.041422980, 96.390, 1314.0, 36.2491
39.067683545, 96.390, 1321.0, 36.3456
39.093944110, 96.390, 1268.0, 35.6090
39.120204676, 96.390, 1350.0, 36.7423
39.146465241, 96.390, 1298.0, 36.0278
39.172725806, 96.390, 1261.0, 35.5106
39.198986372, 96.390, 1344.0, 36.6606
39.225246937, 96.390, 1362.0, 36.9053
39.251507502, 96.390, 1340.0, 36.6060
39.277768068, 96.390, 1384.0, 37.2022
39.304028633, 96.390, 1242.0, 35.2420
39.330289199, 96.390, 1308.0, 36.1663
39.356549764, 96.390, 1354.0, 36.7967
39.382810329, 96.390, 1345.0, 36.6742
39.409070895, 96.390, 1310.0, 36.1939
39.435331460, 96.390, 1322.0, 36.3593
39.461592025, 96.390, 1270.0, 35.6371
39.487852591, 96.390, 1310.0, 36.1939
39.514113156, 96.390, 1321.0, 36.3456
39.540373721, 96.390, 1386.0, 37.2290
39.566634287, 96.390, 1280.0, 35.7771
39.592894852, 96.390, 1318.0, 36.3043
39.619155417, 96.390, 1233.0, 35.1141
39.645415983, 96.390, 1347.0, 36.7015
39.671676548, 96.390, 1296.0, 36.0000
39.697937113, 96.390, 1304.0, 36.1109
39.724197679, 96.390, 1339.0, 36.5923
39.750458244, 96.390, 1288.0, 35.8887
39.776718810, 96.390, 1304.0, 36.1109
39.802979375, 96.390, 1300.0, 36.0555
39.829239940, 96.390, 1302.0, 36.0832
39.855500506, 96.390, 1358.0, 36.8511
39.881761071, 96.390, 1270.0, 35.6371
39.908021636, 96.390, 1339.0, 36.5923
39.934282202, 96.390, 1319.0, 36.3180
39.960542767, 96.390, 1322.0, 36.3593
39.986803332, 96.390, 1378.0, 37.1214
40.013063898, 96.390, 1335.0, 36.5377
40.039324463, 96.390, 1253.0, 35.3977
40.065585028, 96.390, 1282.0, 35.8050
40.091845594, 96.390, 1363.0, 36.9188
40.118106159, 96.390, 1293.0, 35.9583
40.144366725, 96.390, 1272.0, 35.6651
40.170627290, 96.390, 1319.0, 36.3180
40.196887855, 96.390, 1340.0, 36.6060
40.223148421, 96.390, 1346.0, 36.6879
40.249408986, 96.390, 1327.0, 36.4280
40.275669551, 96.390, 1238.0, 35.1852
40.301930117, 96.390, 1312.0, 36.2215
40.328190682, 96.390, 1329.0, 36.4555
40.354451247, 96.390, 1288.0, 35.8887
40.380711813, 96.390, 1348.0, 36.7151
40.406972378, 96.390, 1300.0, 36.0555
40.433232943, 96.390, 1319.0, 36.3180
40.459493509, 96.390, 1310.0, 36.1939
40.485754074, 96.390, 1322.0, 36.3593
40.512014639, 96.390, 1317.0, 36.2905
40.538275205, 96.390, 1316.0, 36.2767
40.564535770, 96.390, 1325.0, 36.4005
40.590796336, 96.390, 1312.0, 36.2215
40.617056901, 96.390, 1252.0, 35.3836
40.643317466, 96.390, 1279.0, 35.7631
40.669578032, 96.390, 1320.0, 36.3318
40.695838597, 96.390, 1263.0, 35.5387
40.722099162, 96.390, 1280.0, 35.7771
40.748359728, 96.390, 1268.0, 35.6090
40.774620293, 96.390, 1211.0, 34.7994
40.800880858, 96.390, 1273.0, 35.6791
40.827141424, 96.390, 1295.0, 35.9861
40.853401989, 96.390, 1290.0, 35.9166
40.879662554, 96.390, 1307.0, 36.1525
40.905923120, 96.390, 1273.0, 35.6791
40.932183685, 96.390, 1331.0, 36.4829
40.958444251, 96.390, 1242.0, 35.2420
40.984704816, 96.390, 1304.0, 36.1109
41.010965381, 96.390, 1302.0, 36.0832
41.037225947, 96.390, 1278.0, 35.7491
41.063486512, 96.390, 1283.0, 35.8190
41.089747077, 96.390, 1292.0, 35.9444
41.116007643, 96.390, 1171.0, 34.2199
41.142268208, 96.390, 1254.0, 35.4119
41.168528773, 96.390, 1279.0, 35.7631
41.194789339, 96.390, 1246.0, 35.2987
41.221049904, 96.390, 1288.0, 35.8887
41.247310469, 96.390, 1265.0, 35.5668
41.273571035, 96.390, 1242.0, 35.2420
41.299831600, 96.390, 1228.0, 35.0428
41.326092165, 96.390, 1276.0, 35.7211
41.352352731, 96.390, 1284.0, 35.8329
41.378613296, 96.390, 1335.0, 36.5377
41.404873862, 96.390, 1273.0, 35.6791
41.431134427, 96.390, 1292.0, 35.9444
41.457394992, 96.390, 1223.0, 34.9714
41.483655558, 96.390, 1337.0, 36.5650
41.509916123, 96.390, 1272.0, 35.6651
41.536176688, 96.390, 1248.0, 35.3270
41.562437254, 96.390, 1229.0, 35.0571
41.588697819, 96.390, 1302.0, 36.0832
41.614958384, 96.390, 1309.0, 36.1801
41.641218950, 96.390, 1313.0, 36.2353
41.667479515, 96.390, 1293.0, 35.9583
41.693740080, 96.390, 1272.0, 35.6651
41.720000646, 96.390, 1326.0, 36.4143
41.746261211, 96.390, 1257.0, 35.4542
41.772521776, 96.390, 1207.0, 34.7419
41.798782342, 96.390, 1312.0, 36.2215
41.825042907, 96.390, 1235.0, 35.1426
41.851303473, 96.390, 1249.0, 35.3412
41.877564038, 96.390, 1293.0, 35.9583
41.903824603, 96.390, 1277.0, 35.7351
41.930085169, 96.390, 1240.0, 35.2136
41.956345734, 96.390, 1179.0, 34.3366
41.982606299, 96.390, 1254.0, 35.4119
42.008866865, 96.390, 1246.0, 35.2987
42.035127430, 96.390, 1289.0, 35.9026
42.061387995, 96.390, 1224.0, 34.9857
42.087648561, 96.390, 1246.0, 35.2987
42.113909126, 96.390, 1239.0, 35.1994
42.140169691, 96.390, 1287.0, 35.8748
42.166430257, 96.390, 1255.0, 35.4260
42.192690822, 96.390, 1193.0, 34.5398
42.218951388, 96.390, 1220.0, 34.9285
42.245211953, 96.390, 1263.0, 35.5387
42.271472518, 96.390, 1320.0, 36.3318
42.297733084, 96.390, 1247.0, 35.3129
42.323993649, 96.390, 1213.0, 34.8281
42.350254214, 96.390, 1251.0, 35.3695
42.376514780, 96.390, 1279.0, 35.7631
42.402775345, 96.390, 1210.0, 34.7851
42.429035910, 96.390, 1203.0, 34.6843
42.455296476, 96.390, 1189.0, 34.4819
42.481557041, 96.390, 1235.0, 35.1426
42.507817606, 96.390, 1222.0, 34.9571
42.534078172, 96.390, 1190.0, 34.4964
42.560338737, 96.390, 1187.0, 34.4529
42.586599302, 96.390, 1189.0, 34.4819
42.612859868, 96.390, 1182.0, 34.3802
42.639120433, 96.390, 1251.0, 35.3695
42.665380999, 96.390, 1162.0, 34.0881
42.691641564, 96.390, 1233.0, 35.1141
42.717902129, 96.390, 1248.0, 35.3270
42.744162695, 96.390, 1266.0, 35.5809
42.770423260, 96.390, 1193.0, 34.5398
42.796683825, 96.390, 1215.0, 34.8569
42.822944391, 96.390, 1260.0, 35.4965
42.849204956, 96.390, 1223.0, 34.9714
42.875465521, 96.390, 1138.0, 33.7343
42.901726087, 96.390, 1242.0, 35.2420
42.927986652, 96.390, 1233.0, 35.1141
42.954247217, 96.390, 1225.0, 35.0000
42.980507783, 96.390, 1243.0, 35.2562
43.006768348, 96.390, 1248.0, 35.3270
43.033028914, 96.390, 1213.0, 34.8281
43.059289479, 96.390, 1220.0, 34.9285
43.085550044, 96.390, 1199.0, 34.6266
43.111810610, 96.390, 1179.0, 34.3366
43.138071175, 96.390, 1178.0, 34.3220
43.164331740, 96.390, 1234.0, 35.1283
43.190592306, 96.390, 1199.0, 34.6266
43.216852871, 96.390, 1207.0, 34.7419
43.243113436, 96.390, 1176.0, 34.2929
43.269374002, 96.390, 1121.0, 33.4813
43.295634567, 96.390, 1265.0, 35.5668
43.321895132, 96.390, 1148.0, 33.8821
43.348155698, 96.390, 1207.0, 34.7419
43.374416263, 96.390, 1183.0, 34.3948
43.400676828, 96.390, 1163.0, 34.1028
43.426937394, 96.390, 1197.0, 34.5977
43.453197959, 96.390, 1203.0, 34.6843
43.479458525, 96.390, 1182.0, 34.3802
43.505719090, 96.390, 1179.0, 34.3366
43.531979655, 96.390, 1220.0, 34.9285
43.558240221, 96.390, 1251.0, 35.3695
43.584500786, 96.390, 1175.0, 34.2783
43.610761351, 96.390, 1170.0, 34.2053
43.637021917, 96.390, 1154.0, 33.9706
43.663282482, 96.390, 1243.0, 35.2562
43.689543047, 96.390, 1176.0, 34.2929
43.715803613, 96.390, 1154.0, 33.9706
43.742064178, 96.390, 1223.0, 34.9714
43.768324743, 96.390, 1181.0, 34.3657
43.794585309, 96.390, 1242.0, 35.2420
43.820845874, 96.390, 1132.0, 33.6452
43.847106440, 96.390, 1157.0, 34.0147
43.873367005, 96.390, 1202.0, 34.6699
43.899627570, 96.390, 1209.0, 34.7707
43.925888136, 96.390, 1186.0, 34.4384
43.952148701, 96.390, 1171.0, 34.2199
43.978409266, 96.390, 1161.0, 34.0735
44.004669832, 96.390, 1153.0, 33.9559
44.030930397, 96.390, 1140.0, 33.7639
44.057190962, 96.390, 1161.0, 34.0735
44.083451528, 96.390, 1136.0, 33.7046
44.109712093, 96.390, 1129.0, 33.6006
44.135972658, 96.390, 1132.0, 33.6452
44.162233224, 96.390, 1165.0, 34.1321
44.188493789, 96.390, 1114.0, 33.3766
44.214754354, 96.390, 1165.0, 34.1321
44.241014920, 96.390, 1141.0, 33.7787
44.267275485, 96.390, 1123.0, 33.5112
44.293536051, 96.390, 1178.0, 34.3220
44.319796616, 96.390, 1175.0, 34.2783
44.346057181, 96.390, 1156.0, 34.0000
44.372317747, 96.390, 1122.0, 33.4963
44.398578312, 96.390, 1116.0, 33.4066
44.424838877, 96.390, 1083.0, 32.9090
44.451099443, 96.390, 1189.0, 34.4819
44.477360008, 96.390, 1104.0, 33.2265
44.503620573, 96.390, 1109.0, 33.3017
44.529881139, 96.390, 1217.0, 34.8855
44.556141704, 96.390, 1158.0, 34.0294
44.582402269, 96.390, 1127.0, 33.5708
44.608662835, 96.390, 1132.0, 33.6452
44.634923400, 96.390, 1061.0, 32.5730
44.661183966, 96.390, 1158.0, 34.0294
44.687444531, 96.390, 1110.0, 33.3167
44.713705096, 96.390, 1112.0, 33.3467
44.739965662, 96.390, 1103.0, 33.2114
44.766226227, 96.390, 1143.0, 33.8083
44.792486792, 96.390, 1124.0, 33.5261
44.818747358, 96.390, 1139.0, 33.7491
44.845007923, 96.390, 1075.0, 32.7872
44.871268488, 96.390, 1129.0, 33.6006
44.897529054, 96.390, 1067.0, 32.6650
44.923789619, 96.390, 1116.0, 33.4066
44.950050184, 96.390, 1124.0, 33.5261
44.976310750, 96.390, 1127.0, 33.5708
45.002571315, 96.390, 1161.0, 34.0735
45.028831880, 96.390, 1161.0, 34.0735
45.055092446, 96.390, 1177.0, 34.3074
45.081353011, 96.390, 1086.0, 32.9545
45.107613577, 96.390, 1069.0, 32.6956
45.133874142, 96.390, 1120.0, 33.4664
45.160134707, 96.390, 1074.0, 32.7719
45.186395273, 96.390, 1155.0, 33.9853
45.212655838, 96.390, 1106.0, 33.2566
45.238916403, 96.390, 1098.0, 33.1361
45.265176969, 96.390, 1099.0, 33.1512
45.291437534, 96.390, 1123.0, 33.5112
45.317698099, 96.390, 1146.0, 33.8526
45.343958665, 96.390, 1120.0, 33.4664
45.370219230, 96.390, 1137.0, 33.7194
45.396479795, 96.390, 1095.0, 33.0908
45.422740361, 96.390, 1133.0, 33.6601
45.449000926, 96.390, 1122.0, 33.4963
45.475261492, 96.390, 1136.0, 33.7046
45.501522057, 96.390, 1074.0, 32.7719
45.527782622, 96.390, 1120.0, 33.4664
45.554043188, 96.390, 1065.0, 32.6343
45.580303753, 96.390, 1114.0, 33.3766
45.606564318, 96.390, 1150.0, 33.9116
45.632824884, 96.390, 1101.0, 33.1813
45.659085449, 96.390, 1087.0, 32.9697
45.685346014, 96.390, 1112.0, 33.3467
45.711606580, 96.390, 1086.0, 32.9545
45.737867145, 96.390, 1039.0, 32.2335
45.764127710, 96.390, 1114.0, 33.3766
45.790388276, 96.390, 1148.0, 33.8821
45.816648841, 96.390, 1077.0, 32.8177
45.842909406, 96.390, 1049.0, 32.3883
45.869169972, 96.390, 1066.0, 32.6497
45.895430537, 96.390, 1085.0, 32.9393
45.921691103, 96.390, 1156.0, 34.0000
45.947951668, 96.390, 1113.0, 33.3617
45.974212233, 96.390, 1116.0, 33.4066
46.000472799, 96.390, 1122.0, 33.4963
46.026733364, 96.390, 1125.0, 33.5410
46.052993929, 96.390, 1122.0, 33.4963
46.079254495, 96.390, 1143.0, 33.8083
46.105515060, 96.390, 1129.0, 33.6006
46.131775625, 96.390, 1110.0, 33.3167
46.158036191, 96.390, 1041.0, 32.2645
46.184296756, 96.390, 1093.0, 33.0606
46.210557321, 96.390, 1047.0, 32.3574
46.236817887, 96.390, 1098.0, 33.1361
46.263078452, 96.390, 1080.0, 32.8634
46.289339017, 96.390, 1049.0, 32.3883
46.315599583, 96.390, 1062.0, 32.5883
46.341860148, 96.390, 1114.0, 33.3766
46.368120714, 96.390, 1058.0, 32.5269
46.394381279, 96.390, 1078.0, 32.8329
46.420641844, 96.390, 1042.0, 32.2800
46.446902410, 96.390, 1004.0, 31.6860
46.473162975, 96.390, 1037.0, 32.2025
46.499423540, 96.390, 1057.0, 32.5115
46.525684106, 96.390, 979.0, 31.2890
46.551944671, 96.390, 1071.0, 32.7261
46.578205236, 96.390, 1042.0, 32.2800
46.604465802, 96.390, 1053.0, 32.4500
46.630726367, 96.390, 1095.0, 33.0908
46.656986932, 96.390, 1047.0, 32.3574
46.683247498, 96.390, 1027.0, 32.0468
46.709508063, 96.390, 1012.0, 31.8119
46.735768629, 96.390, 1015.0, 31.8591
46.762029194, 96.390, 1058.0, 32.5269
46.788289759, 96.390, 1036.0, 32.1870
46.814550325, 96.390, 1031.0, 32.1092
46.840810890, 96.390, 993.0, 31.5119
46.867071455, 96.390, 1016.0, 31.8748
46.893332021, 96.390, 1120.0, 33.4664
46.919592586, 96.390, 1014.0, 31.8434
46.945853151, 96.390, 1084.0, 32.9242
46.972113717, 96.390, 1079.0, 32.8481
46.998374282, 96.390, 1057.0, 32.5115
47.024634847, 96.390, 1070.0, 32.7109
47.050895413, 96.390, 1039.0, 32.2335
47.077155978, 96.390, 1072.0, 32.7414
47.103416543, 96.390, 1070.0, 32.7109
47.129677109, 96.390, 1038.0, 32.2180
47.155937674, 96.390, 1053.0, 32.4500
47.182198240, 96.390, 1015.0, 31.8591
47.208458805, 96.390, 1003.0, 31.6702
47.234719370, 96.390, 1005.0, 31.7017
47.260979936, 96.390, 1016.0, 31.8748
47.287240501, 96.390, 1034.0, 32.1559
47.313501066, 96.390, 1035.0, 32.1714
47.339761632, 96.390, 1046.0, 32.3419
47.366022197, 96.390, 1039.0, 32.2335
47.392282762, 96.390, 954.0, 30.8869
47.418543328, 96.390, 1048.0, 32.3728
47.444803893, 96.390, 1095.0, 33.0908
47.471064458, 96.390, 1034.0, 32.1559
47.497325024, 96.390, 1039.0, 32.2335
47.523585589, 96.390, 1064.0, 32.6190
47.549846155, 96.390, 1070.0, 32.7109
47.576106720, 96.390, 1063.0, 32.6037
47.602367285, 96.390, 1052.0, 32.4345
47.628627851, 96.390, 1007.0, 31.7333
47.654888416, 96.390, 970.0, 31.1448
47.681148981, 96.390, 1065.0, 32.6343
47.707409547, 96.390, 1048.0, 32.3728
47.733670112, 96.390, 1013.0, 31.8277
47.759930677, 96.390, 962.0, 31.0161
47.786191243, 96.390, 1001.0, 31.6386
47.812451808, 96.390, 952.0, 30.8545
47.838712373, 96.390, 977.0, 31.2570
47.864972939, 96.390, 1013.0, 31.8277
47.891233504, 96.390, 1027.0, 32.0468
47.917494069, 96.390, 965.0, 31.0644
47.943754635, 96.390, 1009.0, 31.7648
47.970015200, 96.390, 981.0, 31.3209
47.996275766, 96.390, 1052.0, 32.4345
48.022536331, 96.390, 1068.0, 32.6803
48.048796896, 96.390, 1000.0, 31.6228
48.075057462, 96.390, 1024.0, 32.0000
48.101318027, 96.390, 1006.0, 31.7175
48.127578592, 96.390, 1031.0, 32.1092
48.153839158, 96.390, 1018.0, 31.9061
48.180099723, 96.390, 1021.0, 31.9531
48.206360288, 96.390, 1061.0, 32.5730
48.232620854, 96.390, 1018.0, 31.9061
48.258881419, 96.390, 1016.0, 31.8748
48.285141984, 96.390, 1043.0, 32.2955
48.311402550, 96.390, 1001.0, 31.6386
48.337663115, 96.390, 1018.0, 31.9061
48.363923681, 96.390, 1035.0, 32.1714
48.390184246, 96.390, 966.0, 31.0805
48.416444811, 96.390, 1015.0, 31.8591
48.442705377, 96.390, 1022.0, 31.9687
48.468965942, 96.390, 1045.0, 32.3265
48.495226507, 96.390, 951.0, 30.8383
48.521487073, 96.390, 1022.0, 31.9687
48.547747638, 96.390, 1073.0, 32.7567
48.574008203, 96.390, 1000.0, 31.6228
48.600268769, 96.390, 1032.0, 32.1248
48.626529334, 96.390, 973.0, 31.1929
48.652789899, 96.390, 1008.0, 31.7490
48.679050465, 96.390, 1004.0, 31.6860
48.705311030, 96.390, 1038.0, 32.2180
48.731571595, 96.390, 1013.0, 31.8277
48.757832161, 96.390, 1038.0, 32.2180
48.784092726, 96.390, 983.0, 31.3528
48.810353292, 96.390, 1023.0, 31.9844
48.836613857, 96.390, 972.0, 31.1769
48.862874422, 96.390, 973.0, 31.1929
48.889134988, 96.390, 955.0, 30.9031
48.915395553, 96.390, 992.0, 31.4960
48.941656118, 96.390, 966.0, 31.0805
48.967916684, 96.390, 1014.0, 31.8434
48.994177249, 96.390, 1010.0, 31.7805
49.020437814, 96.390, 1021.0, 31.9531
49.046698380, 96.390, 1062.0, 32.5883
49.072958945, 96.390, 997.0, 31.5753
49.099219510, 96.390, 1019.0, 31.9218
49.125480076, 96.390, 975.0, 31.2250
49.151740641, 96.390, 963.0, 31.0322
49.178001207, 96.390, 980.0, 31.3050
49.204261772, 96.390, 983.0, 31.3528
49.230522337, 96.390, 997.0, 31.5753
49.256782903, 96.390, 942.0, 30.6920
49.283043468, 96.390, 993.0, 31.5119
49.309304033, 96.390, 989.0, 31.4484
49.335564599, 96.390, 1002.0, 31.6544
49.361825164, 96.390, 1019.0, 31.9218
49.388085729, 96.390, 989.0, 31.4484
49.414346295, 96.390, 985.0, 31.3847
49.440606860, 96.390, 1036.0, 32.1870
49.466867425, 96.390, 970.0, 31.1448
49.493127991, 96.390, 945.0, 30.7409
49.519388556, 96.390, 1014.0, 31.8434
49.545649121, 96.390, 1029.0, 32.0780
49.571909687, 96.390, 967.0, 31.0966
49.598170252, 96.390, 1031.0, 32.1092
49.624430818, 96.390, 983.0, 31.3528
49.650691383, 96.390, 988.0, 31.4325
49.676951948, 96.390, 968.0, 31.1127
49.703212514, 96.390, 992.0, 31.4960
49.729473079, 96.390, 946.0, 30.7571
49.755733644, 96.390, 982.0, 31.3369
49.781994210, 96.390, 966.0, 31.0805
49.808254775, 96.390, 974.0, 31.2090
49.834515340, 96.390, 1065.0, 32.6343
49.860775906, 96.390, 941.0, 30.6757
49.887036471, 96.390, 1000.0, 31.6228
49.913297036, 96.390, 1020.0, 31.9374
49.939557602, 96.390, 982.0, 31.3369
49.965818167, 96.390, 923.0, 30.3809
49.992078732, 96.390, 951.0, 30.8383
50.018339298, 96.390, 1021.0, 31.9531
50.044599863, 96.390, 968.0, 31.1127
50.070860429, 96.390, 1011.0, 31.7962
50.097120994, 96.390, 989.0, 31.4484
50.123381559, 96.390, 985.0, 31.3847
50.149642125, 96.390, 1022.0, 31.9687
50.175902690, 96.390, 967.0, 31.0966
50.202163255, 96.390, 985.0, 31.3847
50.228423821, 96.390, 991.0, 31.4802
50.254684386, 96.390, 964.0, 31.0483
50.280944951, 96.390, 967.0, 31.0966
50.307205517, 96.390, 907.0, 30.1164
50.333466082, 96.390, 1013.0, 31.8277
50.359726647, 96.390, 956.0, 30.9192
50.385987213, 96.390, 967.0, 31.0966
50.412247778, 96.390, 963.0, 31.0322
50.438508344, 96.390, 948.0, 30.7896
50.464768909, 96.390, 963.0, 31.0322
50.491029474, 96.390, 888.0, 29.7993
50.517290040, 96.390, 923.0, 30.3809
50.543550605, 96.390, 945.0, 30.7409
50.569811170, 96.390, 955.0, 30.9031
50.596071736, 96.390, 948.0, 30.7896
50.622332301, 96.390, 948.0, 30.7896
50.648592866, 96.390, 999.0, 31.6070
50.674853432, 96.390, 979.0, 31.2890
50.701113997, 96.390, 935.0, 30.5778
50.727374562, 96.390, 958.0, 30.9516
50.753635128, 96.390, 952.0, 30.8545
50.779895693, 96.390, 967.0, 31.0966
50.806156258, 96.390, 975.0, 31.2250
50.832416824, 96.390, 986.0, 31.4006
50.858677389, 96.390, 1017.0, 31.8904
50.884937955, 96.390, 944.0, 30.7246
50.911198520, 96.390, 971.0, 31.1609
50.937459085, 96.390, 981.0, 31.3209
50.963719651, 96.390, 920.0, 30.3315
50.989980216, 96.390, 971.0, 31.1609
51.016240781, 96.390, 991.0, 31.4802
51.042501347, 96.390, 908.0, 30.1330
51.068761912, 96.390, 935.0, 30.5778
51.095022477, 96.390, 921.0, 30.3480
51.121283043, 96.390, 988.0, 31.4325
51.147543608, 96.390, 962.0, 31.0161
51.173804173, 96.390, 966.0, 31.0805
51.200064739, 96.390, 906.0, 30.0998
51.226325304, 96.390, 1018.0, 31.9061
51.252585870, 96.390, 1009.0, 31.7648
51.278846435, 96.390, 971.0, 31.1609
51.305107000, 96.390, 915.0, 30.2490
51.331367566, 96.390, 957.0, 30.9354
51.357628131, 96.390, 915.0, 30.2490
51.383888696, 96.390, 948.0, 30.7896
51.410149262, 96.390, 942.0, 30.6920
51.436409827, 96.390, 949.0, 30.8058
51.462670392, 96.390, 960.0, 30.9839
51.488930958, 96.390, 953.0, 30.8707
51.515191523, 96.390, 995.0, 31.5436
51.541452088, 96.390, 956.0, 30.9192
51.567712654, 96.390, 982.0, 31.3369
51.593973219, 96.390, 933.0, 30.5450
51.620233784, 96.390, 941.0, 30.6757
51.646494350, 96.390, 955.0, 30.9031
51.672754915, 96.390, 943.0, 30.7083
51.699015481, 96.390, 928.0, 30.4631
51.725276046, 96.390, 1004.0, 31.6860
51.751536611, 96.390, 918.0, 30.2985
51.777797177, 96.390, 938.0, 30.6268
51.804057742, 96.390, 990.0, 31.4643
51.830318307, 96.390, 945.0, 30.7409
51.856578873, 96.390, 974.0, 31.2090
51.882839438, 96.390, 951.0, 30.8383
51.909100003, 96.390, 947.0, 30.7734
51.935360569, 96.390, 942.0, 30.6920
51.961621134, 96.390, 949.0, 30.8058
51.987881699, 96.390, 926.0, 30.4302
52.014142265, 96.390, 973.0, 31.1929
52.040402830, 96.390, 1033.0, 32.1403
52.066663396, 96.390, 965.0, 31.0644
52.092923961, 96.390, 972.0, 31.1769
52.119184526, 96.390, 930.0, 30.4959
52.145445092, 96.390, 960.0, 30.9839
52.171705657, 96.390, 928.0, 30.4631
52.197966222, 96.390, 882.0, 29.6985
52.224226788, 96.390, 912.0, 30.1993
52.250487353, 96.390, 949.0, 30.8058
52.276747918, 96.390, 993.0, 31.5119
52.303008484, 96.390, 892.0, 29.8664
52.329269049, 96.390, 944.0, 30.7246
52.355529614, 96.390, 972.0, 31.1769
52.381790180, 96.390, 957.0, 30.9354
52.408050745, 96.390, 1001.0, 31.6386
52.434311310, 96.390, 984.0, 31.3688
52.460571876, 96.390, 947.0, 30.7734
52.486832441, 96.390, 934.0, 30.5614
52.513093007, 96.390, 978.0, 31.2730
52.539353572, 96.390, 930.0, 30.4959
52.565614137, 96.390, 929.0, 30.4795
52.591874703, 96.390, 944.0, 30.7246
52.618135268, 96.390, 929.0, 30.4795
52.644395833, 96.390, 1011.0, 31.7962
52.670656399, 96.390, 930.0, 30.4959
52.696916964, 96.390, 1003.0, 31.6702
52.723177529, 96.390, 990.0, 31.4643
52.749438095, 96.390, 939.0, 30.6431
52.775698660, 96.390, 945.0, 30.7409
52.801959225, 96.390, 1006.0, 31.7175
52.828219791, 96.390, 928.0, 30.4631
52.854480356, 96.390, 985.0, 31.3847
52.880740922, 96.390, 996.0, 31.5595
52.907001487, 96.390, 943.0, 30.7083
52.933262052, 96.390, 930.0, 30.4959
52.959522618, 96.390, 970.0, 31.1448
52.985783183, 96.390, 890.0, 29.8329
53.012043748, 96.390, 936.0, 30.5941
53.038304314, 96.390, 916.0, 30.2655
53.064564879, 96.390, 947.0, 30.7734
53.090825444, 96.390, 973.0, 31.1929
53.117086010, 96.390, 893.0, 29.8831
53.143346575, 96.390, 971.0, 31.1609
53.169607140, 96.390, 938.0, 30.6268
53.195867706, 96.390, 918.0, 30.2985
53.222128271, 96.390, 961.0, 31.0000
53.248388836, 96.390, 911.0, 30.1828
53.274649402, 96.390, 957.0, 30.9354
53.300909967, 96.390, 1002.0, 31.6544
53.327170533, 96.390, 950.0, 30.8221
53.353431098, 96.390, 980.0, 31.3050
53.379691663, 96.390, 923.0, 30.3809
53.405952229, 96.390, 930.0, 30.4959
53.432212794, 96.390, 941.0, 30.6757
53.458473359, 96.390, 1002.0, 31.6544
53.484733925, 96.390, 957.0, 30.9354
53.510994490, 96.390, 969.0, 31.1288
53.537255055, 96.390, 943.0, 30.7083
53.563515621, 96.390, 932.0, 30.5287
53.589776186, 96.390, 943.0, 30.7083
53.616036751, 96.390, 945.0, 30.7409
53.642297317, 96.390, 907.0, 30.1164
53.668557882, 96.390, 960.0, 30.9839
53.694818448, 96.390, 961.0, 31.0000
53.721079013, 96.390, 951.0, 30.8383
53.747339578, 96.390, 978.0, 31.2730
53.773600144, 96.390, 927.0, 30.4467
53.799860709, 96.390, 964.0, 31.0483
53.826121274, 96.390, 946.0, 30.7571
53.852381840, 96.390, 971.0, 31.1609
53.878642405, 96.390, 962.0, 31.0161
53.904902970, 96.390, 922.0, 30.3645
53.931163536, 96.390, 950.0, 30.8221
53.957424101, 96.390, 940.0, 30.6594
53.983684666, 96.390, 973.0, 31.1929
54.009945232, 96.390, 937.0, 30.6105
54.036205797, 96.390, 916.0, 30.2655
54.062466362, 96.390, 962.0, 31.0161
54.088726928, 96.390, 942.0, 30.6920
54.114987493, 96.390, 951.0, 30.8383
54.141248059, 96.390, 922.0, 30.3645
54.167508624, 96.390, 980.0, 31.3050
54.193769189, 96.390, 969.0, 31.1288
54.220029755, 96.390, 968.0, 31.1127
54.246290320, 96.390, 955.0, 30.9031
54.272550885, 96.390, 923.0, 30.3809
54.298811451, 96.390, 964.0, 31.0483
54.325072016, 96.390, 891.0, 29.8496
54.351332581, 96.390, 924.0, 30.3974
54.377593147, 96.390, 997.0, 31.5753
54.403853712, 96.390, 930.0, 30.4959
54.430114277, 96.390, 884.0, 29.7321
54.456374843, 96.390, 954.0, 30.8869
54.482635408, 96.390, 953.0, 30.8707
54.508895973, 96.390, 941.0, 30.6757
54.535156539, 96.390, 962.0, 31.0161
54.561417104, 96.390, 958.0, 30.9516
54.587677670, 96.390, 948.0, 30.7896
54.613938235, 96.390, 912.0, 30.1993
54.640198800, 96.390, 943.0, 30.7083
54.666459366, 96.390, 961.0, 31.0000
54.692719931, 96.390, 945.0, 30.7409
54.718980496, 96.390, 948.0, 30.7896
54.745241062, 96.390, 903.0, 30.0500
54.771501627, 96.390, 933.0, 30.5450
54.797762192, 96.390, 951.0, 30.8383
54.824022758, 96.390, 1007.0, 31.7333
54.850283323, 96.390, 976.0, 31.2410
54.876543888, 96.390, 953.0, 30.8707
54.902804454, 96.390, 937.0, 30.6105
54.929065019, 96.390, 930.0, 30.4959
54.955325585, 96.390, 1022.0, 31.9687
54.981586150, 96.390, 956.0, 30.9192
55.007846715, 96.390, 999.0, 31.6070
55.034107281, 96.390, 928.0, 30.4631
55.060367846, 96.390, 897.0, 29.9500
55.086628411, 96.390, 954.0, 30.8869
55.112888977, 96.390, 933.0, 30.5450
55.139149542, 96.390, 966.0, 31.0805
55.165410107, 96.390, 933.0, 30.5450
55.191670673, 96.390, 965.0, 31.0644
55.217931238, 96.390, 964.0, 31.0483
55.244191803, 96.390, 936.0, 30.5941
55.270452369, 96.390, 958.0, 30.9516
55.296712934, 96.390, 950.0, 30.8221
55.322973499, 96.390, 959.0, 30.9677
55.349234065, 96.390, 892.0, 29.8664
55.375494630, 96.390, 988.0, 31.4325
55.401755196, 96.390, 993.0, 31.5119
55.428015761, 96.390, 948.0, 30.7896
55.454276326, 96.390, 891.0, 29.8496
55.480536892, 96.390, 998.0, 31.5911
55.506797457, 96.390, 961.0, 31.0000
55.533058022, 96.390, 982.0, 31.3369
55.559318588, 96.390, 963.0, 31.0322
55.585579153, 96.390, 941.0, 30.6757
55.611839718, 96.390, 968.0, 31.1127
55.638100284, 96.390, 1009.0, 31.7648
55.664360849, 96.390, 1018.0, 31.9061
55.690621414, 96.390, 959.0, 30.9677
55.716881980, 96.390, 976.0, 31.2410
55.743142545, 96.390, 898.0, 29.9666
55.769403111, 96.390, 952.0, 30.8545
55.795663676, 96.390, 960.0, 30.9839
55.821924241, 96.390, 971.0, 31.1609
55.848184807, 96.390, 956.0, 30.9192
55.874445372, 96.390, 973.0, 31.1929
55.900705937, 96.390, 907.0, 30.1164
55.926966503, 96.390, 944.0, 30.7246
55.953227068, 96.390, 935.0, 30.5778
55.979487633, 96.390, 973.0, 31.1929
56.005748199, 96.390, 981.0, 31.3209
56.032008764, 96.390, 940.0, 30.6594
56.058269329, 96.390, 1023.0, 31.9844
56.084529895, 96.390, 957.0, 30.9354
56.110790460, 96.390, 934.0, 30.5614
56.137051025, 96.390, 954.0, 30.8869
56.163311591, 96.390, 919.0, 30.3150
56.189572156, 96.390, 979.0, 31.2890
56.215832722, 96.390, 997.0, 31.5753
56.242093287, 96.390, 971.0, 31.1609
56.268353852, 96.390, 989.0, 31.4484
56.294614418, 96.390, 957.0, 30.9354
56.320874983, 96.390, 963.0, 31.0322
56.347135548, 96.390, 967.0, 31.0966
56.373396114, 96.390, 997.0, 31.5753
56.399656679, 96.390, 881.0, 29.6816
56.425917244, 96.390, 978.0, 31.2730
56.452177810, 96.390, 981.0, 31.3209
56.478438375, 96.390, 968.0, 31.1127
56.504698940, 96.390, 948.0, 30.7896
56.530959506, 96.390, 940.0, 30.6594
56.557220071, 96.390, 959.0, 30.9677
56.583480637, 96.390, 908.0, 30.1330
56.609741202, 96.390, 934.0, 30.5614
56.636001767, 96.390, 980.0, 31.3050
56.662262333, 96.390, 1021.0, 31.9531
56.688522898, 96.390, 934.0, 30.5614
56.714783463, 96.390, 957.0, 30.9354
56.741044029, 96.390, 965.0, 31.0644
56.767304594, 96.390, 900.0, 30.0000
56.793565159, 96.390, 956.0, 30.9192
56.819825725, 96.390, 961.0, 31.0000
56.846086290, 96.390, 997.0, 31.5753
56.872346855, 96.390, 968.0, 31.1127
56.898607421, 96.390, 923.0, 30.3809
56.924867986, 96.390, 1021.0, 31.9531
56.951128551, 96.390, 977.0, 31.2570
56.977389117, 96.390, 1021.0, 31.9531
57.003649682, 96.390, 963.0, 31.0322
57.029910248, 96.390, 944.0, 30.7246
57.056170813, 96.390, 958.0, 30.9516
57.082431378, 96.390, 927.0, 30.4467
57.108691944, 96.390, 956.0, 30.9192
57.134952509, 96.390, 960.0, 30.9839
57.161213074, 96.390, 927.0, 30.4467
57.187473640, 96.390, 973.0, 31.1929
57.213734205, 96.390, 916.0, 30.2655
57.239994770, 96.390, 944.0, 30.7246
57.266255336, 96.390, 941.0, 30.6757
57.292515901, 96.390, 970.0, 31.1448
57.318776466, 96.390, 963.0, 31.0322
57.345037032, 96.390, 927.0, 30.4467
57.371297597, 96.390, 945.0, 30.7409
57.397558163, 96.390, 921.0, 30.3480
57.423818728, 96.390, 971.0, 31.1609
57.450079293, 96.390, 949.0, 30.8058
57.476339859, 96.390, 999.0, 31.6070
57.502600424, 96.390, 947.0, 30.7734
57.528860989, 96.390, 1036.0, 32.1870
57.555121555, 96.390, 995.0, 31.5436
57.581382120, 96.390, 932.0, 30.5287
57.607642685, 96.390, 995.0, 31.5436
57.633903251, 96.390, 937.0, 30.6105
57.660163816, 96.390, 945.0, 30.7409
57.686424381, 96.390, 1001.0, 31.6386
57.712684947, 96.390, 1006.0, 31.7175
57.738945512, 96.390, 986.0, 31.4006
57.765206077, 96.390, 1014.0, 31.8434
57.791466643, 96.390, 928.0, 30.4631
57.817727208, 96.390, 953.0, 30.8707
57.843987774, 96.390, 998.0, 31.5911
57.870248339, 96.390, 954.0, 30.8869
57.896508904, 96.390, 1010.0, 31.7805
57.922769470, 96.390, 963.0, 31.0322
57.949030035, 96.390, 951.0, 30.8383
57.975290600, 96.390, 965.0, 31.0644
58.001551166, 96.390, 1027.0, 32.0468
58.027811731, 96.390, 952.0, 30.8545
58.054072296, 96.390, 927.0, 30.4467
58.080332862, 96.390, 976.0, 31.2410
58.106593427, 96.390, 984.0, 31.3688
58.132853992, 96.390, 890.0, 29.8329
58.159114558, 96.390, 956.0, 30.9192
58.185375123, 96.390, 986.0, 31.4006
58.211635689, 96.390, 933.0, 30.5450
58.237896254, 96.390, 1014.0, 31.8434
58.264156819, 96.390, 967.0, 31.0966
58.290417385, 96.390, 960.0, 30.9839
58.316677950, 96.390, 1008.0, 31.7490
58.342938515, 96.390, 961.0, 31.0000
58.369199081, 96.390, 910.0, 30.1662
58.395459646, 96.390, 993.0, 31.5119
58.421720211, 96.390, 981.0, 31.3209
58.447980777, 96.390, 957.0, 30.9354
58.474241342, 96.390, 967.0, 31.0966
58.500501907, 96.390, 933.0, 30.5450
58.526762473, 96.390, 1096.0, 33.1059
58.553023038, 96.390, 979.0, 31.2890
58.579283603, 96.390, 1007.0, 31.7333
58.605544169, 96.390, 998.0, 31.5911
58.631804734, 96.390, 1048.0, 32.3728
58.658065300, 96.390, 987.0, 31.4166
58.684325865, 96.390, 989.0, 31.4484
58.710586430, 96.390, 983.0, 31.3528
58.736846996, 96.390, 992.0, 31.4960
58.763107561, 96.390, 975.0, 31.2250
58.789368126, 96.390, 1033.0, 32.1403
58.815628692, 96.390, 961.0, 31.0000
58.841889257, 96.390, 993.0, 31.5119
58.868149822, 96.390, 994.0, 31.5278
58.894410388, 96.390, 1058.0, 32.5269
58.920670953, 96.390, 955.0, 30.9031
58.946931518, 96.390, 984.0, 31.3688
58.973192084, 96.390, 995.0, 31.5436
58.999452649, 96.390, 938.0, 30.6268
59.025713214, 96.390, 962.0, 31.0161
59.051973780, 96.390, 947.0, 30.7734
59.078234345, 96.390, 948.0, 30.7896
59.104494911, 96.390, 971.0, 31.1609
59.130755476, 96.390, 975.0, 31.2250
59.157016041, 96.390, 961.0, 31.0000
59.183276607, 96.390, 979.0, 31.2890
59.209537172, 96.390, 982.0, 31.3369
59.235797737, 96.390, 976.0, 31.2410
59.262058303, 96.390, 1000.0, 31.6228
59.288318868, 96.390, 980.0, 31.3050
59.314579433, 96.390, 1010.0, 31.7805
59.340839999, 96.390, 922.0, 30.3645
59.367100564, 96.390, 965.0, 31.0644
59.393361129, 96.390, 1022.0, 31.9687
59.419621695, 96.390, 1005.0, 31.7017
59.445882260, 96.390, 994.0, 31.5278
59.472142826, 96.390, 966.0, 31.0805
59.498403391, 96.390, 1021.0, 31.9531
59.524663956, 96.390, 966.0, 31.0805
59.550924522, 96.390, 1001.0, 31.6386
59.577185087, 96.390, 1016.0, 31.8748
59.603445652, 96.390, 935.0, 30.5778
59.629706218, 96.390, 1017.0, 31.8904
59.655966783, 96.390, 1041.0, 32.2645
59.682227348, 96.390, 943.0, 30.7083
59.708487914, 96.390, 991.0, 31.4802
59.734748479, 96.390, 1030.0, 32.0936
59.761009044, 96.390, 943.0, 30.7083
59.787269610, 96.390, 978.0, 31.2730
59.813530175, 96.390, 966.0, 31.0805
59.839790740, 96.390, 1063.0, 32.6037
59.866051306, 96.390, 952.0, 30.8545
59.892311871, 96.390, 992.0, 31.4960
59.918572437, 96.390, 968.0, 31.1127
59.944833002, 96.390, 959.0, 30.9677
59.971093567, 96.390, 992.0, 31.4960
59.997354133, 96.390, 1005.0, 31.7017
60.023614698, 96.390, 1080.0, 32.8634
60.049875263, 96.390, 970.0, 31.1448
60.076135829, 96.390, 971.0, 31.1609
60.102396394, 96.390, 1000.0, 31.6228
60.128656959, 96.390, 1011.0, 31.7962
60.154917525, 96.390, 1018.0, 31.9061
60.181178090, 96.390, 1036.0, 32.1870
60.207438655, 96.390, 1052.0, 32.4345
60.233699221, 96.390, 1027.0, 32.0468
60.259959786, 96.390, 999.0, 31.6070
60.286220352, 96.390, 972.0, 31.1769
60.312480917, 96.390, 1041.0, 32.2645
60.338741482, 96.390, 977.0, 31.2570
60.365002048, 96.390, 987.0, 31.4166
60.391262613, 96.390, 1013.0, 31.8277
60.417523178, 96.390, 999.0, 31.6070
60.443783744, 96.390, 1005.0, 31.7017
60.470044309, 96.390, 986.0, 31.4006
60.496304874, 96.390, 1012.0, 31.8119
60.522565440, 96.390, 983.0, 31.3528
60.548826005, 96.390, 1029.0, 32.0780
60.575086570, 96.390, 1006.0, 31.7175
60.601347136, 96.390, 989.0, 31.4484
60.627607701, 96.390, 1023.0, 31.9844
60.653868266, 96.390, 1070.0, 32.7109
60.680128832, 96.390, 1083.0, 32.9090
60.706389397, 96.390, 1034.0, 32.1559
60.732649963, 96.390, 994.0, 31.5278
60.758910528, 96.390, 988.0, 31.4325
60.785171093, 96.390, 981.0, 31.3209
60.811431659, 96.390, 1018.0, 31.9061
60.837692224, 96.390, 1001.0, 31.6386
60.863952789, 96.390, 1000.0, 31.6228
60.890213355, 96.390, 938.0, 30.6268
60.916473920, 96.390, 1004.0, 31.6860
60.942734485, 96.390, 963.0, 31.0322
60.968995051, 96.390, 952.0, 30.8545
60.995255616, 96.390, 1039.0, 32.2335
61.021516181, 96.390, 1003.0, 31.6702
61.047776747, 96.390, 1017.0, 31.8904
61.074037312, 96.390, 975.0, 31.2250
61.100297878, 96.390, 1004.0, 31.6860
61.126558443, 96.390, 1009.0, 31.7648
61.152819008, 96.390, 979.0, 31.2890
61.179079574, 96.390, 988.0, 31.4325
61.205340139, 96.390, 1033.0, 32.1403
61.231600704, 96.390, 981.0, 31.3209
61.257861270, 96.390, 977.0, 31.2570
61.284121835, 96.390, 967.0, 31.0966
61.310382400, 96.390, 1030.0, 32.0936
61.336642966, 96.390, 984.0, 31.3688
61.362903531, 96.390, 1046.0, 32.3419
61.389164096, 96.390, 1023.0, 31.9844
61.415424662, 96.390, 981.0, 31.3209
61.441685227, 96.390, 1010.0, 31.7805
61.467945792, 96.390, 993.0, 31.5119
61.494206358, 96.390, 969.0, 31.1288
61.520466923, 96.390, 952.0, 30.8545
61.546727489, 96.390, 1008.0, 31.7490
61.572988054, 96.390, 1076.0, 32.8024
61.599248619, 96.390, 1069.0, 32.6956
61.625509185, 96.390, 1037.0, 32.2025
61.651769750, 96.390, 999.0, 31.6070
61.678030315, 96.390, 982.0, 31.3369
61.704290881, 96.390, 1014.0, 31.8434
61.730551446, 96.390, 1026.0, 32.0312
61.756812011, 96.390, 1060.0, 32.5576
61.783072577, 96.390, 980.0, 31.3050
61.809333142, 96.390, 993.0, 31.5119
61.835593707, 96.390, 1040.0, 32.2490
61.861854273, 96.390, 1022.0, 31.9687
61.888114838, 96.390, 988.0, 31.4325
61.914375404, 96.390, 972.0, 31.1769
61.940635969, 96.390, 1062.0, 32.5883
61.966896534, 96.390, 1021.0, 31.9531
61.993157100, 96.390, 993.0, 31.5119
62.019417665, 96.390, 1037.0, 32.2025
62.045678230, 96.390, 1003.0, 31.6702
62.071938796, 96.390, 1052.0, 32.4345
62.098199361, 96.390, 987.0, 31.4166
62.124459926, 96.390, 972.0, 31.1769
62.150720492, 96.390, 1048.0, 32.3728
62.176981057, 96.390, 1007.0, 31.7333
62.203241622, 96.390, 1047.0, 32.3574
62.229502188, 96.390, 1017.0, 31.8904
62.255762753, 96.390, 999.0, 31.6070
62.282023318, 96.390, 999.0, 31.6070
62.308283884, 96.390, 1025.0, 32.0156
62.334544449, 96.390, 1015.0, 31.8591
62.360805015, 96.390, 1037.0, 32.2025
62.387065580, 96.390, 1030.0, 32.0936
62.413326145, 96.390, 1016.0, 31.8748
62.439586711, 96.390, 991.0, 31.4802
62.465847276, 96.390, 957.0, 30.9354
62.492107841, 96.390, 1027.0, 32.0468
62.518368407, 96.390, 994.0, 31.5278
62.544628972, 96.390, 977.0, 31.2570
62.570889537, 96.390, 1071.0, 32.7261
62.597150103, 96.390, 1030.0, 32.0936
62.623410668, 96.390, 1092.0, 33.0454
62.649671233, 96.390, 964.0, 31.0483
62.675931799, 96.390, 983.0, 31.3528
62.702192364, 96.390, 1077.0, 32.8177
62.728452930, 96.390, 1006.0, 31.7175
62.754713495, 96.390, 1024.0, 32.0000
62.780974060, 96.390, 1036.0, 32.1870
62.807234626, 96.390, 1013.0, 31.8277
62.833495191, 96.390, 970.0, 31.1448
62.859755756, 96.390, 1034.0, 32.1559
62.886016322, 96.390, 961.0, 31.0000
62.912276887, 96.390, 972.0, 31.1769
62.938537452, 96.390, 1042.0, 32.2800
62.964798018, 96.390, 970.0, 31.1448
62.991058583, 96.390, 1009.0, 31.7648
63.017319148, 96.390, 981.0, 31.3209
63.043579714, 96.390, 1023.0, 31.9844
63.069840279, 96.390, 1014.0, 31.8434
63.096100844, 96.390, 1036.0, 32.1870
63.122361410, 96.390, 991.0, 31.4802
63.148621975, 96.390, 1031.0, 32.1092
63.174882541, 96.390, 994.0, 31.5278
63.201143106, 96.390, 986.0, 31.4006
63.227403671, 96.390, 1009.0, 31.7648
63.253664237, 96.390, 1017.0, 31.8904
63.279924802, 96.390, 1033.0, 32.1403
63.306185367, 96.390, 1037.0, 32.2025
63.332445933, 96.390, 1037.0, 32.2025
63.358706498, 96.390, 984.0, 31.3688
63.384967063, 96.390, 999.0, 31.6070
63.411227629, 96.390, 1009.0, 31.7648
63.437488194, 96.390, 961.0, 31.0000
63.463748759, 96.390, 1078.0, 32.8329
63.490009325, 96.390, 1016.0, 31.8748
63.516269890, 96.390, 1034.0, 32.1559
63.542530455, 96.390, 990.0, 31.4643
63.568791021, 96.390, 1000.0, 31.6228
63.595051586, 96.390, 973.0, 31.1929
63.621312152, 96.390, 1004.0, 31.6860
63.647572717, 96.390, 1030.0, 32.0936
63.673833282, 96.390, 1065.0, 32.6343
63.700093848, 96.390, 1031.0, 32.1092
63.726354413, 96.390, 1030.0, 32.0936
63.752614978, 96.390, 1049.0, 32.3883
63.778875544, 96.390, 1022.0, 31.9687
63.805136109, 96.390, 1029.0, 32.0780
63.831396674, 96.390, 1007.0, 31.7333
63.857657240, 96.390, 1001.0, 31.6386
63.883917805, 96.390, 1012.0, 31.8119
63.910178370, 96.390, 1009.0, 31.7648
63.936438936, 96.390, 1047.0, 32.3574
63.962699501, 96.390, 995.0, 31.5436
63.988960067, 96.390, 1011.0, 31.7962
64.015220632, 96.390, 1087.0, 32.9697
64.041481197, 96.390, 949.0, 30.8058
64.067741763, 96.390, 1009.0, 31.7648
64.094002328, 96.390, 975.0, 31.2250
64.120262893, 96.390, 982.0, 31.3369
64.146523459, 96.390, 940.0, 30.6594
64.172784024, 96.390, 1068.0, 32.6803
64.199044589, 96.390, 1007.0, 31.7333
64.225305155, 96.390, 1031.0, 32.1092
64.251565720, 96.390, 1040.0, 32.2490
64.277826285, 96.390, 1054.0, 32.4654
64.304086851, 96.390, 1061.0, 32.5730
64.330347416, 96.390, 1010.0, 31.7805
64.356607981, 96.390, 1073.0, 32.7567
64.382868547, 96.390, 1036.0, 32.1870
64.409129112, 96.390, 1008.0, 31.7490
64.435389678, 96.390, 995.0, 31.5436
64.461650243, 96.390, 976.0, 31.2410
64.487910808, 96.390, 1015.0, 31.8591
64.514171374, 96.390, 1024.0, 32.0000
64.540431939, 96.390, 1018.0, 31.9061
64.566692504, 96.390, 1050.0, 32.4037
64.592953070, 96.390, 952.0, 30.8545
64.619213635, 96.390, 998.0, 31.5911
64.645474200, 96.390, 1035.0, 32.1714
64.671734766, 96.390, 953.0, 30.8707
64.697995331, 96.390, 977.0, 31.2570
64.724255896, 96.390, 1042.0, 32.2800
64.750516462, 96.390, 1010.0, 31.7805
64.776777027, 96.390, 1006.0, 31.7175
64.803037593, 96.390, 994.0, 31.5278
64.829298158, 96.390, 1001.0, 31.6386
64.855558723, 96.390, 1044.0, 32.3110
64.881819289, 96.390, 1000.0, 31.6228
64.908079854, 96.390, 989.0, 31.4484
64.934340419, 96.390, 1018.0, 31.9061
64.960600985, 96.390, 1001.0, 31.6386
64.986861550, 96.390, 1003.0, 31.6702
