[Measurement conditions]
Sample identification,XRD_SiAxialPrecursor12Jan22_B2_1
Comment - 1,"Configuration=Stage for Flat Samples/Holders, Owner=User-1, Creation date=7/1/2020 9:53:24 AM"
Comment - 2,"Goniometer=Theta/Theta; Minimum step size 2Theta:0.0001; Minimum step size Omega:0.0001"
Comment - 3,"Sample stage=Stage for flat samples/holders"
Comment - 4,"Diffractometer system=EMPYREAN"
Comment - 5,"Measurement program=C:\Users\ibo5034\OneDrive - The Pennsylvania State University\NEUP\Zerobackground scan.xrdmp, Identifier={98A3B11C-88F9-4AA6-982C-73314A311EF5}"
Anode material,Cu
K-Alpha1 wavelength,1.5405980
K-Alpha2 wavelength,1.5444260
Ratio K-Alpha2/K-Alpha1,0.500
Divergence slit,Fixed,0.25
Monochromator used,NO
Generator voltage, 45
Tube current, 40
File date and time,11/Mar/2022 12:07
Unit cell,
h k l, 0 0 0
Scan axis,Gonio
Scan range,4.994599997,64.999991833
Scan step size,0.0262606
No. of points, 2285
Scan type,CONTINUOUS
Time per step,96.390
[Scan points]
Angle, TimePerStep, Intensity, ESD
5.007730280, 96.390, 5193.0, 72.0625
5.033990845, 96.390, 5051.0, 71.0704
5.060251411, 96.390, 4936.0, 70.2567
5.086511976, 96.390, 4900.0, 70.0000
5.112772541, 96.390, 4922.0, 70.1570
5.139033107, 96.390, 4901.0, 70.0071
5.165293672, 96.390, 4841.0, 69.5773
5.191554237, 96.390, 4796.0, 69.2532
5.217814803, 96.390, 4838.0, 69.5557
5.244075368, 96.390, 4937.0, 70.2638
5.270335934, 96.390, 4614.0, 67.9264
5.296596499, 96.390, 4555.0, 67.4907
5.322857064, 96.390, 4446.0, 66.6783
5.349117630, 96.390, 4545.0, 67.4166
5.375378195, 96.390, 4456.0, 66.7533
5.401638760, 96.390, 4481.0, 66.9403
5.427899326, 96.390, 4362.0, 66.0454
5.454159891, 96.390, 4477.0, 66.9104
5.480420456, 96.390, 4324.0, 65.7571
5.506681022, 96.390, 4387.0, 66.2344
5.532941587, 96.390, 4269.0, 65.3376
5.559202152, 96.390, 4331.0, 65.8103
5.585462718, 96.390, 4285.0, 65.4599
5.611723283, 96.390, 4205.0, 64.8460
5.637983849, 96.390, 4233.0, 65.0615
5.664244414, 96.390, 4200.0, 64.8074
5.690504979, 96.390, 4176.0, 64.6220
5.716765545, 96.390, 4199.0, 64.7997
5.743026110, 96.390, 4111.0, 64.1171
5.769286675, 96.390, 4136.0, 64.3117
5.795547241, 96.390, 4118.0, 64.1716
5.821807806, 96.390, 4058.0, 63.7024
5.848068371, 96.390, 4100.0, 64.0312
5.874328937, 96.390, 4004.0, 63.2772
5.900589502, 96.390, 4009.0, 63.3167
5.926850067, 96.390, 3982.0, 63.1031
5.953110633, 96.390, 4034.0, 63.5138
5.979371198, 96.390, 4011.0, 63.3325
6.005631763, 96.390, 4001.0, 63.2535
6.031892329, 96.390, 3954.0, 62.8808
6.058152894, 96.390, 3899.0, 62.4420
6.084413460, 96.390, 3828.0, 61.8708
6.110674025, 96.390, 3905.0, 62.4900
6.136934590, 96.390, 3756.0, 61.2862
6.163195156, 96.390, 3785.0, 61.5224
6.189455721, 96.390, 3823.0, 61.8304
6.215716286, 96.390, 3685.0, 60.7042
6.241976852, 96.390, 3805.0, 61.6847
6.268237417, 96.390, 3711.0, 60.9180
6.294497982, 96.390, 3691.0, 60.7536
6.320758548, 96.390, 3629.0, 60.2412
6.347019113, 96.390, 3720.0, 60.9918
6.373279678, 96.390, 3705.0, 60.8687
6.399540244, 96.390, 3539.0, 59.4895
6.425800809, 96.390, 3736.0, 61.1228
6.452061375, 96.390, 3557.0, 59.6406
6.478321940, 96.390, 3633.0, 60.2744
6.504582505, 96.390, 3526.0, 59.3801
6.530843071, 96.390, 3537.0, 59.4727
6.557103636, 96.390, 3593.0, 59.9416
6.583364201, 96.390, 3591.0, 59.9250
6.609624767, 96.390, 3616.0, 60.1332
6.635885332, 96.390, 3451.0, 58.7452
6.662145897, 96.390, 3527.0, 59.3886
6.688406463, 96.390, 3535.0, 59.4559
6.714667028, 96.390, 3491.0, 59.0847
6.740927593, 96.390, 3589.0, 59.9083
6.767188159, 96.390, 3492.0, 59.0931
6.793448724, 96.390, 3486.0, 59.0424
6.819709289, 96.390, 3535.0, 59.4559
6.845969855, 96.390, 3508.0, 59.2284
6.872230420, 96.390, 3499.0, 59.1523
6.898490986, 96.390, 3410.0, 58.3952
6.924751551, 96.390, 3456.0, 58.7878
6.951012116, 96.390, 3313.0, 57.5587
6.977272682, 96.390, 3462.0, 58.8388
7.003533247, 96.390, 3398.0, 58.2924
7.029793812, 96.390, 3371.0, 58.0603
7.056054378, 96.390, 3352.0, 57.8965
7.082314943, 96.390, 3385.0, 58.1808
7.108575508, 96.390, 3363.0, 57.9914
7.134836074, 96.390, 3357.0, 57.9396
7.161096639, 96.390, 3334.0, 57.7408
7.187357204, 96.390, 3246.0, 56.9737
7.213617770, 96.390, 3324.0, 57.6541
7.239878335, 96.390, 3205.0, 56.6127
7.266138900, 96.390, 3296.0, 57.4108
7.292399466, 96.390, 3159.0, 56.2050
7.318660031, 96.390, 3250.0, 57.0088
7.344920597, 96.390, 3301.0, 57.4543
7.371181162, 96.390, 3254.0, 57.0438
7.397441727, 96.390, 3213.0, 56.6833
7.423702293, 96.390, 3182.0, 56.4092
7.449962858, 96.390, 3265.0, 57.1402
7.476223423, 96.390, 3362.0, 57.9828
7.502483989, 96.390, 3266.0, 57.1489
7.528744554, 96.390, 3151.0, 56.1338
7.555005119, 96.390, 3125.0, 55.9017
7.581265685, 96.390, 3219.0, 56.7362
7.607526250, 96.390, 3147.0, 56.0981
7.633786815, 96.390, 3090.0, 55.5878
7.660047381, 96.390, 3113.0, 55.7943
7.686307946, 96.390, 3304.0, 57.4804
7.712568512, 96.390, 3105.0, 55.7225
7.738829077, 96.390, 3211.0, 56.6657
7.765089642, 96.390, 3165.0, 56.2583
7.791350208, 96.390, 3156.0, 56.1783
7.817610773, 96.390, 3148.0, 56.1070
7.843871338, 96.390, 3105.0, 55.7225
7.870131904, 96.390, 3048.0, 55.2087
7.896392469, 96.390, 3124.0, 55.8928
7.922653034, 96.390, 3117.0, 55.8301
7.948913600, 96.390, 2982.0, 54.6077
7.975174165, 96.390, 3020.0, 54.9545
8.001434730, 96.390, 3212.0, 56.6745
8.027695296, 96.390, 3081.0, 55.5068
8.053955861, 96.390, 3040.0, 55.1362
8.080216426, 96.390, 2972.0, 54.5161
8.106476992, 96.390, 3153.0, 56.1516
8.132737557, 96.390, 3022.0, 54.9727
8.158998123, 96.390, 2953.0, 54.3415
8.185258688, 96.390, 3013.0, 54.8908
8.211519253, 96.390, 3063.0, 55.3444
8.237779819, 96.390, 2962.0, 54.4243
8.264040384, 96.390, 2971.0, 54.5069
8.290300949, 96.390, 3061.0, 55.3263
8.316561515, 96.390, 2907.0, 53.9166
8.342822080, 96.390, 2879.0, 53.6563
8.369082645, 96.390, 2885.0, 53.7122
8.395343211, 96.390, 2950.0, 54.3139
8.421603776, 96.390, 2936.0, 54.1849
8.447864341, 96.390, 2938.0, 54.2033
8.474124907, 96.390, 2973.0, 54.5252
8.500385472, 96.390, 2882.0, 53.6843
8.526646038, 96.390, 2926.0, 54.0925
8.552906603, 96.390, 2965.0, 54.4518
8.579167168, 96.390, 2920.0, 54.0370
8.605427734, 96.390, 2865.0, 53.5257
8.631688299, 96.390, 2959.0, 54.3967
8.657948864, 96.390, 2924.0, 54.0740
8.684209430, 96.390, 2972.0, 54.5161
8.710469995, 96.390, 2820.0, 53.1037
8.736730560, 96.390, 2915.0, 53.9907
8.762991126, 96.390, 2865.0, 53.5257
8.789251691, 96.390, 2772.0, 52.6498
8.815512256, 96.390, 2858.0, 53.4603
8.841772822, 96.390, 2850.0, 53.3854
8.868033387, 96.390, 2830.0, 53.1977
8.894293952, 96.390, 2804.0, 52.9528
8.920554518, 96.390, 2844.0, 53.3292
8.946815083, 96.390, 2758.0, 52.5167
8.973075649, 96.390, 2819.0, 53.0943
8.999336214, 96.390, 2819.0, 53.0943
9.025596779, 96.390, 2734.0, 52.2877
9.051857345, 96.390, 2783.0, 52.7541
9.078117910, 96.390, 2843.0, 53.3198
9.104378475, 96.390, 2835.0, 53.2447
9.130639041, 96.390, 2723.0, 52.1824
9.156899606, 96.390, 2799.0, 52.9056
9.183160171, 96.390, 2778.0, 52.7067
9.209420737, 96.390, 2885.0, 53.7122
9.235681302, 96.390, 2866.0, 53.5350
9.261941867, 96.390, 2823.0, 53.1319
9.288202433, 96.390, 2734.0, 52.2877
9.314462998, 96.390, 2697.0, 51.9326
9.340723564, 96.390, 2679.0, 51.7591
9.366984129, 96.390, 2799.0, 52.9056
9.393244694, 96.390, 2715.0, 52.1057
9.419505260, 96.390, 2761.0, 52.5452
9.445765825, 96.390, 2732.0, 52.2685
9.472026390, 96.390, 2731.0, 52.2590
9.498286956, 96.390, 2758.0, 52.5167
9.524547521, 96.390, 2816.0, 53.0660
9.550808086, 96.390, 2823.0, 53.1319
9.577068652, 96.390, 2654.0, 51.5170
9.603329217, 96.390, 2582.0, 50.8134
9.629589782, 96.390, 2722.0, 52.1728
9.655850348, 96.390, 2759.0, 52.5262
9.682110913, 96.390, 2641.0, 51.3907
9.708371478, 96.390, 2645.0, 51.4296
9.734632044, 96.390, 2694.0, 51.9038
9.760892609, 96.390, 2652.0, 51.4976
9.787153175, 96.390, 2599.0, 50.9804
9.813413740, 96.390, 2600.0, 50.9902
9.839674305, 96.390, 2643.0, 51.4101
9.865934871, 96.390, 2639.0, 51.3712
9.892195436, 96.390, 2641.0, 51.3907
9.918456001, 96.390, 2690.0, 51.8652
9.944716567, 96.390, 2640.0, 51.3809
9.970977132, 96.390, 2566.0, 50.6557
9.997237697, 96.390, 2506.0, 50.0600
10.023498263, 96.390, 2642.0, 51.4004
10.049758828, 96.390, 2638.0, 51.3615
10.076019393, 96.390, 2566.0, 50.6557
10.102279959, 96.390, 2498.0, 49.9800
10.128540524, 96.390, 2564.0, 50.6360
10.154801090, 96.390, 2562.0, 50.6162
10.181061655, 96.390, 2615.0, 51.1371
10.207322220, 96.390, 2584.0, 50.8331
10.233582786, 96.390, 2623.0, 51.2152
10.259843351, 96.390, 2540.0, 50.3984
10.286103916, 96.390, 2590.0, 50.8920
10.312364482, 96.390, 2605.0, 51.0392
10.338625047, 96.390, 2489.0, 49.8899
10.364885612, 96.390, 2459.0, 49.5883
10.391146178, 96.390, 2562.0, 50.6162
10.417406743, 96.390, 2555.0, 50.5470
10.443667308, 96.390, 2519.0, 50.1896
10.469927874, 96.390, 2437.0, 49.3660
10.496188439, 96.390, 2470.0, 49.6991
10.522449004, 96.390, 2533.0, 50.3289
10.548709570, 96.390, 2525.0, 50.2494
10.574970135, 96.390, 2605.0, 51.0392
10.601230701, 96.390, 2573.0, 50.7247
10.627491266, 96.390, 2468.0, 49.6790
10.653751831, 96.390, 2578.0, 50.7740
10.680012397, 96.390, 2500.0, 50.0000
10.706272962, 96.390, 2524.0, 50.2394
10.732533527, 96.390, 2495.0, 49.9500
10.758794093, 96.390, 2423.0, 49.2240
10.785054658, 96.390, 2396.0, 48.9490
10.811315223, 96.390, 2505.0, 50.0500
10.837575789, 96.390, 2508.0, 50.0799
10.863836354, 96.390, 2483.0, 49.8297
10.890096919, 96.390, 2434.0, 49.3356
10.916357485, 96.390, 2374.0, 48.7237
10.942618050, 96.390, 2402.0, 49.0102
10.968878616, 96.390, 2386.0, 48.8467
10.995139181, 96.390, 2483.0, 49.8297
11.021399746, 96.390, 2434.0, 49.3356
11.047660312, 96.390, 2357.0, 48.5489
11.073920877, 96.390, 2444.0, 49.4368
11.100181442, 96.390, 2397.0, 48.9592
11.126442008, 96.390, 2480.0, 49.7996
11.152702573, 96.390, 2474.0, 49.7393
11.178963138, 96.390, 2414.0, 49.1325
11.205223704, 96.390, 2424.0, 49.2341
11.231484269, 96.390, 2371.0, 48.6929
11.257744834, 96.390, 2352.0, 48.4974
11.284005400, 96.390, 2416.0, 49.1528
11.310265965, 96.390, 2364.0, 48.6210
11.336526530, 96.390, 2436.0, 49.3559
11.362787096, 96.390, 2353.0, 48.5077
11.389047661, 96.390, 2308.0, 48.0416
11.415308227, 96.390, 2365.0, 48.6313
11.441568792, 96.390, 2249.0, 47.4236
11.467829357, 96.390, 2410.0, 49.0918
11.494089923, 96.390, 2329.0, 48.2597
11.520350488, 96.390, 2348.0, 48.4562
11.546611053, 96.390, 2424.0, 49.2341
11.572871619, 96.390, 2330.0, 48.2701
11.599132184, 96.390, 2359.0, 48.5695
11.625392749, 96.390, 2338.0, 48.3529
11.651653315, 96.390, 2299.0, 47.9479
11.677913880, 96.390, 2298.0, 47.9375
11.704174445, 96.390, 2373.0, 48.7134
11.730435011, 96.390, 2271.0, 47.6550
11.756695576, 96.390, 2310.0, 48.0625
11.782956141, 96.390, 2357.0, 48.5489
11.809216707, 96.390, 2373.0, 48.7134
11.835477272, 96.390, 2275.0, 47.6970
11.861737838, 96.390, 2308.0, 48.0416
11.887998403, 96.390, 2291.0, 47.8644
11.914258968, 96.390, 2327.0, 48.2390
11.940519534, 96.390, 2208.0, 46.9894
11.966780099, 96.390, 2197.0, 46.8722
11.993040664, 96.390, 2141.0, 46.2709
12.019301230, 96.390, 2315.0, 48.1144
12.045561795, 96.390, 2346.0, 48.4355
12.071822360, 96.390, 2195.0, 46.8508
12.098082926, 96.390, 2268.0, 47.6235
12.124343491, 96.390, 2285.0, 47.8017
12.150604056, 96.390, 2243.0, 47.3603
12.176864622, 96.390, 2247.0, 47.4025
12.203125187, 96.390, 2305.0, 48.0104
12.229385753, 96.390, 2260.0, 47.5395
12.255646318, 96.390, 2278.0, 47.7284
12.281906883, 96.390, 2265.0, 47.5920
12.308167449, 96.390, 2257.0, 47.5079
12.334428014, 96.390, 2240.0, 47.3286
12.360688579, 96.390, 2238.0, 47.3075
12.386949145, 96.390, 2324.0, 48.2079
12.413209710, 96.390, 2151.0, 46.3789
12.439470275, 96.390, 2211.0, 47.0213
12.465730841, 96.390, 2206.0, 46.9681
12.491991406, 96.390, 2202.0, 46.9255
12.518251971, 96.390, 2291.0, 47.8644
12.544512537, 96.390, 2117.0, 46.0109
12.570773102, 96.390, 2225.0, 47.1699
12.597033667, 96.390, 2265.0, 47.5920
12.623294233, 96.390, 2175.0, 46.6369
12.649554798, 96.390, 2068.0, 45.4753
12.675815364, 96.390, 2207.0, 46.9787
12.702075929, 96.390, 2139.0, 46.2493
12.728336494, 96.390, 2155.0, 46.4220
12.754597060, 96.390, 2167.0, 46.5510
12.780857625, 96.390, 2240.0, 47.3286
12.807118190, 96.390, 2064.0, 45.4313
12.833378756, 96.390, 2187.0, 46.7654
12.859639321, 96.390, 2210.0, 47.0106
12.885899886, 96.390, 2194.0, 46.8402
12.912160452, 96.390, 2251.0, 47.4447
12.938421017, 96.390, 2070.0, 45.4973
12.964681582, 96.390, 2178.0, 46.6690
12.990942148, 96.390, 2138.0, 46.2385
13.017202713, 96.390, 2090.0, 45.7165
13.043463279, 96.390, 2109.0, 45.9239
13.069723844, 96.390, 2171.0, 46.5940
13.095984409, 96.390, 2247.0, 47.4025
13.122244975, 96.390, 2178.0, 46.6690
13.148505540, 96.390, 2130.0, 46.1519
13.174766105, 96.390, 2161.0, 46.4866
13.201026671, 96.390, 2192.0, 46.8188
13.227287236, 96.390, 2062.0, 45.4093
13.253547801, 96.390, 2221.0, 47.1275
13.279808367, 96.390, 2106.0, 45.8912
13.306068932, 96.390, 2121.0, 46.0543
13.332329497, 96.390, 2133.0, 46.1844
13.358590063, 96.390, 2136.0, 46.2169
13.384850628, 96.390, 2195.0, 46.8508
13.411111193, 96.390, 2112.0, 45.9565
13.437371759, 96.390, 2142.0, 46.2817
13.463632324, 96.390, 2172.0, 46.6047
13.489892890, 96.390, 2078.0, 45.5851
13.516153455, 96.390, 2135.0, 46.2061
13.542414020, 96.390, 2060.0, 45.3872
13.568674586, 96.390, 2075.0, 45.5522
13.594935151, 96.390, 2078.0, 45.5851
13.621195716, 96.390, 2155.0, 46.4220
13.647456282, 96.390, 2041.0, 45.1774
13.673716847, 96.390, 2083.0, 45.6399
13.699977412, 96.390, 2079.0, 45.5961
13.726237978, 96.390, 2166.0, 46.5403
13.752498543, 96.390, 2084.0, 45.6508
13.778759108, 96.390, 2115.0, 45.9891
13.805019674, 96.390, 2158.0, 46.4543
13.831280239, 96.390, 2058.0, 45.3652
13.857540805, 96.390, 2039.0, 45.1553
13.883801370, 96.390, 2006.0, 44.7884
13.910061935, 96.390, 2051.0, 45.2880
13.936322501, 96.390, 1973.0, 44.4185
13.962583066, 96.390, 1970.0, 44.3847
13.988843631, 96.390, 2036.0, 45.1221
14.015104197, 96.390, 2118.0, 46.0217
14.041364762, 96.390, 2073.0, 45.5302
14.067625327, 96.390, 2032.0, 45.0777
14.093885893, 96.390, 2094.0, 45.7602
14.120146458, 96.390, 2024.0, 44.9889
14.146407023, 96.390, 2027.0, 45.0222
14.172667589, 96.390, 2121.0, 46.0543
14.198928154, 96.390, 2093.0, 45.7493
14.225188719, 96.390, 2049.0, 45.2659
14.251449285, 96.390, 2061.0, 45.3982
14.277709850, 96.390, 2103.0, 45.8585
14.303970416, 96.390, 2031.0, 45.0666
14.330230981, 96.390, 2090.0, 45.7165
14.356491546, 96.390, 2067.0, 45.4643
14.382752112, 96.390, 2125.0, 46.0977
14.409012677, 96.390, 2038.0, 45.1442
14.435273242, 96.390, 2038.0, 45.1442
14.461533808, 96.390, 2039.0, 45.1553
14.487794373, 96.390, 1987.0, 44.5758
14.514054938, 96.390, 1957.0, 44.2380
14.540315504, 96.390, 1982.0, 44.5197
14.566576069, 96.390, 2112.0, 45.9565
14.592836634, 96.390, 1981.0, 44.5084
14.619097200, 96.390, 1971.0, 44.3959
14.645357765, 96.390, 2048.0, 45.2548
14.671618331, 96.390, 1990.0, 44.6094
14.697878896, 96.390, 2011.0, 44.8442
14.724139461, 96.390, 1994.0, 44.6542
14.750400027, 96.390, 2059.0, 45.3762
14.776660592, 96.390, 2021.0, 44.9555
14.802921157, 96.390, 2081.0, 45.6180
14.829181723, 96.390, 2081.0, 45.6180
14.855442288, 96.390, 2064.0, 45.4313
14.881702853, 96.390, 1991.0, 44.6206
14.907963419, 96.390, 2076.0, 45.5631
14.934223984, 96.390, 1982.0, 44.5197
14.960484549, 96.390, 2058.0, 45.3652
14.986745115, 96.390, 2001.0, 44.7325
15.013005680, 96.390, 2027.0, 45.0222
15.039266245, 96.390, 1956.0, 44.2267
15.065526811, 96.390, 1977.0, 44.4635
15.091787376, 96.390, 1945.0, 44.1022
15.118047942, 96.390, 2037.0, 45.1331
15.144308507, 96.390, 1971.0, 44.3959
15.170569072, 96.390, 2036.0, 45.1221
15.196829638, 96.390, 1975.0, 44.4410
15.223090203, 96.390, 1993.0, 44.6430
15.249350768, 96.390, 2005.0, 44.7772
15.275611334, 96.390, 2019.0, 44.9333
15.301871899, 96.390, 1999.0, 44.7102
15.328132464, 96.390, 2032.0, 45.0777
15.354393030, 96.390, 2046.0, 45.2327
15.380653595, 96.390, 2039.0, 45.1553
15.406914160, 96.390, 1985.0, 44.5533
15.433174726, 96.390, 2067.0, 45.4643
15.459435291, 96.390, 2148.0, 46.3465
15.485695857, 96.390, 1951.0, 44.1701
15.511956422, 96.390, 2012.0, 44.8553
15.538216987, 96.390, 2072.0, 45.5192
15.564477553, 96.390, 2057.0, 45.3542
15.590738118, 96.390, 2051.0, 45.2880
15.616998683, 96.390, 2064.0, 45.4313
15.643259249, 96.390, 2031.0, 45.0666
15.669519814, 96.390, 1998.0, 44.6990
15.695780379, 96.390, 2031.0, 45.0666
15.722040945, 96.390, 1963.0, 44.3058
15.748301510, 96.390, 2031.0, 45.0666
15.774562075, 96.390, 1936.0, 44.0000
15.800822641, 96.390, 2032.0, 45.0777
15.827083206, 96.390, 2007.0, 44.7996
15.853343771, 96.390, 2010.0, 44.8330
15.879604337, 96.390, 2111.0, 45.9456
15.905864902, 96.390, 2065.0, 45.4423
15.932125468, 96.390, 2093.0, 45.7493
15.958386033, 96.390, 1956.0, 44.2267
15.984646598, 96.390, 2072.0, 45.5192
16.010907164, 96.390, 2084.0, 45.6508
16.037167729, 96.390, 2050.0, 45.2769
16.063428294, 96.390, 2020.0, 44.9444
16.089688860, 96.390, 1943.0, 44.0795
16.115949425, 96.390, 2000.0, 44.7214
16.142209990, 96.390, 2066.0, 45.4533
16.168470556, 96.390, 2014.0, 44.8776
16.194731121, 96.390, 1990.0, 44.6094
16.220991686, 96.390, 2025.0, 45.0000
16.247252252, 96.390, 2074.0, 45.5412
16.273512817, 96.390, 2135.0, 46.2061
16.299773382, 96.390, 2096.0, 45.7821
16.326033948, 96.390, 2024.0, 44.9889
16.352294513, 96.390, 2068.0, 45.4753
16.378555079, 96.390, 1970.0, 44.3847
16.404815644, 96.390, 2122.0, 46.0652
16.431076209, 96.390, 2069.0, 45.4863
16.457336775, 96.390, 2019.0, 44.9333
16.483597340, 96.390, 2081.0, 45.6180
16.509857905, 96.390, 2133.0, 46.1844
16.536118471, 96.390, 2136.0, 46.2169
16.562379036, 96.390, 2096.0, 45.7821
16.588639601, 96.390, 2073.0, 45.5302
16.614900167, 96.390, 1973.0, 44.4185
16.641160732, 96.390, 2021.0, 44.9555
16.667421297, 96.390, 2118.0, 46.0217
16.693681863, 96.390, 2030.0, 45.0555
16.719942428, 96.390, 2093.0, 45.7493
16.746202994, 96.390, 2078.0, 45.5851
16.772463559, 96.390, 2048.0, 45.2548
16.798724124, 96.390, 2147.0, 46.3357
16.824984690, 96.390, 2057.0, 45.3542
16.851245255, 96.390, 2078.0, 45.5851
16.877505820, 96.390, 2080.0, 45.6070
16.903766386, 96.390, 2126.0, 46.1086
16.930026951, 96.390, 2050.0, 45.2769
16.956287516, 96.390, 2109.0, 45.9239
16.982548082, 96.390, 2090.0, 45.7165
17.008808647, 96.390, 2083.0, 45.6399
17.035069212, 96.390, 2162.0, 46.4973
17.061329778, 96.390, 2152.0, 46.3897
17.087590343, 96.390, 2033.0, 45.0888
17.113850908, 96.390, 2103.0, 45.8585
17.140111474, 96.390, 2130.0, 46.1519
17.166372039, 96.390, 2153.0, 46.4004
17.192632605, 96.390, 2052.0, 45.2990
17.218893170, 96.390, 2062.0, 45.4093
17.245153735, 96.390, 2075.0, 45.5522
17.271414301, 96.390, 2142.0, 46.2817
17.297674866, 96.390, 2076.0, 45.5631
17.323935431, 96.390, 2166.0, 46.5403
17.350195997, 96.390, 2182.0, 46.7119
17.376456562, 96.390, 2161.0, 46.4866
17.402717127, 96.390, 2273.0, 47.6760
17.428977693, 96.390, 2252.0, 47.4552
17.455238258, 96.390, 2228.0, 47.2017
17.481498823, 96.390, 2200.0, 46.9042
17.507759389, 96.390, 2178.0, 46.6690
17.534019954, 96.390, 2295.0, 47.9062
17.560280520, 96.390, 2182.0, 46.7119
17.586541085, 96.390, 2225.0, 47.1699
17.612801650, 96.390, 2216.0, 47.0744
17.639062216, 96.390, 2173.0, 46.6154
17.665322781, 96.390, 2218.0, 47.0956
17.691583346, 96.390, 2223.0, 47.1487
17.717843912, 96.390, 2219.0, 47.1063
17.744104477, 96.390, 2139.0, 46.2493
17.770365042, 96.390, 2238.0, 47.3075
17.796625608, 96.390, 2233.0, 47.2546
17.822886173, 96.390, 2153.0, 46.4004
17.849146738, 96.390, 2297.0, 47.9270
17.875407304, 96.390, 2324.0, 48.2079
17.901667869, 96.390, 2309.0, 48.0521
17.927928434, 96.390, 2255.0, 47.4868
17.954189000, 96.390, 2143.0, 46.2925
17.980449565, 96.390, 2227.0, 47.1911
18.006710131, 96.390, 2275.0, 47.6970
18.032970696, 96.390, 2356.0, 48.5386
18.059231261, 96.390, 2240.0, 47.3286
18.085491827, 96.390, 2268.0, 47.6235
18.111752392, 96.390, 2260.0, 47.5395
18.138012957, 96.390, 2340.0, 48.3735
18.164273523, 96.390, 2374.0, 48.7237
18.190534088, 96.390, 2340.0, 48.3735
18.216794653, 96.390, 2287.0, 47.8226
18.243055219, 96.390, 2271.0, 47.6550
18.269315784, 96.390, 2272.0, 47.6655
18.295576349, 96.390, 2345.0, 48.4252
18.321836915, 96.390, 2284.0, 47.7912
18.348097480, 96.390, 2315.0, 48.1144
18.374358046, 96.390, 2273.0, 47.6760
18.400618611, 96.390, 2362.0, 48.6004
18.426879176, 96.390, 2351.0, 48.4871
18.453139742, 96.390, 2351.0, 48.4871
18.479400307, 96.390, 2397.0, 48.9592
18.505660872, 96.390, 2399.0, 48.9796
18.531921438, 96.390, 2293.0, 47.8853
18.558182003, 96.390, 2402.0, 49.0102
18.584442568, 96.390, 2409.0, 49.0816
18.610703134, 96.390, 2333.0, 48.3011
18.636963699, 96.390, 2427.0, 49.2646
18.663224264, 96.390, 2459.0, 49.5883
18.689484830, 96.390, 2354.0, 48.5180
18.715745395, 96.390, 2402.0, 49.0102
18.742005960, 96.390, 2421.0, 49.2037
18.768266526, 96.390, 2407.0, 49.0612
18.794527091, 96.390, 2492.0, 49.9199
18.820787657, 96.390, 2422.0, 49.2138
18.847048222, 96.390, 2470.0, 49.6991
18.873308787, 96.390, 2507.0, 50.0700
18.899569353, 96.390, 2459.0, 49.5883
18.925829918, 96.390, 2437.0, 49.3660
18.952090483, 96.390, 2493.0, 49.9300
18.978351049, 96.390, 2560.0, 50.5964
19.004611614, 96.390, 2510.0, 50.0999
19.030872179, 96.390, 2548.0, 50.4777
19.057132745, 96.390, 2551.0, 50.5074
19.083393310, 96.390, 2497.0, 49.9700
19.109653875, 96.390, 2572.0, 50.7149
19.135914441, 96.390, 2544.0, 50.4381
19.162175006, 96.390, 2604.0, 51.0294
19.188435572, 96.390, 2521.0, 50.2096
19.214696137, 96.390, 2504.0, 50.0400
19.240956702, 96.390, 2681.0, 51.7784
19.267217268, 96.390, 2548.0, 50.4777
19.293477833, 96.390, 2553.0, 50.5272
19.319738398, 96.390, 2593.0, 50.9215
19.345998964, 96.390, 2644.0, 51.4198
19.372259529, 96.390, 2561.0, 50.6063
19.398520094, 96.390, 2557.0, 50.5668
19.424780660, 96.390, 2499.0, 49.9900
19.451041225, 96.390, 2698.0, 51.9423
19.477301790, 96.390, 2646.0, 51.4393
19.503562356, 96.390, 2720.0, 52.1536
19.529822921, 96.390, 2655.0, 51.5267
19.556083486, 96.390, 2747.0, 52.4118
19.582344052, 96.390, 2623.0, 51.2152
19.608604617, 96.390, 2750.0, 52.4404
19.634865183, 96.390, 2827.0, 53.1695
19.661125748, 96.390, 2616.0, 51.1468
19.687386313, 96.390, 2667.0, 51.6430
19.713646879, 96.390, 2704.0, 52.0000
19.739907444, 96.390, 2655.0, 51.5267
19.766168009, 96.390, 2712.0, 52.0769
19.792428575, 96.390, 2761.0, 52.5452
19.818689140, 96.390, 2792.0, 52.8394
19.844949705, 96.390, 2791.0, 52.8299
19.871210271, 96.390, 2880.0, 53.6656
19.897470836, 96.390, 2769.0, 52.6213
19.923731401, 96.390, 2862.0, 53.4977
19.949991967, 96.390, 2808.0, 52.9906
19.976252532, 96.390, 2812.0, 53.0283
20.002513097, 96.390, 2739.0, 52.3355
20.028773663, 96.390, 2844.0, 53.3292
20.055034228, 96.390, 2879.0, 53.6563
20.081294794, 96.390, 2878.0, 53.6470
20.107555359, 96.390, 2835.0, 53.2447
20.133815924, 96.390, 2978.0, 54.5711
20.160076490, 96.390, 2855.0, 53.4322
20.186337055, 96.390, 2898.0, 53.8331
20.212597620, 96.390, 2855.0, 53.4322
20.238858186, 96.390, 2928.0, 54.1110
20.265118751, 96.390, 3013.0, 54.8908
20.291379316, 96.390, 2968.0, 54.4794
20.317639882, 96.390, 3004.0, 54.8088
20.343900447, 96.390, 2993.0, 54.7083
20.370161012, 96.390, 3017.0, 54.9272
20.396421578, 96.390, 2945.0, 54.2679
20.422682143, 96.390, 3098.0, 55.6597
20.448942709, 96.390, 3057.0, 55.2901
20.475203274, 96.390, 3072.0, 55.4256
20.501463839, 96.390, 3065.0, 55.3624
20.527724405, 96.390, 2873.0, 53.6004
20.553984970, 96.390, 3081.0, 55.5068
20.580245535, 96.390, 3024.0, 54.9909
20.606506101, 96.390, 3023.0, 54.9818
20.632766666, 96.390, 3089.0, 55.5788
20.659027231, 96.390, 3050.0, 55.2268
20.685287797, 96.390, 3070.0, 55.4076
20.711548362, 96.390, 3026.0, 55.0091
20.737808927, 96.390, 3095.0, 55.6327
20.764069493, 96.390, 2998.0, 54.7540
20.790330058, 96.390, 3028.0, 55.0273
20.816590623, 96.390, 3090.0, 55.5878
20.842851189, 96.390, 3116.0, 55.8211
20.869111754, 96.390, 3242.0, 56.9386
20.895372320, 96.390, 3116.0, 55.8211
20.921632885, 96.390, 3069.0, 55.3986
20.947893450, 96.390, 3082.0, 55.5158
20.974154016, 96.390, 3080.0, 55.4977
21.000414581, 96.390, 3100.0, 55.6776
21.026675146, 96.390, 3181.0, 56.4004
21.052935712, 96.390, 3189.0, 56.4712
21.079196277, 96.390, 3198.0, 56.5509
21.105456842, 96.390, 3128.0, 55.9285
21.131717408, 96.390, 3171.0, 56.3116
21.157977973, 96.390, 3129.0, 55.9375
21.184238538, 96.390, 3154.0, 56.1605
21.210499104, 96.390, 3142.0, 56.0535
21.236759669, 96.390, 3248.0, 56.9912
21.263020235, 96.390, 3226.0, 56.7979
21.289280800, 96.390, 3167.0, 56.2761
21.315541365, 96.390, 3184.0, 56.4269
21.341801931, 96.390, 3338.0, 57.7754
21.368062496, 96.390, 3215.0, 56.7010
21.394323061, 96.390, 2996.0, 54.7357
21.420583627, 96.390, 3205.0, 56.6127
21.446844192, 96.390, 3205.0, 56.6127
21.473104757, 96.390, 3209.0, 56.6480
21.499365323, 96.390, 3337.0, 57.7668
21.525625888, 96.390, 3287.0, 57.3324
21.551886453, 96.390, 3275.0, 57.2276
21.578147019, 96.390, 3347.0, 57.8533
21.604407584, 96.390, 3335.0, 57.7495
21.630668149, 96.390, 3215.0, 56.7010
21.656928715, 96.390, 3189.0, 56.4712
21.683189280, 96.390, 3265.0, 57.1402
21.709449846, 96.390, 3223.0, 56.7715
21.735710411, 96.390, 3333.0, 57.7321
21.761970976, 96.390, 3200.0, 56.5685
21.788231542, 96.390, 3363.0, 57.9914
21.814492107, 96.390, 3328.0, 57.6888
21.840752672, 96.390, 3348.0, 57.8619
21.867013238, 96.390, 3406.0, 58.3609
21.893273803, 96.390, 3417.0, 58.4551
21.919534368, 96.390, 3430.0, 58.5662
21.945794934, 96.390, 3371.0, 58.0603
21.972055499, 96.390, 3345.0, 57.8360
21.998316064, 96.390, 3311.0, 57.5413
22.024576630, 96.390, 3329.0, 57.6975
22.050837195, 96.390, 3271.0, 57.1927
22.077097761, 96.390, 3294.0, 57.3934
22.103358326, 96.390, 3361.0, 57.9741
22.129618891, 96.390, 3353.0, 57.9051
22.155879457, 96.390, 3335.0, 57.7495
22.182140022, 96.390, 3371.0, 58.0603
22.208400587, 96.390, 3257.0, 57.0701
22.234661153, 96.390, 3401.0, 58.3181
22.260921718, 96.390, 3321.0, 57.6281
22.287182283, 96.390, 3406.0, 58.3609
22.313442849, 96.390, 3401.0, 58.3181
22.339703414, 96.390, 3242.0, 56.9386
22.365963979, 96.390, 3480.0, 58.9915
22.392224545, 96.390, 3405.0, 58.3524
22.418485110, 96.390, 3404.0, 58.3438
22.444745675, 96.390, 3316.0, 57.5847
22.471006241, 96.390, 3301.0, 57.4543
22.497266806, 96.390, 3336.0, 57.7581
22.523527372, 96.390, 3372.0, 58.0689
22.549787937, 96.390, 3375.0, 58.0948
22.576048502, 96.390, 3416.0, 58.4466
22.602309068, 96.390, 3376.0, 58.1034
22.628569633, 96.390, 3344.0, 57.8273
22.654830198, 96.390, 3355.0, 57.9224
22.681090764, 96.390, 3217.0, 56.7186
22.707351329, 96.390, 3382.0, 58.1550
22.733611894, 96.390, 3333.0, 57.7321
22.759872460, 96.390, 3382.0, 58.1550
22.786133025, 96.390, 3395.0, 58.2666
22.812393590, 96.390, 3292.0, 57.3760
22.838654156, 96.390, 3277.0, 57.2451
22.864914721, 96.390, 3316.0, 57.5847
22.891175287, 96.390, 3317.0, 57.5934
22.917435852, 96.390, 3312.0, 57.5500
22.943696417, 96.390, 3343.0, 57.8187
22.969956983, 96.390, 3328.0, 57.6888
22.996217548, 96.390, 3306.0, 57.4978
23.022478113, 96.390, 3384.0, 58.1722
23.048738679, 96.390, 3266.0, 57.1489
23.074999244, 96.390, 3305.0, 57.4891
23.101259809, 96.390, 3212.0, 56.6745
23.127520375, 96.390, 3241.0, 56.9298
23.153780940, 96.390, 3326.0, 57.6715
23.180041505, 96.390, 3252.0, 57.0263
23.206302071, 96.390, 3203.0, 56.5951
23.232562636, 96.390, 3365.0, 58.0086
23.258823201, 96.390, 3305.0, 57.4891
23.285083767, 96.390, 3217.0, 56.7186
23.311344332, 96.390, 3178.0, 56.3738
23.337604898, 96.390, 3255.0, 57.0526
23.363865463, 96.390, 3341.0, 57.8014
23.390126028, 96.390, 3196.0, 56.5332
23.416386594, 96.390, 3167.0, 56.2761
23.442647159, 96.390, 3284.0, 57.3062
23.468907724, 96.390, 3234.0, 56.8683
23.495168290, 96.390, 3238.0, 56.9034
23.521428855, 96.390, 3180.0, 56.3915
23.547689420, 96.390, 3196.0, 56.5332
23.573949986, 96.390, 3198.0, 56.5509
23.600210551, 96.390, 3198.0, 56.5509
23.626471116, 96.390, 3133.0, 55.9732
23.652731682, 96.390, 3054.0, 55.2630
23.678992247, 96.390, 3196.0, 56.5332
23.705252813, 96.390, 3161.0, 56.2228
23.731513378, 96.390, 3148.0, 56.1070
23.757773943, 96.390, 3122.0, 55.8749
23.784034509, 96.390, 3128.0, 55.9285
23.810295074, 96.390, 3128.0, 55.9285
23.836555639, 96.390, 3142.0, 56.0535
23.862816205, 96.390, 3155.0, 56.1694
23.889076770, 96.390, 3102.0, 55.6956
23.915337335, 96.390, 3102.0, 55.6956
23.941597901, 96.390, 3169.0, 56.2939
23.967858466, 96.390, 3109.0, 55.7584
23.994119031, 96.390, 3182.0, 56.4092
24.020379597, 96.390, 3120.0, 55.8570
24.046640162, 96.390, 3142.0, 56.0535
24.072900727, 96.390, 3068.0, 55.3895
24.099161293, 96.390, 3124.0, 55.8928
24.125421858, 96.390, 3044.0, 55.1725
24.151682424, 96.390, 3044.0, 55.1725
24.177942989, 96.390, 3076.0, 55.4617
24.204203554, 96.390, 3070.0, 55.4076
24.230464120, 96.390, 3103.0, 55.7046
24.256724685, 96.390, 3082.0, 55.5158
24.282985250, 96.390, 2960.0, 54.4059
24.309245816, 96.390, 2978.0, 54.5711
24.335506381, 96.390, 3087.0, 55.5608
24.361766946, 96.390, 2945.0, 54.2679
24.388027512, 96.390, 3025.0, 55.0000
24.414288077, 96.390, 3061.0, 55.3263
24.440548642, 96.390, 2973.0, 54.5252
24.466809208, 96.390, 2883.0, 53.6936
24.493069773, 96.390, 2970.0, 54.4977
24.519330338, 96.390, 2994.0, 54.7175
24.545590904, 96.390, 2953.0, 54.3415
24.571851469, 96.390, 2986.0, 54.6443
24.598112035, 96.390, 2998.0, 54.7540
24.624372600, 96.390, 2876.0, 53.6284
24.650633165, 96.390, 2865.0, 53.5257
24.676893731, 96.390, 2988.0, 54.6626
24.703154296, 96.390, 2895.0, 53.8052
24.729414861, 96.390, 2881.0, 53.6749
24.755675427, 96.390, 2893.0, 53.7866
24.781935992, 96.390, 2890.0, 53.7587
24.808196557, 96.390, 3025.0, 55.0000
24.834457123, 96.390, 2884.0, 53.7029
24.860717688, 96.390, 2908.0, 53.9259
24.886978253, 96.390, 2848.0, 53.3667
24.913238819, 96.390, 2936.0, 54.1849
24.939499384, 96.390, 2838.0, 53.2729
24.965759950, 96.390, 2809.0, 53.0000
24.992020515, 96.390, 3030.0, 55.0454
25.018281080, 96.390, 2839.0, 53.2823
25.044541646, 96.390, 2850.0, 53.3854
25.070802211, 96.390, 2969.0, 54.4885
25.097062776, 96.390, 2823.0, 53.1319
25.123323342, 96.390, 2876.0, 53.6284
25.149583907, 96.390, 2827.0, 53.1695
25.175844472, 96.390, 2831.0, 53.2071
25.202105038, 96.390, 2786.0, 52.7826
25.228365603, 96.390, 2794.0, 52.8583
25.254626168, 96.390, 2844.0, 53.3292
25.280886734, 96.390, 2808.0, 52.9906
25.307147299, 96.390, 2765.0, 52.5833
25.333407864, 96.390, 2674.0, 51.7107
25.359668430, 96.390, 2826.0, 53.1601
25.385928995, 96.390, 2727.0, 52.2207
25.412189561, 96.390, 2693.0, 51.8941
25.438450126, 96.390, 2696.0, 51.9230
25.464710691, 96.390, 2701.0, 51.9711
25.490971257, 96.390, 2698.0, 51.9423
25.517231822, 96.390, 2755.0, 52.4881
25.543492387, 96.390, 2649.0, 51.4684
25.569752953, 96.390, 2759.0, 52.5262
25.596013518, 96.390, 2707.0, 52.0288
25.622274083, 96.390, 2639.0, 51.3712
25.648534649, 96.390, 2732.0, 52.2685
25.674795214, 96.390, 2656.0, 51.5364
25.701055779, 96.390, 2648.0, 51.4587
25.727316345, 96.390, 2706.0, 52.0192
25.753576910, 96.390, 2681.0, 51.7784
25.779837476, 96.390, 2588.0, 50.8724
25.806098041, 96.390, 2581.0, 50.8035
25.832358606, 96.390, 2638.0, 51.3615
25.858619172, 96.390, 2623.0, 51.2152
25.884879737, 96.390, 2659.0, 51.5655
25.911140302, 96.390, 2550.0, 50.4975
25.937400868, 96.390, 2682.0, 51.7880
25.963661433, 96.390, 2638.0, 51.3615
25.989921998, 96.390, 2499.0, 49.9900
26.016182564, 96.390, 2584.0, 50.8331
26.042443129, 96.390, 2475.0, 49.7494
26.068703694, 96.390, 2588.0, 50.8724
26.094964260, 96.390, 2670.0, 51.6720
26.121224825, 96.390, 2540.0, 50.3984
26.147485390, 96.390, 2549.0, 50.4876
26.173745956, 96.390, 2573.0, 50.7247
26.200006521, 96.390, 2586.0, 50.8527
26.226267087, 96.390, 2507.0, 50.0700
26.252527652, 96.390, 2498.0, 49.9800
26.278788217, 96.390, 2598.0, 50.9706
26.305048783, 96.390, 2545.0, 50.4480
26.331309348, 96.390, 2470.0, 49.6991
26.357569913, 96.390, 2453.0, 49.5278
26.383830479, 96.390, 2706.0, 52.0192
26.410091044, 96.390, 2511.0, 50.1099
26.436351609, 96.390, 2554.0, 50.5371
26.462612175, 96.390, 2396.0, 48.9490
26.488872740, 96.390, 2437.0, 49.3660
26.515133305, 96.390, 2440.0, 49.3964
26.541393871, 96.390, 2459.0, 49.5883
26.567654436, 96.390, 2480.0, 49.7996
26.593915002, 96.390, 2390.0, 48.8876
26.620175567, 96.390, 2440.0, 49.3964
26.646436132, 96.390, 2477.0, 49.7695
26.672696698, 96.390, 2563.0, 50.6261
26.698957263, 96.390, 2439.0, 49.3862
26.725217828, 96.390, 2383.0, 48.8160
26.751478394, 96.390, 2464.0, 49.6387
26.777738959, 96.390, 2481.0, 49.8096
26.803999524, 96.390, 2410.0, 49.0918
26.830260090, 96.390, 2303.0, 47.9896
26.856520655, 96.390, 2368.0, 48.6621
26.882781220, 96.390, 2422.0, 49.2138
26.909041786, 96.390, 2415.0, 49.1426
26.935302351, 96.390, 2325.0, 48.2183
26.961562916, 96.390, 2416.0, 49.1528
26.987823482, 96.390, 2335.0, 48.3218
27.014084047, 96.390, 2311.0, 48.0729
27.040344613, 96.390, 2444.0, 49.4368
27.066605178, 96.390, 2386.0, 48.8467
27.092865743, 96.390, 2439.0, 49.3862
27.119126309, 96.390, 2344.0, 48.4149
27.145386874, 96.390, 2369.0, 48.6724
27.171647439, 96.390, 2296.0, 47.9166
27.197908005, 96.390, 2320.0, 48.1664
27.224168570, 96.390, 2320.0, 48.1664
27.250429135, 96.390, 2300.0, 47.9583
27.276689701, 96.390, 2292.0, 47.8748
27.302950266, 96.390, 2245.0, 47.3814
27.329210831, 96.390, 2395.0, 48.9387
27.355471397, 96.390, 2276.0, 47.7074
27.381731962, 96.390, 2322.0, 48.1871
27.407992528, 96.390, 2296.0, 47.9166
27.434253093, 96.390, 2287.0, 47.8226
27.460513658, 96.390, 2183.0, 46.7226
27.486774224, 96.390, 2291.0, 47.8644
27.513034789, 96.390, 2266.0, 47.6025
27.539295354, 96.390, 2299.0, 47.9479
27.565555920, 96.390, 2259.0, 47.5289
27.591816485, 96.390, 2247.0, 47.4025
27.618077050, 96.390, 2287.0, 47.8226
27.644337616, 96.390, 2230.0, 47.2229
27.670598181, 96.390, 2249.0, 47.4236
27.696858746, 96.390, 2236.0, 47.2864
27.723119312, 96.390, 2258.0, 47.5184
27.749379877, 96.390, 2234.0, 47.2652
27.775640442, 96.390, 2277.0, 47.7179
27.801901008, 96.390, 2308.0, 48.0416
27.828161573, 96.390, 2241.0, 47.3392
27.854422139, 96.390, 2160.0, 46.4758
27.880682704, 96.390, 2203.0, 46.9361
27.906943269, 96.390, 2178.0, 46.6690
27.933203835, 96.390, 2155.0, 46.4220
27.959464400, 96.390, 2211.0, 47.0213
27.985724965, 96.390, 2209.0, 47.0000
28.011985531, 96.390, 2061.0, 45.3982
28.038246096, 96.390, 2144.0, 46.3033
28.064506661, 96.390, 2032.0, 45.0777
28.090767227, 96.390, 2206.0, 46.9681
28.117027792, 96.390, 2255.0, 47.4868
28.143288357, 96.390, 2141.0, 46.2709
28.169548923, 96.390, 2193.0, 46.8295
28.195809488, 96.390, 2152.0, 46.3897
28.222070054, 96.390, 2142.0, 46.2817
28.248330619, 96.390, 2182.0, 46.7119
28.274591184, 96.390, 2107.0, 45.9021
28.300851750, 96.390, 2204.0, 46.9468
28.327112315, 96.390, 2181.0, 46.7012
28.353372880, 96.390, 2107.0, 45.9021
28.379633446, 96.390, 2106.0, 45.8912
28.405894011, 96.390, 2106.0, 45.8912
28.432154576, 96.390, 2075.0, 45.5522
28.458415142, 96.390, 2157.0, 46.4435
28.484675707, 96.390, 2019.0, 44.9333
28.510936272, 96.390, 2110.0, 45.9347
28.537196838, 96.390, 2116.0, 46.0000
28.563457403, 96.390, 2012.0, 44.8553
28.589717968, 96.390, 1999.0, 44.7102
28.615978534, 96.390, 2120.0, 46.0435
28.642239099, 96.390, 2127.0, 46.1194
28.668499665, 96.390, 2146.0, 46.3249
28.694760230, 96.390, 1940.0, 44.0454
28.721020795, 96.390, 2045.0, 45.2217
28.747281361, 96.390, 2084.0, 45.6508
28.773541926, 96.390, 2071.0, 45.5082
28.799802491, 96.390, 2012.0, 44.8553
28.826063057, 96.390, 2100.0, 45.8258
28.852323622, 96.390, 2035.0, 45.1110
28.878584187, 96.390, 2085.0, 45.6618
28.904844753, 96.390, 2039.0, 45.1553
28.931105318, 96.390, 1937.0, 44.0114
28.957365883, 96.390, 1911.0, 43.7150
28.983626449, 96.390, 1998.0, 44.6990
29.009887014, 96.390, 1994.0, 44.6542
29.036147579, 96.390, 1955.0, 44.2154
29.062408145, 96.390, 2036.0, 45.1221
29.088668710, 96.390, 1949.0, 44.1475
29.114929276, 96.390, 2024.0, 44.9889
29.141189841, 96.390, 2006.0, 44.7884
29.167450406, 96.390, 1980.0, 44.4972
29.193710972, 96.390, 2003.0, 44.7549
29.219971537, 96.390, 2035.0, 45.1110
29.246232102, 96.390, 1938.0, 44.0227
29.272492668, 96.390, 1989.0, 44.5982
29.298753233, 96.390, 1868.0, 43.2204
29.325013798, 96.390, 1952.0, 44.1814
29.351274364, 96.390, 1940.0, 44.0454
29.377534929, 96.390, 1952.0, 44.1814
29.403795494, 96.390, 2016.0, 44.8999
29.430056060, 96.390, 2001.0, 44.7325
29.456316625, 96.390, 1926.0, 43.8862
29.482577191, 96.390, 1940.0, 44.0454
29.508837756, 96.390, 1954.0, 44.2041
29.535098321, 96.390, 1899.0, 43.5775
29.561358887, 96.390, 1950.0, 44.1588
29.587619452, 96.390, 1874.0, 43.2897
29.613880017, 96.390, 1901.0, 43.6005
29.640140583, 96.390, 1906.0, 43.6578
29.666401148, 96.390, 1845.0, 42.9535
29.692661713, 96.390, 1839.0, 42.8836
29.718922279, 96.390, 1807.0, 42.5088
29.745182844, 96.390, 1905.0, 43.6463
29.771443409, 96.390, 1872.0, 43.2666
29.797703975, 96.390, 1929.0, 43.9204
29.823964540, 96.390, 1913.0, 43.7379
29.850225105, 96.390, 1893.0, 43.5086
29.876485671, 96.390, 1902.0, 43.6119
29.902746236, 96.390, 1839.0, 42.8836
29.929006802, 96.390, 1850.0, 43.0116
29.955267367, 96.390, 1788.0, 42.2847
29.981527932, 96.390, 1832.0, 42.8019
30.007788498, 96.390, 1853.0, 43.0465
30.034049063, 96.390, 1834.0, 42.8252
30.060309628, 96.390, 1812.0, 42.5676
30.086570194, 96.390, 1835.0, 42.8369
30.112830759, 96.390, 1781.0, 42.2019
30.139091324, 96.390, 1746.0, 41.7852
30.165351890, 96.390, 1717.0, 41.4367
30.191612455, 96.390, 1878.0, 43.3359
30.217873020, 96.390, 1807.0, 42.5088
30.244133586, 96.390, 1719.0, 41.4608
30.270394151, 96.390, 1820.0, 42.6615
30.296654717, 96.390, 1731.0, 41.6053
30.322915282, 96.390, 1785.0, 42.2493
30.349175847, 96.390, 1751.0, 41.8450
30.375436413, 96.390, 1832.0, 42.8019
30.401696978, 96.390, 1813.0, 42.5793
30.427957543, 96.390, 1881.0, 43.3705
30.454218109, 96.390, 1770.0, 42.0714
30.480478674, 96.390, 1840.0, 42.8952
30.506739239, 96.390, 1752.0, 41.8569
30.532999805, 96.390, 1703.0, 41.2674
30.559260370, 96.390, 1736.0, 41.6653
30.585520935, 96.390, 1754.0, 41.8808
30.611781501, 96.390, 1740.0, 41.7133
30.638042066, 96.390, 1708.0, 41.3280
30.664302631, 96.390, 1693.0, 41.1461
30.690563197, 96.390, 1819.0, 42.6497
30.716823762, 96.390, 1718.0, 41.4488
30.743084328, 96.390, 1702.0, 41.2553
30.769344893, 96.390, 1727.0, 41.5572
30.795605458, 96.390, 1771.0, 42.0833
30.821866024, 96.390, 1656.0, 40.6940
30.848126589, 96.390, 1726.0, 41.5452
30.874387154, 96.390, 1732.0, 41.6173
30.900647720, 96.390, 1692.0, 41.1339
30.926908285, 96.390, 1720.0, 41.4729
30.953168850, 96.390, 1696.0, 41.1825
30.979429416, 96.390, 1695.0, 41.1704
31.005689981, 96.390, 1698.0, 41.2068
31.031950546, 96.390, 1669.0, 40.8534
31.058211112, 96.390, 1633.0, 40.4104
31.084471677, 96.390, 1641.0, 40.5093
31.110732243, 96.390, 1753.0, 41.8688
31.136992808, 96.390, 1753.0, 41.8688
31.163253373, 96.390, 1757.0, 41.9166
31.189513939, 96.390, 1643.0, 40.5339
31.215774504, 96.390, 1668.0, 40.8412
31.242035069, 96.390, 1695.0, 41.1704
31.268295635, 96.390, 1616.0, 40.1995
31.294556200, 96.390, 1677.0, 40.9512
31.320816765, 96.390, 1675.0, 40.9268
31.347077331, 96.390, 1644.0, 40.5463
31.373337896, 96.390, 1611.0, 40.1373
31.399598461, 96.390, 1653.0, 40.6571
31.425859027, 96.390, 1643.0, 40.5339
31.452119592, 96.390, 1648.0, 40.5956
31.478380157, 96.390, 1626.0, 40.3237
31.504640723, 96.390, 1606.0, 40.0749
31.530901288, 96.390, 1683.0, 41.0244
31.557161854, 96.390, 1679.0, 40.9756
31.583422419, 96.390, 1561.0, 39.5095
31.609682984, 96.390, 1617.0, 40.2119
31.635943550, 96.390, 1565.0, 39.5601
31.662204115, 96.390, 1568.0, 39.5980
31.688464680, 96.390, 1616.0, 40.1995
31.714725246, 96.390, 1617.0, 40.2119
31.740985811, 96.390, 1602.0, 40.0250
31.767246376, 96.390, 1581.0, 39.7618
31.793506942, 96.390, 1523.0, 39.0256
31.819767507, 96.390, 1545.0, 39.3065
31.846028072, 96.390, 1549.0, 39.3573
31.872288638, 96.390, 1642.0, 40.5216
31.898549203, 96.390, 1531.0, 39.1280
31.924809769, 96.390, 1571.0, 39.6358
31.951070334, 96.390, 1518.0, 38.9615
31.977330899, 96.390, 1552.0, 39.3954
32.003591465, 96.390, 1611.0, 40.1373
32.029852030, 96.390, 1548.0, 39.3446
32.056112595, 96.390, 1507.0, 38.8201
32.082373161, 96.390, 1525.0, 39.0512
32.108633726, 96.390, 1554.0, 39.4208
32.134894291, 96.390, 1613.0, 40.1622
32.161154857, 96.390, 1549.0, 39.3573
32.187415422, 96.390, 1471.0, 38.3536
32.213675987, 96.390, 1573.0, 39.6611
32.239936553, 96.390, 1563.0, 39.5348
32.266197118, 96.390, 1445.0, 38.0132
32.292457683, 96.390, 1505.0, 38.7943
32.318718249, 96.390, 1537.0, 39.2046
32.344978814, 96.390, 1422.0, 37.7094
32.371239380, 96.390, 1494.0, 38.6523
32.397499945, 96.390, 1497.0, 38.6911
32.423760510, 96.390, 1517.0, 38.9487
32.450021076, 96.390, 1472.0, 38.3667
32.476281641, 96.390, 1473.0, 38.3797
32.502542206, 96.390, 1490.0, 38.6005
32.528802772, 96.390, 1557.0, 39.4588
32.555063337, 96.390, 1450.0, 38.0789
32.581323902, 96.390, 1459.0, 38.1969
32.607584468, 96.390, 1431.0, 37.8286
32.633845033, 96.390, 1473.0, 38.3797
32.660105598, 96.390, 1455.0, 38.1445
32.686366164, 96.390, 1398.0, 37.3898
32.712626729, 96.390, 1437.0, 37.9078
32.738887295, 96.390, 1469.0, 38.3275
32.765147860, 96.390, 1434.0, 37.8682
32.791408425, 96.390, 1473.0, 38.3797
32.817668991, 96.390, 1393.0, 37.3229
32.843929556, 96.390, 1429.0, 37.8021
32.870190121, 96.390, 1480.0, 38.4708
32.896450687, 96.390, 1436.0, 37.8946
32.922711252, 96.390, 1438.0, 37.9210
32.948971817, 96.390, 1417.0, 37.6431
32.975232383, 96.390, 1422.0, 37.7094
33.001492948, 96.390, 1416.0, 37.6298
33.027753513, 96.390, 1420.0, 37.6829
33.054014079, 96.390, 1449.0, 38.0657
33.080274644, 96.390, 1445.0, 38.0132
33.106535209, 96.390, 1417.0, 37.6431
33.132795775, 96.390, 1382.0, 37.1753
33.159056340, 96.390, 1422.0, 37.7094
33.185316906, 96.390, 1366.0, 36.9594
33.211577471, 96.390, 1421.0, 37.6962
33.237838036, 96.390, 1407.0, 37.5100
33.264098602, 96.390, 1443.0, 37.9868
33.290359167, 96.390, 1452.0, 38.1051
33.316619732, 96.390, 1373.0, 37.0540
33.342880298, 96.390, 1405.0, 37.4833
33.369140863, 96.390, 1314.0, 36.2491
33.395401428, 96.390, 1416.0, 37.6298
33.421661994, 96.390, 1352.0, 36.7696
33.447922559, 96.390, 1358.0, 36.8511
33.474183124, 96.390, 1316.0, 36.2767
33.500443690, 96.390, 1353.0, 36.7831
33.526704255, 96.390, 1372.0, 37.0405
33.552964820, 96.390, 1365.0, 36.9459
33.579225386, 96.390, 1358.0, 36.8511
33.605485951, 96.390, 1374.0, 37.0675
33.631746517, 96.390, 1392.0, 37.3095
33.658007082, 96.390, 1416.0, 37.6298
33.684267647, 96.390, 1284.0, 35.8329
33.710528213, 96.390, 1394.0, 37.3363
33.736788778, 96.390, 1377.0, 37.1080
33.763049343, 96.390, 1381.0, 37.1618
33.789309909, 96.390, 1337.0, 36.5650
33.815570474, 96.390, 1358.0, 36.8511
33.841831039, 96.390, 1317.0, 36.2905
33.868091605, 96.390, 1322.0, 36.3593
33.894352170, 96.390, 1264.0, 35.5528
33.920612735, 96.390, 1305.0, 36.1248
33.946873301, 96.390, 1309.0, 36.1801
33.973133866, 96.390, 1279.0, 35.7631
33.999394432, 96.390, 1327.0, 36.4280
34.025654997, 96.390, 1391.0, 37.2961
34.051915562, 96.390, 1309.0, 36.1801
34.078176128, 96.390, 1344.0, 36.6606
34.104436693, 96.390, 1322.0, 36.3593
34.130697258, 96.390, 1372.0, 37.0405
34.156957824, 96.390, 1259.0, 35.4824
34.183218389, 96.390, 1312.0, 36.2215
34.209478954, 96.390, 1283.0, 35.8190
34.235739520, 96.390, 1290.0, 35.9166
34.262000085, 96.390, 1278.0, 35.7491
34.288260650, 96.390, 1304.0, 36.1109
34.314521216, 96.390, 1304.0, 36.1109
34.340781781, 96.390, 1344.0, 36.6606
34.367042346, 96.390, 1235.0, 35.1426
34.393302912, 96.390, 1375.0, 37.0810
34.419563477, 96.390, 1340.0, 36.6060
34.445824043, 96.390, 1248.0, 35.3270
34.472084608, 96.390, 1255.0, 35.4260
34.498345173, 96.390, 1252.0, 35.3836
34.524605739, 96.390, 1281.0, 35.7911
34.550866304, 96.390, 1232.0, 35.0999
34.577126869, 96.390, 1299.0, 36.0416
34.603387435, 96.390, 1243.0, 35.2562
34.629648000, 96.390, 1232.0, 35.0999
34.655908565, 96.390, 1282.0, 35.8050
34.682169131, 96.390, 1221.0, 34.9428
34.708429696, 96.390, 1243.0, 35.2562
34.734690261, 96.390, 1258.0, 35.4683
34.760950827, 96.390, 1292.0, 35.9444
34.787211392, 96.390, 1200.0, 34.6410
34.813471958, 96.390, 1245.0, 35.2846
34.839732523, 96.390, 1250.0, 35.3553
34.865993088, 96.390, 1253.0, 35.3977
34.892253654, 96.390, 1242.0, 35.2420
34.918514219, 96.390, 1218.0, 34.8999
34.944774784, 96.390, 1211.0, 34.7994
34.971035350, 96.390, 1255.0, 35.4260
34.997295915, 96.390, 1231.0, 35.0856
35.023556480, 96.390, 1180.0, 34.3511
35.049817046, 96.390, 1186.0, 34.4384
35.076077611, 96.390, 1209.0, 34.7707
35.102338176, 96.390, 1215.0, 34.8569
35.128598742, 96.390, 1215.0, 34.8569
35.154859307, 96.390, 1237.0, 35.1710
35.181119872, 96.390, 1162.0, 34.0881
35.207380438, 96.390, 1194.0, 34.5543
35.233641003, 96.390, 1189.0, 34.4819
35.259901569, 96.390, 1211.0, 34.7994
35.286162134, 96.390, 1171.0, 34.2199
35.312422699, 96.390, 1167.0, 34.1614
35.338683265, 96.390, 1173.0, 34.2491
35.364943830, 96.390, 1163.0, 34.1028
35.391204395, 96.390, 1166.0, 34.1467
35.417464961, 96.390, 1148.0, 33.8821
35.443725526, 96.390, 1201.0, 34.6554
35.469986091, 96.390, 1167.0, 34.1614
35.496246657, 96.390, 1134.0, 33.6749
35.522507222, 96.390, 1154.0, 33.9706
35.548767787, 96.390, 1225.0, 35.0000
35.575028353, 96.390, 1164.0, 34.1174
35.601288918, 96.390, 1071.0, 32.7261
35.627549484, 96.390, 1142.0, 33.7935
35.653810049, 96.390, 1194.0, 34.5543
35.680070614, 96.390, 1169.0, 34.1906
35.706331180, 96.390, 1128.0, 33.5857
35.732591745, 96.390, 1109.0, 33.3017
35.758852310, 96.390, 1151.0, 33.9264
35.785112876, 96.390, 1193.0, 34.5398
35.811373441, 96.390, 1141.0, 33.7787
35.837634006, 96.390, 1084.0, 32.9242
35.863894572, 96.390, 1155.0, 33.9853
35.890155137, 96.390, 1130.0, 33.6155
35.916415702, 96.390, 1176.0, 34.2929
35.942676268, 96.390, 1075.0, 32.7872
35.968936833, 96.390, 1154.0, 33.9706
35.995197398, 96.390, 1121.0, 33.4813
36.021457964, 96.390, 1085.0, 32.9393
36.047718529, 96.390, 1110.0, 33.3167
36.073979095, 96.390, 1166.0, 34.1467
36.100239660, 96.390, 1079.0, 32.8481
36.126500225, 96.390, 1173.0, 34.2491
36.152760791, 96.390, 1117.0, 33.4215
36.179021356, 96.390, 1129.0, 33.6006
36.205281921, 96.390, 1139.0, 33.7491
36.231542487, 96.390, 1077.0, 32.8177
36.257803052, 96.390, 1169.0, 34.1906
36.284063617, 96.390, 1118.0, 33.4365
36.310324183, 96.390, 1108.0, 33.2866
36.336584748, 96.390, 1053.0, 32.4500
36.362845313, 96.390, 1090.0, 33.0151
36.389105879, 96.390, 1113.0, 33.3617
36.415366444, 96.390, 1101.0, 33.1813
36.441627010, 96.390, 1098.0, 33.1361
36.467887575, 96.390, 1069.0, 32.6956
36.494148140, 96.390, 1080.0, 32.8634
36.520408706, 96.390, 1119.0, 33.4515
36.546669271, 96.390, 1089.0, 33.0000
36.572929836, 96.390, 1077.0, 32.8177
36.599190402, 96.390, 1088.0, 32.9848
36.625450967, 96.390, 1044.0, 32.3110
36.651711532, 96.390, 1068.0, 32.6803
36.677972098, 96.390, 1085.0, 32.9393
36.704232663, 96.390, 1069.0, 32.6956
36.730493228, 96.390, 1084.0, 32.9242
36.756753794, 96.390, 1076.0, 32.8024
36.783014359, 96.390, 1149.0, 33.8969
36.809274924, 96.390, 1055.0, 32.4808
36.835535490, 96.390, 1016.0, 31.8748
36.861796055, 96.390, 1077.0, 32.8177
36.888056621, 96.390, 1071.0, 32.7261
36.914317186, 96.390, 1005.0, 31.7017
36.940577751, 96.390, 1052.0, 32.4345
36.966838317, 96.390, 1061.0, 32.5730
36.993098882, 96.390, 994.0, 31.5278
37.019359447, 96.390, 1036.0, 32.1870
37.045620013, 96.390, 1065.0, 32.6343
37.071880578, 96.390, 1075.0, 32.7872
37.098141143, 96.390, 1002.0, 31.6544
37.124401709, 96.390, 1028.0, 32.0624
37.150662274, 96.390, 1046.0, 32.3419
37.176922839, 96.390, 1033.0, 32.1403
37.203183405, 96.390, 1024.0, 32.0000
37.229443970, 96.390, 994.0, 31.5278
37.255704535, 96.390, 1031.0, 32.1092
37.281965101, 96.390, 1087.0, 32.9697
37.308225666, 96.390, 1019.0, 31.9218
37.334486232, 96.390, 1013.0, 31.8277
37.360746797, 96.390, 994.0, 31.5278
37.387007362, 96.390, 1023.0, 31.9844
37.413267928, 96.390, 1056.0, 32.4962
37.439528493, 96.390, 1013.0, 31.8277
37.465789058, 96.390, 1026.0, 32.0312
37.492049624, 96.390, 966.0, 31.0805
37.518310189, 96.390, 991.0, 31.4802
37.544570754, 96.390, 971.0, 31.1609
37.570831320, 96.390, 1062.0, 32.5883
37.597091885, 96.390, 985.0, 31.3847
37.623352450, 96.390, 1037.0, 32.2025
37.649613016, 96.390, 997.0, 31.5753
37.675873581, 96.390, 950.0, 30.8221
37.702134147, 96.390, 1004.0, 31.6860
37.728394712, 96.390, 978.0, 31.2730
37.754655277, 96.390, 1054.0, 32.4654
37.780915843, 96.390, 1031.0, 32.1092
37.807176408, 96.390, 993.0, 31.5119
37.833436973, 96.390, 1010.0, 31.7805
37.859697539, 96.390, 942.0, 30.6920
37.885958104, 96.390, 1051.0, 32.4191
37.912218669, 96.390, 989.0, 31.4484
37.938479235, 96.390, 956.0, 30.9192
37.964739800, 96.390, 1019.0, 31.9218
37.991000365, 96.390, 922.0, 30.3645
38.017260931, 96.390, 936.0, 30.5941
38.043521496, 96.390, 996.0, 31.5595
38.069782061, 96.390, 992.0, 31.4960
38.096042627, 96.390, 945.0, 30.7409
38.122303192, 96.390, 984.0, 31.3688
38.148563758, 96.390, 979.0, 31.2890
38.174824323, 96.390, 944.0, 30.7246
38.201084888, 96.390, 905.0, 30.0832
38.227345454, 96.390, 944.0, 30.7246
38.253606019, 96.390, 916.0, 30.2655
38.279866584, 96.390, 901.0, 30.0167
38.306127150, 96.390, 1018.0, 31.9061
38.332387715, 96.390, 948.0, 30.7896
38.358648280, 96.390, 967.0, 31.0966
38.384908846, 96.390, 924.0, 30.3974
38.411169411, 96.390, 946.0, 30.7571
38.437429976, 96.390, 975.0, 31.2250
38.463690542, 96.390, 938.0, 30.6268
38.489951107, 96.390, 936.0, 30.5941
38.516211673, 96.390, 962.0, 31.0161
38.542472238, 96.390, 974.0, 31.2090
38.568732803, 96.390, 957.0, 30.9354
38.594993369, 96.390, 946.0, 30.7571
38.621253934, 96.390, 929.0, 30.4795
38.647514499, 96.390, 956.0, 30.9192
38.673775065, 96.390, 859.0, 29.3087
38.700035630, 96.390, 976.0, 31.2410
38.726296195, 96.390, 950.0, 30.8221
38.752556761, 96.390, 925.0, 30.4138
38.778817326, 96.390, 956.0, 30.9192
38.805077891, 96.390, 944.0, 30.7246
38.831338457, 96.390, 951.0, 30.8383
38.857599022, 96.390, 926.0, 30.4302
38.883859587, 96.390, 898.0, 29.9666
38.910120153, 96.390, 927.0, 30.4467
38.936380718, 96.390, 891.0, 29.8496
38.962641284, 96.390, 913.0, 30.2159
38.988901849, 96.390, 949.0, 30.8058
39.015162414, 96.390, 928.0, 30.4631
39.041422980, 96.390, 917.0, 30.2820
39.067683545, 96.390, 856.0, 29.2575
39.093944110, 96.390, 911.0, 30.1828
39.120204676, 96.390, 908.0, 30.1330
39.146465241, 96.390, 918.0, 30.2985
39.172725806, 96.390, 928.0, 30.4631
39.198986372, 96.390, 878.0, 29.6311
39.225246937, 96.390, 928.0, 30.4631
39.251507502, 96.390, 952.0, 30.8545
39.277768068, 96.390, 972.0, 31.1769
39.304028633, 96.390, 911.0, 30.1828
39.330289199, 96.390, 829.0, 28.7924
39.356549764, 96.390, 945.0, 30.7409
39.382810329, 96.390, 904.0, 30.0666
39.409070895, 96.390, 846.0, 29.0861
39.435331460, 96.390, 926.0, 30.4302
39.461592025, 96.390, 927.0, 30.4467
39.487852591, 96.390, 971.0, 31.1609
39.514113156, 96.390, 950.0, 30.8221
39.540373721, 96.390, 908.0, 30.1330
39.566634287, 96.390, 923.0, 30.3809
39.592894852, 96.390, 889.0, 29.8161
39.619155417, 96.390, 895.0, 29.9166
39.645415983, 96.390, 893.0, 29.8831
39.671676548, 96.390, 872.0, 29.5296
39.697937113, 96.390, 861.0, 29.3428
39.724197679, 96.390, 881.0, 29.6816
39.750458244, 96.390, 937.0, 30.6105
39.776718810, 96.390, 906.0, 30.0998
39.802979375, 96.390, 845.0, 29.0689
39.829239940, 96.390, 958.0, 30.9516
39.855500506, 96.390, 926.0, 30.4302
39.881761071, 96.390, 917.0, 30.2820
39.908021636, 96.390, 917.0, 30.2820
39.934282202, 96.390, 931.0, 30.5123
39.960542767, 96.390, 869.0, 29.4788
39.986803332, 96.390, 913.0, 30.2159
40.013063898, 96.390, 917.0, 30.2820
40.039324463, 96.390, 907.0, 30.1164
40.065585028, 96.390, 874.0, 29.5635
40.091845594, 96.390, 796.0, 28.2135
40.118106159, 96.390, 855.0, 29.2404
40.144366725, 96.390, 845.0, 29.0689
40.170627290, 96.390, 828.0, 28.7750
40.196887855, 96.390, 847.0, 29.1033
40.223148421, 96.390, 881.0, 29.6816
40.249408986, 96.390, 924.0, 30.3974
40.275669551, 96.390, 870.0, 29.4958
40.301930117, 96.390, 870.0, 29.4958
40.328190682, 96.390, 884.0, 29.7321
40.354451247, 96.390, 857.0, 29.2746
40.380711813, 96.390, 874.0, 29.5635
40.406972378, 96.390, 854.0, 29.2233
40.433232943, 96.390, 852.0, 29.1890
40.459493509, 96.390, 897.0, 29.9500
40.485754074, 96.390, 883.0, 29.7153
40.512014639, 96.390, 905.0, 30.0832
40.538275205, 96.390, 856.0, 29.2575
40.564535770, 96.390, 893.0, 29.8831
40.590796336, 96.390, 882.0, 29.6985
40.617056901, 96.390, 849.0, 29.1376
40.643317466, 96.390, 839.0, 28.9655
40.669578032, 96.390, 893.0, 29.8831
40.695838597, 96.390, 879.0, 29.6479
40.722099162, 96.390, 921.0, 30.3480
40.748359728, 96.390, 848.0, 29.1204
40.774620293, 96.390, 887.0, 29.7825
40.800880858, 96.390, 877.0, 29.6142
40.827141424, 96.390, 869.0, 29.4788
40.853401989, 96.390, 834.0, 28.8791
40.879662554, 96.390, 840.0, 28.9828
40.905923120, 96.390, 825.0, 28.7228
40.932183685, 96.390, 846.0, 29.0861
40.958444251, 96.390, 865.0, 29.4109
40.984704816, 96.390, 891.0, 29.8496
41.010965381, 96.390, 834.0, 28.8791
41.037225947, 96.390, 875.0, 29.5804
41.063486512, 96.390, 882.0, 29.6985
41.089747077, 96.390, 920.0, 30.3315
41.116007643, 96.390, 888.0, 29.7993
41.142268208, 96.390, 913.0, 30.2159
41.168528773, 96.390, 912.0, 30.1993
41.194789339, 96.390, 866.0, 29.4279
41.221049904, 96.390, 862.0, 29.3598
41.247310469, 96.390, 861.0, 29.3428
41.273571035, 96.390, 859.0, 29.3087
41.299831600, 96.390, 875.0, 29.5804
41.326092165, 96.390, 838.0, 28.9482
41.352352731, 96.390, 875.0, 29.5804
41.378613296, 96.390, 868.0, 29.4618
41.404873862, 96.390, 833.0, 28.8617
41.431134427, 96.390, 893.0, 29.8831
41.457394992, 96.390, 890.0, 29.8329
41.483655558, 96.390, 871.0, 29.5127
41.509916123, 96.390, 889.0, 29.8161
41.536176688, 96.390, 861.0, 29.3428
41.562437254, 96.390, 885.0, 29.7489
41.588697819, 96.390, 878.0, 29.6311
41.614958384, 96.390, 867.0, 29.4449
41.641218950, 96.390, 907.0, 30.1164
41.667479515, 96.390, 881.0, 29.6816
41.693740080, 96.390, 908.0, 30.1330
41.720000646, 96.390, 848.0, 29.1204
41.746261211, 96.390, 856.0, 29.2575
41.772521776, 96.390, 841.0, 29.0000
41.798782342, 96.390, 876.0, 29.5973
41.825042907, 96.390, 879.0, 29.6479
41.851303473, 96.390, 883.0, 29.7153
41.877564038, 96.390, 854.0, 29.2233
41.903824603, 96.390, 874.0, 29.5635
41.930085169, 96.390, 847.0, 29.1033
41.956345734, 96.390, 874.0, 29.5635
41.982606299, 96.390, 894.0, 29.8998
42.008866865, 96.390, 839.0, 28.9655
42.035127430, 96.390, 841.0, 29.0000
42.061387995, 96.390, 790.0, 28.1069
42.087648561, 96.390, 866.0, 29.4279
42.113909126, 96.390, 814.0, 28.5307
42.140169691, 96.390, 826.0, 28.7402
42.166430257, 96.390, 885.0, 29.7489
42.192690822, 96.390, 811.0, 28.4781
42.218951388, 96.390, 897.0, 29.9500
42.245211953, 96.390, 865.0, 29.4109
42.271472518, 96.390, 812.0, 28.4956
42.297733084, 96.390, 852.0, 29.1890
42.323993649, 96.390, 868.0, 29.4618
42.350254214, 96.390, 849.0, 29.1376
42.376514780, 96.390, 875.0, 29.5804
42.402775345, 96.390, 859.0, 29.3087
42.429035910, 96.390, 800.0, 28.2843
42.455296476, 96.390, 834.0, 28.8791
42.481557041, 96.390, 845.0, 29.0689
42.507817606, 96.390, 853.0, 29.2062
42.534078172, 96.390, 799.0, 28.2666
42.560338737, 96.390, 822.0, 28.6705
42.586599302, 96.390, 811.0, 28.4781
42.612859868, 96.390, 844.0, 29.0517
42.639120433, 96.390, 820.0, 28.6356
42.665380999, 96.390, 838.0, 28.9482
42.691641564, 96.390, 837.0, 28.9310
42.717902129, 96.390, 862.0, 29.3598
42.744162695, 96.390, 845.0, 29.0689
42.770423260, 96.390, 844.0, 29.0517
42.796683825, 96.390, 845.0, 29.0689
42.822944391, 96.390, 875.0, 29.5804
42.849204956, 96.390, 870.0, 29.4958
42.875465521, 96.390, 867.0, 29.4449
42.901726087, 96.390, 889.0, 29.8161
42.927986652, 96.390, 847.0, 29.1033
42.954247217, 96.390, 826.0, 28.7402
42.980507783, 96.390, 883.0, 29.7153
43.006768348, 96.390, 821.0, 28.6531
43.033028914, 96.390, 850.0, 29.1548
43.059289479, 96.390, 886.0, 29.7658
43.085550044, 96.390, 818.0, 28.6007
43.111810610, 96.390, 793.0, 28.1603
43.138071175, 96.390, 821.0, 28.6531
43.164331740, 96.390, 843.0, 29.0345
43.190592306, 96.390, 791.0, 28.1247
43.216852871, 96.390, 907.0, 30.1164
43.243113436, 96.390, 818.0, 28.6007
43.269374002, 96.390, 857.0, 29.2746
43.295634567, 96.390, 862.0, 29.3598
43.321895132, 96.390, 826.0, 28.7402
43.348155698, 96.390, 831.0, 28.8271
43.374416263, 96.390, 814.0, 28.5307
43.400676828, 96.390, 896.0, 29.9333
43.426937394, 96.390, 782.0, 27.9643
43.453197959, 96.390, 836.0, 28.9137
43.479458525, 96.390, 820.0, 28.6356
43.505719090, 96.390, 826.0, 28.7402
43.531979655, 96.390, 864.0, 29.3939
43.558240221, 96.390, 844.0, 29.0517
43.584500786, 96.390, 876.0, 29.5973
43.610761351, 96.390, 786.0, 28.0357
43.637021917, 96.390, 819.0, 28.6182
43.663282482, 96.390, 789.0, 28.0891
43.689543047, 96.390, 845.0, 29.0689
43.715803613, 96.390, 831.0, 28.8271
43.742064178, 96.390, 846.0, 29.0861
43.768324743, 96.390, 826.0, 28.7402
43.794585309, 96.390, 800.0, 28.2843
43.820845874, 96.390, 862.0, 29.3598
43.847106440, 96.390, 836.0, 28.9137
43.873367005, 96.390, 778.0, 27.8927
43.899627570, 96.390, 787.0, 28.0535
43.925888136, 96.390, 828.0, 28.7750
43.952148701, 96.390, 836.0, 28.9137
43.978409266, 96.390, 774.0, 27.8209
44.004669832, 96.390, 834.0, 28.8791
44.030930397, 96.390, 881.0, 29.6816
44.057190962, 96.390, 753.0, 27.4408
44.083451528, 96.390, 840.0, 28.9828
44.109712093, 96.390, 777.0, 27.8747
44.135972658, 96.390, 860.0, 29.3258
44.162233224, 96.390, 773.0, 27.8029
44.188493789, 96.390, 818.0, 28.6007
44.214754354, 96.390, 776.0, 27.8568
44.241014920, 96.390, 776.0, 27.8568
44.267275485, 96.390, 861.0, 29.3428
44.293536051, 96.390, 792.0, 28.1425
44.319796616, 96.390, 807.0, 28.4077
44.346057181, 96.390, 818.0, 28.6007
44.372317747, 96.390, 840.0, 28.9828
44.398578312, 96.390, 803.0, 28.3373
44.424838877, 96.390, 856.0, 29.2575
44.451099443, 96.390, 819.0, 28.6182
44.477360008, 96.390, 827.0, 28.7576
44.503620573, 96.390, 804.0, 28.3549
44.529881139, 96.390, 841.0, 29.0000
44.556141704, 96.390, 800.0, 28.2843
44.582402269, 96.390, 793.0, 28.1603
44.608662835, 96.390, 838.0, 28.9482
44.634923400, 96.390, 820.0, 28.6356
44.661183966, 96.390, 811.0, 28.4781
44.687444531, 96.390, 772.0, 27.7849
44.713705096, 96.390, 809.0, 28.4429
44.739965662, 96.390, 808.0, 28.4253
44.766226227, 96.390, 783.0, 27.9821
44.792486792, 96.390, 795.0, 28.1957
44.818747358, 96.390, 790.0, 28.1069
44.845007923, 96.390, 760.0, 27.5681
44.871268488, 96.390, 818.0, 28.6007
44.897529054, 96.390, 816.0, 28.5657
44.923789619, 96.390, 792.0, 28.1425
44.950050184, 96.390, 776.0, 27.8568
44.976310750, 96.390, 754.0, 27.4591
45.002571315, 96.390, 829.0, 28.7924
45.028831880, 96.390, 794.0, 28.1780
45.055092446, 96.390, 781.0, 27.9464
45.081353011, 96.390, 803.0, 28.3373
45.107613577, 96.390, 808.0, 28.4253
45.133874142, 96.390, 778.0, 27.8927
45.160134707, 96.390, 776.0, 27.8568
45.186395273, 96.390, 818.0, 28.6007
45.212655838, 96.390, 755.0, 27.4773
45.238916403, 96.390, 784.0, 28.0000
45.265176969, 96.390, 769.0, 27.7308
45.291437534, 96.390, 773.0, 27.8029
45.317698099, 96.390, 789.0, 28.0891
45.343958665, 96.390, 769.0, 27.7308
45.370219230, 96.390, 860.0, 29.3258
45.396479795, 96.390, 813.0, 28.5132
45.422740361, 96.390, 778.0, 27.8927
45.449000926, 96.390, 751.0, 27.4044
45.475261492, 96.390, 828.0, 28.7750
45.501522057, 96.390, 763.0, 27.6225
45.527782622, 96.390, 833.0, 28.8617
45.554043188, 96.390, 811.0, 28.4781
45.580303753, 96.390, 789.0, 28.0891
45.606564318, 96.390, 780.0, 27.9285
45.632824884, 96.390, 815.0, 28.5482
45.659085449, 96.390, 842.0, 29.0172
45.685346014, 96.390, 759.0, 27.5500
45.711606580, 96.390, 767.0, 27.6948
45.737867145, 96.390, 797.0, 28.2312
45.764127710, 96.390, 783.0, 27.9821
45.790388276, 96.390, 811.0, 28.4781
45.816648841, 96.390, 783.0, 27.9821
45.842909406, 96.390, 833.0, 28.8617
45.869169972, 96.390, 782.0, 27.9643
45.895430537, 96.390, 766.0, 27.6767
45.921691103, 96.390, 755.0, 27.4773
45.947951668, 96.390, 817.0, 28.5832
45.974212233, 96.390, 767.0, 27.6948
46.000472799, 96.390, 784.0, 28.0000
46.026733364, 96.390, 753.0, 27.4408
46.052993929, 96.390, 779.0, 27.9106
46.079254495, 96.390, 733.0, 27.0740
46.105515060, 96.390, 762.0, 27.6043
46.131775625, 96.390, 779.0, 27.9106
46.158036191, 96.390, 816.0, 28.5657
46.184296756, 96.390, 759.0, 27.5500
46.210557321, 96.390, 825.0, 28.7228
46.236817887, 96.390, 803.0, 28.3373
46.263078452, 96.390, 749.0, 27.3679
46.289339017, 96.390, 821.0, 28.6531
46.315599583, 96.390, 833.0, 28.8617
46.341860148, 96.390, 741.0, 27.2213
46.368120714, 96.390, 795.0, 28.1957
46.394381279, 96.390, 780.0, 27.9285
46.420641844, 96.390, 806.0, 28.3901
46.446902410, 96.390, 806.0, 28.3901
46.473162975, 96.390, 774.0, 27.8209
46.499423540, 96.390, 728.0, 26.9815
46.525684106, 96.390, 781.0, 27.9464
46.551944671, 96.390, 758.0, 27.5318
46.578205236, 96.390, 801.0, 28.3019
46.604465802, 96.390, 826.0, 28.7402
46.630726367, 96.390, 782.0, 27.9643
46.656986932, 96.390, 770.0, 27.7489
46.683247498, 96.390, 765.0, 27.6586
46.709508063, 96.390, 788.0, 28.0713
46.735768629, 96.390, 768.0, 27.7128
46.762029194, 96.390, 767.0, 27.6948
46.788289759, 96.390, 787.0, 28.0535
46.814550325, 96.390, 760.0, 27.5681
46.840810890, 96.390, 772.0, 27.7849
46.867071455, 96.390, 769.0, 27.7308
46.893332021, 96.390, 816.0, 28.5657
46.919592586, 96.390, 780.0, 27.9285
46.945853151, 96.390, 772.0, 27.7849
46.972113717, 96.390, 722.0, 26.8701
46.998374282, 96.390, 777.0, 27.8747
47.024634847, 96.390, 765.0, 27.6586
47.050895413, 96.390, 761.0, 27.5862
47.077155978, 96.390, 815.0, 28.5482
47.103416543, 96.390, 757.0, 27.5136
47.129677109, 96.390, 817.0, 28.5832
47.155937674, 96.390, 729.0, 27.0000
47.182198240, 96.390, 796.0, 28.2135
47.208458805, 96.390, 715.0, 26.7395
47.234719370, 96.390, 751.0, 27.4044
47.260979936, 96.390, 719.0, 26.8142
47.287240501, 96.390, 770.0, 27.7489
47.313501066, 96.390, 759.0, 27.5500
47.339761632, 96.390, 765.0, 27.6586
47.366022197, 96.390, 725.0, 26.9258
47.392282762, 96.390, 769.0, 27.7308
47.418543328, 96.390, 762.0, 27.6043
47.444803893, 96.390, 744.0, 27.2764
47.471064458, 96.390, 826.0, 28.7402
47.497325024, 96.390, 772.0, 27.7849
47.523585589, 96.390, 777.0, 27.8747
47.549846155, 96.390, 773.0, 27.8029
47.576106720, 96.390, 747.0, 27.3313
47.602367285, 96.390, 731.0, 27.0370
47.628627851, 96.390, 779.0, 27.9106
47.654888416, 96.390, 718.0, 26.7955
47.681148981, 96.390, 777.0, 27.8747
47.707409547, 96.390, 770.0, 27.7489
47.733670112, 96.390, 745.0, 27.2947
47.759930677, 96.390, 805.0, 28.3725
47.786191243, 96.390, 762.0, 27.6043
47.812451808, 96.390, 744.0, 27.2764
47.838712373, 96.390, 743.0, 27.2580
47.864972939, 96.390, 728.0, 26.9815
47.891233504, 96.390, 746.0, 27.3130
47.917494069, 96.390, 730.0, 27.0185
47.943754635, 96.390, 756.0, 27.4955
47.970015200, 96.390, 730.0, 27.0185
47.996275766, 96.390, 760.0, 27.5681
48.022536331, 96.390, 736.0, 27.1293
48.048796896, 96.390, 735.0, 27.1109
48.075057462, 96.390, 758.0, 27.5318
48.101318027, 96.390, 793.0, 28.1603
48.127578592, 96.390, 718.0, 26.7955
48.153839158, 96.390, 729.0, 27.0000
48.180099723, 96.390, 775.0, 27.8388
48.206360288, 96.390, 782.0, 27.9643
48.232620854, 96.390, 764.0, 27.6405
48.258881419, 96.390, 757.0, 27.5136
48.285141984, 96.390, 741.0, 27.2213
48.311402550, 96.390, 727.0, 26.9629
48.337663115, 96.390, 754.0, 27.4591
48.363923681, 96.390, 720.0, 26.8328
48.390184246, 96.390, 763.0, 27.6225
48.416444811, 96.390, 718.0, 26.7955
48.442705377, 96.390, 748.0, 27.3496
48.468965942, 96.390, 762.0, 27.6043
48.495226507, 96.390, 713.0, 26.7021
48.521487073, 96.390, 723.0, 26.8887
48.547747638, 96.390, 691.0, 26.2869
48.574008203, 96.390, 771.0, 27.7669
48.600268769, 96.390, 721.0, 26.8514
48.626529334, 96.390, 808.0, 28.4253
48.652789899, 96.390, 726.0, 26.9444
48.679050465, 96.390, 708.0, 26.6083
48.705311030, 96.390, 745.0, 27.2947
48.731571595, 96.390, 721.0, 26.8514
48.757832161, 96.390, 782.0, 27.9643
48.784092726, 96.390, 801.0, 28.3019
48.810353292, 96.390, 699.0, 26.4386
48.836613857, 96.390, 757.0, 27.5136
48.862874422, 96.390, 794.0, 28.1780
48.889134988, 96.390, 718.0, 26.7955
48.915395553, 96.390, 709.0, 26.6271
48.941656118, 96.390, 737.0, 27.1477
48.967916684, 96.390, 747.0, 27.3313
48.994177249, 96.390, 775.0, 27.8388
49.020437814, 96.390, 767.0, 27.6948
49.046698380, 96.390, 715.0, 26.7395
49.072958945, 96.390, 721.0, 26.8514
49.099219510, 96.390, 766.0, 27.6767
49.125480076, 96.390, 731.0, 27.0370
49.151740641, 96.390, 704.0, 26.5330
49.178001207, 96.390, 710.0, 26.6458
49.204261772, 96.390, 739.0, 27.1846
49.230522337, 96.390, 795.0, 28.1957
49.256782903, 96.390, 687.0, 26.2107
49.283043468, 96.390, 714.0, 26.7208
49.309304033, 96.390, 735.0, 27.1109
49.335564599, 96.390, 725.0, 26.9258
49.361825164, 96.390, 740.0, 27.2029
49.388085729, 96.390, 722.0, 26.8701
49.414346295, 96.390, 717.0, 26.7769
49.440606860, 96.390, 714.0, 26.7208
49.466867425, 96.390, 773.0, 27.8029
49.493127991, 96.390, 759.0, 27.5500
49.519388556, 96.390, 735.0, 27.1109
49.545649121, 96.390, 689.0, 26.2488
49.571909687, 96.390, 715.0, 26.7395
49.598170252, 96.390, 701.0, 26.4764
49.624430818, 96.390, 716.0, 26.7582
49.650691383, 96.390, 777.0, 27.8747
49.676951948, 96.390, 744.0, 27.2764
49.703212514, 96.390, 697.0, 26.4008
49.729473079, 96.390, 723.0, 26.8887
49.755733644, 96.390, 734.0, 27.0924
49.781994210, 96.390, 753.0, 27.4408
49.808254775, 96.390, 777.0, 27.8747
49.834515340, 96.390, 757.0, 27.5136
49.860775906, 96.390, 743.0, 27.2580
49.887036471, 96.390, 744.0, 27.2764
49.913297036, 96.390, 728.0, 26.9815
49.939557602, 96.390, 739.0, 27.1846
49.965818167, 96.390, 748.0, 27.3496
49.992078732, 96.390, 687.0, 26.2107
50.018339298, 96.390, 679.0, 26.0576
50.044599863, 96.390, 717.0, 26.7769
50.070860429, 96.390, 704.0, 26.5330
50.097120994, 96.390, 745.0, 27.2947
50.123381559, 96.390, 732.0, 27.0555
50.149642125, 96.390, 711.0, 26.6646
50.175902690, 96.390, 671.0, 25.9037
50.202163255, 96.390, 724.0, 26.9072
50.228423821, 96.390, 744.0, 27.2764
50.254684386, 96.390, 724.0, 26.9072
50.280944951, 96.390, 696.0, 26.3818
50.307205517, 96.390, 753.0, 27.4408
50.333466082, 96.390, 691.0, 26.2869
50.359726647, 96.390, 758.0, 27.5318
50.385987213, 96.390, 731.0, 27.0370
50.412247778, 96.390, 692.0, 26.3059
50.438508344, 96.390, 706.0, 26.5707
50.464768909, 96.390, 726.0, 26.9444
50.491029474, 96.390, 707.0, 26.5895
50.517290040, 96.390, 744.0, 27.2764
50.543550605, 96.390, 752.0, 27.4226
50.569811170, 96.390, 766.0, 27.6767
50.596071736, 96.390, 725.0, 26.9258
50.622332301, 96.390, 699.0, 26.4386
50.648592866, 96.390, 710.0, 26.6458
50.674853432, 96.390, 681.0, 26.0960
50.701113997, 96.390, 767.0, 27.6948
50.727374562, 96.390, 711.0, 26.6646
50.753635128, 96.390, 732.0, 27.0555
50.779895693, 96.390, 713.0, 26.7021
50.806156258, 96.390, 703.0, 26.5141
50.832416824, 96.390, 700.0, 26.4575
50.858677389, 96.390, 697.0, 26.4008
50.884937955, 96.390, 727.0, 26.9629
50.911198520, 96.390, 722.0, 26.8701
50.937459085, 96.390, 683.0, 26.1343
50.963719651, 96.390, 762.0, 27.6043
50.989980216, 96.390, 729.0, 27.0000
51.016240781, 96.390, 719.0, 26.8142
51.042501347, 96.390, 752.0, 27.4226
51.068761912, 96.390, 748.0, 27.3496
51.095022477, 96.390, 716.0, 26.7582
51.121283043, 96.390, 709.0, 26.6271
51.147543608, 96.390, 707.0, 26.5895
51.173804173, 96.390, 738.0, 27.1662
51.200064739, 96.390, 661.0, 25.7099
51.226325304, 96.390, 702.0, 26.4953
51.252585870, 96.390, 666.0, 25.8070
51.278846435, 96.390, 640.0, 25.2982
51.305107000, 96.390, 711.0, 26.6646
51.331367566, 96.390, 744.0, 27.2764
51.357628131, 96.390, 723.0, 26.8887
51.383888696, 96.390, 685.0, 26.1725
51.410149262, 96.390, 689.0, 26.2488
51.436409827, 96.390, 707.0, 26.5895
51.462670392, 96.390, 725.0, 26.9258
51.488930958, 96.390, 724.0, 26.9072
51.515191523, 96.390, 714.0, 26.7208
51.541452088, 96.390, 717.0, 26.7769
51.567712654, 96.390, 676.0, 26.0000
51.593973219, 96.390, 729.0, 27.0000
51.620233784, 96.390, 656.0, 25.6125
51.646494350, 96.390, 694.0, 26.3439
51.672754915, 96.390, 688.0, 26.2298
51.699015481, 96.390, 707.0, 26.5895
51.725276046, 96.390, 686.0, 26.1916
51.751536611, 96.390, 720.0, 26.8328
51.777797177, 96.390, 691.0, 26.2869
51.804057742, 96.390, 709.0, 26.6271
51.830318307, 96.390, 706.0, 26.5707
51.856578873, 96.390, 704.0, 26.5330
51.882839438, 96.390, 715.0, 26.7395
51.909100003, 96.390, 754.0, 27.4591
51.935360569, 96.390, 650.0, 25.4951
51.961621134, 96.390, 691.0, 26.2869
51.987881699, 96.390, 702.0, 26.4953
52.014142265, 96.390, 642.0, 25.3377
52.040402830, 96.390, 646.0, 25.4165
52.066663396, 96.390, 736.0, 27.1293
52.092923961, 96.390, 739.0, 27.1846
52.119184526, 96.390, 680.0, 26.0768
52.145445092, 96.390, 697.0, 26.4008
52.171705657, 96.390, 689.0, 26.2488
52.197966222, 96.390, 663.0, 25.7488
52.224226788, 96.390, 694.0, 26.3439
52.250487353, 96.390, 717.0, 26.7769
52.276747918, 96.390, 682.0, 26.1151
52.303008484, 96.390, 720.0, 26.8328
52.329269049, 96.390, 693.0, 26.3249
52.355529614, 96.390, 697.0, 26.4008
52.381790180, 96.390, 699.0, 26.4386
52.408050745, 96.390, 691.0, 26.2869
52.434311310, 96.390, 719.0, 26.8142
52.460571876, 96.390, 680.0, 26.0768
52.486832441, 96.390, 684.0, 26.1534
52.513093007, 96.390, 699.0, 26.4386
52.539353572, 96.390, 682.0, 26.1151
52.565614137, 96.390, 728.0, 26.9815
52.591874703, 96.390, 678.0, 26.0384
52.618135268, 96.390, 653.0, 25.5539
52.644395833, 96.390, 692.0, 26.3059
52.670656399, 96.390, 720.0, 26.8328
52.696916964, 96.390, 714.0, 26.7208
52.723177529, 96.390, 670.0, 25.8844
52.749438095, 96.390, 688.0, 26.2298
52.775698660, 96.390, 661.0, 25.7099
52.801959225, 96.390, 667.0, 25.8263
52.828219791, 96.390, 706.0, 26.5707
52.854480356, 96.390, 716.0, 26.7582
52.880740922, 96.390, 701.0, 26.4764
52.907001487, 96.390, 726.0, 26.9444
52.933262052, 96.390, 720.0, 26.8328
52.959522618, 96.390, 734.0, 27.0924
52.985783183, 96.390, 699.0, 26.4386
53.012043748, 96.390, 705.0, 26.5518
53.038304314, 96.390, 698.0, 26.4197
53.064564879, 96.390, 697.0, 26.4008
53.090825444, 96.390, 690.0, 26.2679
53.117086010, 96.390, 674.0, 25.9615
53.143346575, 96.390, 708.0, 26.6083
53.169607140, 96.390, 654.0, 25.5734
53.195867706, 96.390, 691.0, 26.2869
53.222128271, 96.390, 728.0, 26.9815
53.248388836, 96.390, 674.0, 25.9615
53.274649402, 96.390, 651.0, 25.5147
53.300909967, 96.390, 744.0, 27.2764
53.327170533, 96.390, 670.0, 25.8844
53.353431098, 96.390, 698.0, 26.4197
53.379691663, 96.390, 684.0, 26.1534
53.405952229, 96.390, 729.0, 27.0000
53.432212794, 96.390, 723.0, 26.8887
53.458473359, 96.390, 680.0, 26.0768
53.484733925, 96.390, 704.0, 26.5330
53.510994490, 96.390, 681.0, 26.0960
53.537255055, 96.390, 664.0, 25.7682
53.563515621, 96.390, 696.0, 26.3818
53.589776186, 96.390, 664.0, 25.7682
53.616036751, 96.390, 648.0, 25.4558
53.642297317, 96.390, 754.0, 27.4591
53.668557882, 96.390, 695.0, 26.3629
53.694818448, 96.390, 689.0, 26.2488
53.721079013, 96.390, 668.0, 25.8457
53.747339578, 96.390, 702.0, 26.4953
53.773600144, 96.390, 655.0, 25.5930
53.799860709, 96.390, 672.0, 25.9230
53.826121274, 96.390, 686.0, 26.1916
53.852381840, 96.390, 651.0, 25.5147
53.878642405, 96.390, 732.0, 27.0555
53.904902970, 96.390, 635.0, 25.1992
53.931163536, 96.390, 638.0, 25.2587
53.957424101, 96.390, 675.0, 25.9808
53.983684666, 96.390, 699.0, 26.4386
54.009945232, 96.390, 683.0, 26.1343
54.036205797, 96.390, 652.0, 25.5343
54.062466362, 96.390, 720.0, 26.8328
54.088726928, 96.390, 665.0, 25.7876
54.114987493, 96.390, 716.0, 26.7582
54.141248059, 96.390, 679.0, 26.0576
54.167508624, 96.390, 680.0, 26.0768
54.193769189, 96.390, 728.0, 26.9815
54.220029755, 96.390, 695.0, 26.3629
54.246290320, 96.390, 656.0, 25.6125
54.272550885, 96.390, 710.0, 26.6458
54.298811451, 96.390, 691.0, 26.2869
54.325072016, 96.390, 662.0, 25.7294
54.351332581, 96.390, 658.0, 25.6515
54.377593147, 96.390, 682.0, 26.1151
54.403853712, 96.390, 655.0, 25.5930
54.430114277, 96.390, 636.0, 25.2190
54.456374843, 96.390, 683.0, 26.1343
54.482635408, 96.390, 675.0, 25.9808
54.508895973, 96.390, 662.0, 25.7294
54.535156539, 96.390, 638.0, 25.2587
54.561417104, 96.390, 651.0, 25.5147
54.587677670, 96.390, 664.0, 25.7682
54.613938235, 96.390, 621.0, 24.9199
54.640198800, 96.390, 728.0, 26.9815
54.666459366, 96.390, 737.0, 27.1477
54.692719931, 96.390, 737.0, 27.1477
54.718980496, 96.390, 710.0, 26.6458
54.745241062, 96.390, 664.0, 25.7682
54.771501627, 96.390, 699.0, 26.4386
54.797762192, 96.390, 724.0, 26.9072
54.824022758, 96.390, 673.0, 25.9422
54.850283323, 96.390, 673.0, 25.9422
54.876543888, 96.390, 689.0, 26.2488
54.902804454, 96.390, 648.0, 25.4558
54.929065019, 96.390, 690.0, 26.2679
54.955325585, 96.390, 702.0, 26.4953
54.981586150, 96.390, 675.0, 25.9808
55.007846715, 96.390, 674.0, 25.9615
55.034107281, 96.390, 669.0, 25.8650
55.060367846, 96.390, 669.0, 25.8650
55.086628411, 96.390, 691.0, 26.2869
55.112888977, 96.390, 724.0, 26.9072
55.139149542, 96.390, 665.0, 25.7876
55.165410107, 96.390, 703.0, 26.5141
55.191670673, 96.390, 669.0, 25.8650
55.217931238, 96.390, 684.0, 26.1534
55.244191803, 96.390, 693.0, 26.3249
55.270452369, 96.390, 660.0, 25.6905
55.296712934, 96.390, 699.0, 26.4386
55.322973499, 96.390, 675.0, 25.9808
55.349234065, 96.390, 705.0, 26.5518
55.375494630, 96.390, 701.0, 26.4764
55.401755196, 96.390, 709.0, 26.6271
55.428015761, 96.390, 681.0, 26.0960
55.454276326, 96.390, 677.0, 26.0192
55.480536892, 96.390, 707.0, 26.5895
55.506797457, 96.390, 714.0, 26.7208
55.533058022, 96.390, 661.0, 25.7099
55.559318588, 96.390, 640.0, 25.2982
55.585579153, 96.390, 660.0, 25.6905
55.611839718, 96.390, 651.0, 25.5147
55.638100284, 96.390, 696.0, 26.3818
55.664360849, 96.390, 669.0, 25.8650
55.690621414, 96.390, 688.0, 26.2298
55.716881980, 96.390, 729.0, 27.0000
55.743142545, 96.390, 686.0, 26.1916
55.769403111, 96.390, 665.0, 25.7876
55.795663676, 96.390, 656.0, 25.6125
55.821924241, 96.390, 658.0, 25.6515
55.848184807, 96.390, 703.0, 26.5141
55.874445372, 96.390, 671.0, 25.9037
55.900705937, 96.390, 635.0, 25.1992
55.926966503, 96.390, 685.0, 26.1725
55.953227068, 96.390, 649.0, 25.4755
55.979487633, 96.390, 666.0, 25.8070
56.005748199, 96.390, 720.0, 26.8328
56.032008764, 96.390, 726.0, 26.9444
56.058269329, 96.390, 700.0, 26.4575
56.084529895, 96.390, 672.0, 25.9230
56.110790460, 96.390, 694.0, 26.3439
56.137051025, 96.390, 682.0, 26.1151
56.163311591, 96.390, 734.0, 27.0924
56.189572156, 96.390, 704.0, 26.5330
56.215832722, 96.390, 728.0, 26.9815
56.242093287, 96.390, 663.0, 25.7488
56.268353852, 96.390, 704.0, 26.5330
56.294614418, 96.390, 674.0, 25.9615
56.320874983, 96.390, 669.0, 25.8650
56.347135548, 96.390, 682.0, 26.1151
56.373396114, 96.390, 691.0, 26.2869
56.399656679, 96.390, 682.0, 26.1151
56.425917244, 96.390, 687.0, 26.2107
56.452177810, 96.390, 635.0, 25.1992
56.478438375, 96.390, 665.0, 25.7876
56.504698940, 96.390, 692.0, 26.3059
56.530959506, 96.390, 692.0, 26.3059
56.557220071, 96.390, 693.0, 26.3249
56.583480637, 96.390, 689.0, 26.2488
56.609741202, 96.390, 658.0, 25.6515
56.636001767, 96.390, 704.0, 26.5330
56.662262333, 96.390, 658.0, 25.6515
56.688522898, 96.390, 678.0, 26.0384
56.714783463, 96.390, 663.0, 25.7488
56.741044029, 96.390, 691.0, 26.2869
56.767304594, 96.390, 674.0, 25.9615
56.793565159, 96.390, 728.0, 26.9815
56.819825725, 96.390, 721.0, 26.8514
56.846086290, 96.390, 697.0, 26.4008
56.872346855, 96.390, 663.0, 25.7488
56.898607421, 96.390, 716.0, 26.7582
56.924867986, 96.390, 699.0, 26.4386
56.951128551, 96.390, 693.0, 26.3249
56.977389117, 96.390, 703.0, 26.5141
57.003649682, 96.390, 732.0, 27.0555
57.029910248, 96.390, 739.0, 27.1846
57.056170813, 96.390, 641.0, 25.3180
57.082431378, 96.390, 693.0, 26.3249
57.108691944, 96.390, 705.0, 26.5518
57.134952509, 96.390, 670.0, 25.8844
57.161213074, 96.390, 672.0, 25.9230
57.187473640, 96.390, 683.0, 26.1343
57.213734205, 96.390, 695.0, 26.3629
57.239994770, 96.390, 674.0, 25.9615
57.266255336, 96.390, 657.0, 25.6320
57.292515901, 96.390, 648.0, 25.4558
57.318776466, 96.390, 693.0, 26.3249
57.345037032, 96.390, 665.0, 25.7876
57.371297597, 96.390, 697.0, 26.4008
57.397558163, 96.390, 677.0, 26.0192
57.423818728, 96.390, 664.0, 25.7682
57.450079293, 96.390, 662.0, 25.7294
57.476339859, 96.390, 685.0, 26.1725
57.502600424, 96.390, 680.0, 26.0768
57.528860989, 96.390, 675.0, 25.9808
57.555121555, 96.390, 663.0, 25.7488
57.581382120, 96.390, 656.0, 25.6125
57.607642685, 96.390, 653.0, 25.5539
57.633903251, 96.390, 721.0, 26.8514
57.660163816, 96.390, 667.0, 25.8263
57.686424381, 96.390, 685.0, 26.1725
57.712684947, 96.390, 673.0, 25.9422
57.738945512, 96.390, 710.0, 26.6458
57.765206077, 96.390, 625.0, 25.0000
57.791466643, 96.390, 663.0, 25.7488
57.817727208, 96.390, 677.0, 26.0192
57.843987774, 96.390, 695.0, 26.3629
57.870248339, 96.390, 694.0, 26.3439
57.896508904, 96.390, 671.0, 25.9037
57.922769470, 96.390, 736.0, 27.1293
57.949030035, 96.390, 674.0, 25.9615
57.975290600, 96.390, 665.0, 25.7876
58.001551166, 96.390, 662.0, 25.7294
58.027811731, 96.390, 660.0, 25.6905
58.054072296, 96.390, 659.0, 25.6710
58.080332862, 96.390, 704.0, 26.5330
58.106593427, 96.390, 689.0, 26.2488
58.132853992, 96.390, 678.0, 26.0384
58.159114558, 96.390, 680.0, 26.0768
58.185375123, 96.390, 688.0, 26.2298
58.211635689, 96.390, 663.0, 25.7488
58.237896254, 96.390, 647.0, 25.4362
58.264156819, 96.390, 648.0, 25.4558
58.290417385, 96.390, 677.0, 26.0192
58.316677950, 96.390, 686.0, 26.1916
58.342938515, 96.390, 700.0, 26.4575
58.369199081, 96.390, 686.0, 26.1916
58.395459646, 96.390, 657.0, 25.6320
58.421720211, 96.390, 710.0, 26.6458
58.447980777, 96.390, 671.0, 25.9037
58.474241342, 96.390, 647.0, 25.4362
58.500501907, 96.390, 666.0, 25.8070
58.526762473, 96.390, 610.0, 24.6982
58.553023038, 96.390, 628.0, 25.0599
58.579283603, 96.390, 706.0, 26.5707
58.605544169, 96.390, 703.0, 26.5141
58.631804734, 96.390, 661.0, 25.7099
58.658065300, 96.390, 647.0, 25.4362
58.684325865, 96.390, 719.0, 26.8142
58.710586430, 96.390, 703.0, 26.5141
58.736846996, 96.390, 637.0, 25.2389
58.763107561, 96.390, 660.0, 25.6905
58.789368126, 96.390, 650.0, 25.4951
58.815628692, 96.390, 648.0, 25.4558
58.841889257, 96.390, 685.0, 26.1725
58.868149822, 96.390, 660.0, 25.6905
58.894410388, 96.390, 640.0, 25.2982
58.920670953, 96.390, 686.0, 26.1916
58.946931518, 96.390, 679.0, 26.0576
58.973192084, 96.390, 682.0, 26.1151
58.999452649, 96.390, 653.0, 25.5539
59.025713214, 96.390, 692.0, 26.3059
59.051973780, 96.390, 645.0, 25.3969
59.078234345, 96.390, 691.0, 26.2869
59.104494911, 96.390, 674.0, 25.9615
59.130755476, 96.390, 701.0, 26.4764
59.157016041, 96.390, 669.0, 25.8650
59.183276607, 96.390, 687.0, 26.2107
59.209537172, 96.390, 656.0, 25.6125
59.235797737, 96.390, 661.0, 25.7099
59.262058303, 96.390, 681.0, 26.0960
59.288318868, 96.390, 683.0, 26.1343
59.314579433, 96.390, 711.0, 26.6646
59.340839999, 96.390, 707.0, 26.5895
59.367100564, 96.390, 667.0, 25.8263
59.393361129, 96.390, 712.0, 26.6833
59.419621695, 96.390, 699.0, 26.4386
59.445882260, 96.390, 690.0, 26.2679
59.472142826, 96.390, 676.0, 26.0000
59.498403391, 96.390, 698.0, 26.4197
59.524663956, 96.390, 685.0, 26.1725
59.550924522, 96.390, 686.0, 26.1916
59.577185087, 96.390, 671.0, 25.9037
59.603445652, 96.390, 702.0, 26.4953
59.629706218, 96.390, 616.0, 24.8193
59.655966783, 96.390, 694.0, 26.3439
59.682227348, 96.390, 673.0, 25.9422
59.708487914, 96.390, 681.0, 26.0960
59.734748479, 96.390, 705.0, 26.5518
59.761009044, 96.390, 686.0, 26.1916
59.787269610, 96.390, 702.0, 26.4953
59.813530175, 96.390, 711.0, 26.6646
59.839790740, 96.390, 715.0, 26.7395
59.866051306, 96.390, 664.0, 25.7682
59.892311871, 96.390, 658.0, 25.6515
59.918572437, 96.390, 699.0, 26.4386
59.944833002, 96.390, 658.0, 25.6515
59.971093567, 96.390, 687.0, 26.2107
59.997354133, 96.390, 681.0, 26.0960
60.023614698, 96.390, 731.0, 27.0370
60.049875263, 96.390, 632.0, 25.1396
60.076135829, 96.390, 684.0, 26.1534
60.102396394, 96.390, 738.0, 27.1662
60.128656959, 96.390, 685.0, 26.1725
60.154917525, 96.390, 732.0, 27.0555
60.181178090, 96.390, 646.0, 25.4165
60.207438655, 96.390, 667.0, 25.8263
60.233699221, 96.390, 700.0, 26.4575
60.259959786, 96.390, 710.0, 26.6458
60.286220352, 96.390, 708.0, 26.6083
60.312480917, 96.390, 714.0, 26.7208
60.338741482, 96.390, 673.0, 25.9422
60.365002048, 96.390, 694.0, 26.3439
60.391262613, 96.390, 656.0, 25.6125
60.417523178, 96.390, 688.0, 26.2298
60.443783744, 96.390, 686.0, 26.1916
60.470044309, 96.390, 592.0, 24.3311
60.496304874, 96.390, 703.0, 26.5141
60.522565440, 96.390, 670.0, 25.8844
60.548826005, 96.390, 634.0, 25.1794
60.575086570, 96.390, 679.0, 26.0576
60.601347136, 96.390, 720.0, 26.8328
60.627607701, 96.390, 713.0, 26.7021
60.653868266, 96.390, 658.0, 25.6515
60.680128832, 96.390, 683.0, 26.1343
60.706389397, 96.390, 702.0, 26.4953
60.732649963, 96.390, 683.0, 26.1343
60.758910528, 96.390, 656.0, 25.6125
60.785171093, 96.390, 694.0, 26.3439
60.811431659, 96.390, 647.0, 25.4362
60.837692224, 96.390, 665.0, 25.7876
60.863952789, 96.390, 677.0, 26.0192
60.890213355, 96.390, 672.0, 25.9230
60.916473920, 96.390, 679.0, 26.0576
60.942734485, 96.390, 670.0, 25.8844
60.968995051, 96.390, 667.0, 25.8263
60.995255616, 96.390, 655.0, 25.5930
61.021516181, 96.390, 654.0, 25.5734
61.047776747, 96.390, 662.0, 25.7294
61.074037312, 96.390, 711.0, 26.6646
61.100297878, 96.390, 671.0, 25.9037
61.126558443, 96.390, 682.0, 26.1151
61.152819008, 96.390, 698.0, 26.4197
61.179079574, 96.390, 701.0, 26.4764
61.205340139, 96.390, 696.0, 26.3818
61.231600704, 96.390, 673.0, 25.9422
61.257861270, 96.390, 665.0, 25.7876
61.284121835, 96.390, 670.0, 25.8844
61.310382400, 96.390, 690.0, 26.2679
61.336642966, 96.390, 673.0, 25.9422
61.362903531, 96.390, 711.0, 26.6646
61.389164096, 96.390, 682.0, 26.1151
61.415424662, 96.390, 698.0, 26.4197
61.441685227, 96.390, 702.0, 26.4953
61.467945792, 96.390, 702.0, 26.4953
61.494206358, 96.390, 674.0, 25.9615
61.520466923, 96.390, 695.0, 26.3629
61.546727489, 96.390, 670.0, 25.8844
61.572988054, 96.390, 672.0, 25.9230
61.599248619, 96.390, 698.0, 26.4197
61.625509185, 96.390, 691.0, 26.2869
61.651769750, 96.390, 712.0, 26.6833
61.678030315, 96.390, 676.0, 26.0000
61.704290881, 96.390, 682.0, 26.1151
61.730551446, 96.390, 657.0, 25.6320
61.756812011, 96.390, 629.0, 25.0799
61.783072577, 96.390, 721.0, 26.8514
61.809333142, 96.390, 669.0, 25.8650
61.835593707, 96.390, 689.0, 26.2488
61.861854273, 96.390, 680.0, 26.0768
61.888114838, 96.390, 694.0, 26.3439
61.914375404, 96.390, 665.0, 25.7876
61.940635969, 96.390, 714.0, 26.7208
61.966896534, 96.390, 672.0, 25.9230
61.993157100, 96.390, 671.0, 25.9037
62.019417665, 96.390, 685.0, 26.1725
62.045678230, 96.390, 705.0, 26.5518
62.071938796, 96.390, 700.0, 26.4575
62.098199361, 96.390, 730.0, 27.0185
62.124459926, 96.390, 710.0, 26.6458
62.150720492, 96.390, 715.0, 26.7395
62.176981057, 96.390, 725.0, 26.9258
62.203241622, 96.390, 658.0, 25.6515
62.229502188, 96.390, 675.0, 25.9808
62.255762753, 96.390, 697.0, 26.4008
62.282023318, 96.390, 696.0, 26.3818
62.308283884, 96.390, 687.0, 26.2107
62.334544449, 96.390, 658.0, 25.6515
62.360805015, 96.390, 703.0, 26.5141
62.387065580, 96.390, 706.0, 26.5707
62.413326145, 96.390, 690.0, 26.2679
62.439586711, 96.390, 663.0, 25.7488
62.465847276, 96.390, 663.0, 25.7488
62.492107841, 96.390, 705.0, 26.5518
62.518368407, 96.390, 654.0, 25.5734
62.544628972, 96.390, 699.0, 26.4386
62.570889537, 96.390, 652.0, 25.5343
62.597150103, 96.390, 649.0, 25.4755
62.623410668, 96.390, 687.0, 26.2107
62.649671233, 96.390, 737.0, 27.1477
62.675931799, 96.390, 694.0, 26.3439
62.702192364, 96.390, 747.0, 27.3313
62.728452930, 96.390, 700.0, 26.4575
62.754713495, 96.390, 723.0, 26.8887
62.780974060, 96.390, 677.0, 26.0192
62.807234626, 96.390, 679.0, 26.0576
62.833495191, 96.390, 685.0, 26.1725
62.859755756, 96.390, 689.0, 26.2488
62.886016322, 96.390, 725.0, 26.9258
62.912276887, 96.390, 695.0, 26.3629
62.938537452, 96.390, 691.0, 26.2869
62.964798018, 96.390, 741.0, 27.2213
62.991058583, 96.390, 716.0, 26.7582
63.017319148, 96.390, 751.0, 27.4044
63.043579714, 96.390, 672.0, 25.9230
63.069840279, 96.390, 644.0, 25.3772
63.096100844, 96.390, 660.0, 25.6905
63.122361410, 96.390, 682.0, 26.1151
63.148621975, 96.390, 708.0, 26.6083
63.174882541, 96.390, 654.0, 25.5734
63.201143106, 96.390, 647.0, 25.4362
63.227403671, 96.390, 680.0, 26.0768
63.253664237, 96.390, 671.0, 25.9037
63.279924802, 96.390, 686.0, 26.1916
63.306185367, 96.390, 660.0, 25.6905
63.332445933, 96.390, 716.0, 26.7582
63.358706498, 96.390, 699.0, 26.4386
63.384967063, 96.390, 647.0, 25.4362
63.411227629, 96.390, 695.0, 26.3629
63.437488194, 96.390, 671.0, 25.9037
63.463748759, 96.390, 657.0, 25.6320
63.490009325, 96.390, 678.0, 26.0384
63.516269890, 96.390, 711.0, 26.6646
63.542530455, 96.390, 668.0, 25.8457
63.568791021, 96.390, 668.0, 25.8457
63.595051586, 96.390, 653.0, 25.5539
63.621312152, 96.390, 695.0, 26.3629
63.647572717, 96.390, 690.0, 26.2679
63.673833282, 96.390, 759.0, 27.5500
63.700093848, 96.390, 662.0, 25.7294
63.726354413, 96.390, 655.0, 25.5930
63.752614978, 96.390, 710.0, 26.6458
63.778875544, 96.390, 714.0, 26.7208
63.805136109, 96.390, 692.0, 26.3059
63.831396674, 96.390, 655.0, 25.5930
63.857657240, 96.390, 690.0, 26.2679
63.883917805, 96.390, 700.0, 26.4575
63.910178370, 96.390, 713.0, 26.7021
63.936438936, 96.390, 645.0, 25.3969
63.962699501, 96.390, 648.0, 25.4558
63.988960067, 96.390, 683.0, 26.1343
64.015220632, 96.390, 670.0, 25.8844
64.041481197, 96.390, 662.0, 25.7294
64.067741763, 96.390, 674.0, 25.9615
64.094002328, 96.390, 678.0, 26.0384
64.120262893, 96.390, 723.0, 26.8887
64.146523459, 96.390, 682.0, 26.1151
64.172784024, 96.390, 688.0, 26.2298
64.199044589, 96.390, 705.0, 26.5518
64.225305155, 96.390, 673.0, 25.9422
64.251565720, 96.390, 704.0, 26.5330
64.277826285, 96.390, 657.0, 25.6320
64.304086851, 96.390, 634.0, 25.1794
64.330347416, 96.390, 699.0, 26.4386
64.356607981, 96.390, 699.0, 26.4386
64.382868547, 96.390, 683.0, 26.1343
64.409129112, 96.390, 687.0, 26.2107
64.435389678, 96.390, 649.0, 25.4755
64.461650243, 96.390, 674.0, 25.9615
64.487910808, 96.390, 659.0, 25.6710
64.514171374, 96.390, 704.0, 26.5330
64.540431939, 96.390, 685.0, 26.1725
64.566692504, 96.390, 650.0, 25.4951
64.592953070, 96.390, 660.0, 25.6905
64.619213635, 96.390, 668.0, 25.8457
64.645474200, 96.390, 700.0, 26.4575
64.671734766, 96.390, 663.0, 25.7488
64.697995331, 96.390, 688.0, 26.2298
64.724255896, 96.390, 677.0, 26.0192
64.750516462, 96.390, 683.0, 26.1343
64.776777027, 96.390, 689.0, 26.2488
64.803037593, 96.390, 659.0, 25.6710
64.829298158, 96.390, 647.0, 25.4362
64.855558723, 96.390, 716.0, 26.7582
64.881819289, 96.390, 668.0, 25.8457
64.908079854, 96.390, 645.0, 25.3969
64.934340419, 96.390, 691.0, 26.2869
64.960600985, 96.390, 636.0, 25.2190
64.986861550, 96.390, 649.0, 25.4755
