[Measurement conditions]
Sample identification,PO4-Free_07Mar23
Comment - 1,"Configuration=Stage for Flat Samples/Holders, Owner=User-1, Creation date=7/1/2020 9:53:24 AM"
Comment - 2,"Goniometer=Theta/Theta; Minimum step size 2Theta:0.0001; Minimum step size Omega:0.0001"
Comment - 3,"Sample stage=Stage for flat samples/holders"
Comment - 4,"Diffractometer system=EMPYREAN"
Comment - 5,"Measurement program=C:\Users\tmr79\OneDrive - The Pennsylvania State University\Documents\NEUP\XRD\Cement\Zerobackground scan.xrdmp, Identifier={98A3B11C-88F9-4AA6-982C-73314A311EF5}"
Anode material,Cu
K-Alpha1 wavelength,1.5405980
K-Alpha2 wavelength,1.5444260
Ratio K-Alpha2/K-Alpha1,0.500
Divergence slit,Fixed,0.25
Monochromator used,NO
Generator voltage, 45
Tube current, 40
File date and time,23/May/2023 09:43
Unit cell,
h k l, 0 0 0
Scan axis,Gonio
Scan range,4.994599997,64.999991833
Scan step size,0.0262606
No. of points, 2285
Scan type,CONTINUOUS
Time per step,96.390
[Scan points]
Angle, TimePerStep, Intensity, ESD
5.007730280, 96.390, 5106.0, 71.4563
5.033990845, 96.390, 5094.0, 71.3723
5.060251411, 96.390, 4926.0, 70.1855
5.086511976, 96.390, 4959.0, 70.4202
5.112772541, 96.390, 4855.0, 69.6778
5.139033107, 96.390, 4875.0, 69.8212
5.165293672, 96.390, 4803.0, 69.3037
5.191554237, 96.390, 4543.0, 67.4018
5.217814803, 96.390, 4692.0, 68.4982
5.244075368, 96.390, 4737.0, 68.8259
5.270335934, 96.390, 4509.0, 67.1491
5.296596499, 96.390, 4629.0, 68.0368
5.322857064, 96.390, 4533.0, 67.3276
5.349117630, 96.390, 4455.0, 66.7458
5.375378195, 96.390, 4484.0, 66.9627
5.401638760, 96.390, 4464.0, 66.8132
5.427899326, 96.390, 4349.0, 65.9469
5.454159891, 96.390, 4284.0, 65.4523
5.480420456, 96.390, 4302.0, 65.5896
5.506681022, 96.390, 4203.0, 64.8305
5.532941587, 96.390, 4212.0, 64.8999
5.559202152, 96.390, 4163.0, 64.5213
5.585462718, 96.390, 4134.0, 64.2962
5.611723283, 96.390, 4069.0, 63.7887
5.637983849, 96.390, 4172.0, 64.5910
5.664244414, 96.390, 4028.0, 63.4665
5.690504979, 96.390, 4036.0, 63.5295
5.716765545, 96.390, 3958.0, 62.9126
5.743026110, 96.390, 3938.0, 62.7535
5.769286675, 96.390, 4048.0, 63.6239
5.795547241, 96.390, 3924.0, 62.6418
5.821807806, 96.390, 3937.0, 62.7455
5.848068371, 96.390, 3766.0, 61.3677
5.874328937, 96.390, 3780.0, 61.4817
5.900589502, 96.390, 3905.0, 62.4900
5.926850067, 96.390, 3881.0, 62.2977
5.953110633, 96.390, 3785.0, 61.5224
5.979371198, 96.390, 3714.0, 60.9426
6.005631763, 96.390, 3814.0, 61.7576
6.031892329, 96.390, 3744.0, 61.1882
6.058152894, 96.390, 3694.0, 60.7783
6.084413460, 96.390, 3625.0, 60.2080
6.110674025, 96.390, 3683.0, 60.6877
6.136934590, 96.390, 3620.0, 60.1664
6.163195156, 96.390, 3518.0, 59.3127
6.189455721, 96.390, 3592.0, 59.9333
6.215716286, 96.390, 3633.0, 60.2744
6.241976852, 96.390, 3597.0, 59.9750
6.268237417, 96.390, 3529.0, 59.4054
6.294497982, 96.390, 3534.0, 59.4475
6.320758548, 96.390, 3379.0, 58.1292
6.347019113, 96.390, 3563.0, 59.6909
6.373279678, 96.390, 3509.0, 59.2368
6.399540244, 96.390, 3525.0, 59.3717
6.425800809, 96.390, 3323.0, 57.6455
6.452061375, 96.390, 3371.0, 58.0603
6.478321940, 96.390, 3426.0, 58.5320
6.504582505, 96.390, 3444.0, 58.6856
6.530843071, 96.390, 3322.0, 57.6368
6.557103636, 96.390, 3323.0, 57.6455
6.583364201, 96.390, 3444.0, 58.6856
6.609624767, 96.390, 3336.0, 57.7581
6.635885332, 96.390, 3282.0, 57.2887
6.662145897, 96.390, 3195.0, 56.5243
6.688406463, 96.390, 3246.0, 56.9737
6.714667028, 96.390, 3226.0, 56.7979
6.740927593, 96.390, 3239.0, 56.9122
6.767188159, 96.390, 3208.0, 56.6392
6.793448724, 96.390, 3257.0, 57.0701
6.819709289, 96.390, 3304.0, 57.4804
6.845969855, 96.390, 3099.0, 55.6687
6.872230420, 96.390, 3145.0, 56.0803
6.898490986, 96.390, 3087.0, 55.5608
6.924751551, 96.390, 3120.0, 55.8570
6.951012116, 96.390, 2995.0, 54.7266
6.977272682, 96.390, 2998.0, 54.7540
7.003533247, 96.390, 3116.0, 55.8211
7.029793812, 96.390, 3175.0, 56.3471
7.056054378, 96.390, 3027.0, 55.0182
7.082314943, 96.390, 3071.0, 55.4166
7.108575508, 96.390, 3077.0, 55.4707
7.134836074, 96.390, 3071.0, 55.4166
7.161096639, 96.390, 3093.0, 55.6147
7.187357204, 96.390, 3007.0, 54.8361
7.213617770, 96.390, 2993.0, 54.7083
7.239878335, 96.390, 2976.0, 54.5527
7.266138900, 96.390, 3011.0, 54.8726
7.292399466, 96.390, 2967.0, 54.4702
7.318660031, 96.390, 2864.0, 53.5164
7.344920597, 96.390, 2991.0, 54.6900
7.371181162, 96.390, 3001.0, 54.7814
7.397441727, 96.390, 2926.0, 54.0925
7.423702293, 96.390, 2997.0, 54.7449
7.449962858, 96.390, 2957.0, 54.3783
7.476223423, 96.390, 2929.0, 54.1202
7.502483989, 96.390, 3047.0, 55.1996
7.528744554, 96.390, 2792.0, 52.8394
7.555005119, 96.390, 2910.0, 53.9444
7.581265685, 96.390, 2843.0, 53.3198
7.607526250, 96.390, 2866.0, 53.5350
7.633786815, 96.390, 2806.0, 52.9717
7.660047381, 96.390, 2753.0, 52.4690
7.686307946, 96.390, 2837.0, 53.2635
7.712568512, 96.390, 2843.0, 53.3198
7.738829077, 96.390, 2779.0, 52.7162
7.765089642, 96.390, 2808.0, 52.9906
7.791350208, 96.390, 2760.0, 52.5357
7.817610773, 96.390, 2734.0, 52.2877
7.843871338, 96.390, 2829.0, 53.1883
7.870131904, 96.390, 2799.0, 52.9056
7.896392469, 96.390, 2701.0, 51.9711
7.922653034, 96.390, 2773.0, 52.6593
7.948913600, 96.390, 2844.0, 53.3292
7.975174165, 96.390, 2763.0, 52.5642
8.001434730, 96.390, 2760.0, 52.5357
8.027695296, 96.390, 2740.0, 52.3450
8.053955861, 96.390, 2744.0, 52.3832
8.080216426, 96.390, 2786.0, 52.7826
8.106476992, 96.390, 2746.0, 52.4023
8.132737557, 96.390, 2709.0, 52.0481
8.158998123, 96.390, 2583.0, 50.8232
8.185258688, 96.390, 2720.0, 52.1536
8.211519253, 96.390, 2666.0, 51.6333
8.237779819, 96.390, 2703.0, 51.9904
8.264040384, 96.390, 2808.0, 52.9906
8.290300949, 96.390, 2646.0, 51.4393
8.316561515, 96.390, 2624.0, 51.2250
8.342822080, 96.390, 2675.0, 51.7204
8.369082645, 96.390, 2593.0, 50.9215
8.395343211, 96.390, 2612.0, 51.1077
8.421603776, 96.390, 2616.0, 51.1468
8.447864341, 96.390, 2693.0, 51.8941
8.474124907, 96.390, 2659.0, 51.5655
8.500385472, 96.390, 2686.0, 51.8266
8.526646038, 96.390, 2571.0, 50.7050
8.552906603, 96.390, 2503.0, 50.0300
8.579167168, 96.390, 2618.0, 51.1664
8.605427734, 96.390, 2606.0, 51.0490
8.631688299, 96.390, 2519.0, 50.1896
8.657948864, 96.390, 2530.0, 50.2991
8.684209430, 96.390, 2498.0, 49.9800
8.710469995, 96.390, 2531.0, 50.3090
8.736730560, 96.390, 2532.0, 50.3190
8.762991126, 96.390, 2602.0, 51.0098
8.789251691, 96.390, 2526.0, 50.2593
8.815512256, 96.390, 2474.0, 49.7393
8.841772822, 96.390, 2560.0, 50.5964
8.868033387, 96.390, 2523.0, 50.2295
8.894293952, 96.390, 2566.0, 50.6557
8.920554518, 96.390, 2529.0, 50.2892
8.946815083, 96.390, 2390.0, 48.8876
8.973075649, 96.390, 2491.0, 49.9099
8.999336214, 96.390, 2502.0, 50.0200
9.025596779, 96.390, 2462.0, 49.6185
9.051857345, 96.390, 2512.0, 50.1199
9.078117910, 96.390, 2417.0, 49.1630
9.104378475, 96.390, 2375.0, 48.7340
9.130639041, 96.390, 2402.0, 49.0102
9.156899606, 96.390, 2493.0, 49.9300
9.183160171, 96.390, 2400.0, 48.9898
9.209420737, 96.390, 2455.0, 49.5480
9.235681302, 96.390, 2392.0, 48.9081
9.261941867, 96.390, 2422.0, 49.2138
9.288202433, 96.390, 2409.0, 49.0816
9.314462998, 96.390, 2439.0, 49.3862
9.340723564, 96.390, 2385.0, 48.8365
9.366984129, 96.390, 2464.0, 49.6387
9.393244694, 96.390, 2453.0, 49.5278
9.419505260, 96.390, 2421.0, 49.2037
9.445765825, 96.390, 2353.0, 48.5077
9.472026390, 96.390, 2461.0, 49.6085
9.498286956, 96.390, 2456.0, 49.5580
9.524547521, 96.390, 2330.0, 48.2701
9.550808086, 96.390, 2415.0, 49.1426
9.577068652, 96.390, 2321.0, 48.1768
9.603329217, 96.390, 2388.0, 48.8672
9.629589782, 96.390, 2341.0, 48.3839
9.655850348, 96.390, 2314.0, 48.1041
9.682110913, 96.390, 2282.0, 47.7703
9.708371478, 96.390, 2287.0, 47.8226
9.734632044, 96.390, 2320.0, 48.1664
9.760892609, 96.390, 2326.0, 48.2286
9.787153175, 96.390, 2267.0, 47.6130
9.813413740, 96.390, 2431.0, 49.3052
9.839674305, 96.390, 2293.0, 47.8853
9.865934871, 96.390, 2380.0, 48.7852
9.892195436, 96.390, 2367.0, 48.6518
9.918456001, 96.390, 2271.0, 47.6550
9.944716567, 96.390, 2329.0, 48.2597
9.970977132, 96.390, 2306.0, 48.0208
9.997237697, 96.390, 2255.0, 47.4868
10.023498263, 96.390, 2311.0, 48.0729
10.049758828, 96.390, 2336.0, 48.3322
10.076019393, 96.390, 2343.0, 48.4045
10.102279959, 96.390, 2302.0, 47.9792
10.128540524, 96.390, 2276.0, 47.7074
10.154801090, 96.390, 2248.0, 47.4131
10.181061655, 96.390, 2177.0, 46.6583
10.207322220, 96.390, 2252.0, 47.4552
10.233582786, 96.390, 2232.0, 47.2440
10.259843351, 96.390, 2254.0, 47.4763
10.286103916, 96.390, 2192.0, 46.8188
10.312364482, 96.390, 2293.0, 47.8853
10.338625047, 96.390, 2264.0, 47.5815
10.364885612, 96.390, 2204.0, 46.9468
10.391146178, 96.390, 2093.0, 45.7493
10.417406743, 96.390, 2257.0, 47.5079
10.443667308, 96.390, 2261.0, 47.5500
10.469927874, 96.390, 2214.0, 47.0532
10.496188439, 96.390, 2275.0, 47.6970
10.522449004, 96.390, 2197.0, 46.8722
10.548709570, 96.390, 2170.0, 46.5833
10.574970135, 96.390, 2200.0, 46.9042
10.601230701, 96.390, 2169.0, 46.5725
10.627491266, 96.390, 2218.0, 47.0956
10.653751831, 96.390, 2172.0, 46.6047
10.680012397, 96.390, 2212.0, 47.0319
10.706272962, 96.390, 2288.0, 47.8330
10.732533527, 96.390, 2205.0, 46.9574
10.758794093, 96.390, 2163.0, 46.5081
10.785054658, 96.390, 2159.0, 46.4650
10.811315223, 96.390, 2053.0, 45.3100
10.837575789, 96.390, 2120.0, 46.0435
10.863836354, 96.390, 2175.0, 46.6369
10.890096919, 96.390, 2149.0, 46.3573
10.916357485, 96.390, 2134.0, 46.1952
10.942618050, 96.390, 2159.0, 46.4650
10.968878616, 96.390, 2092.0, 45.7384
10.995139181, 96.390, 2100.0, 45.8258
11.021399746, 96.390, 2091.0, 45.7275
11.047660312, 96.390, 2182.0, 46.7119
11.073920877, 96.390, 2086.0, 45.6727
11.100181442, 96.390, 2103.0, 45.8585
11.126442008, 96.390, 2067.0, 45.4643
11.152702573, 96.390, 2190.0, 46.7974
11.178963138, 96.390, 2224.0, 47.1593
11.205223704, 96.390, 2099.0, 45.8148
11.231484269, 96.390, 2106.0, 45.8912
11.257744834, 96.390, 2046.0, 45.2327
11.284005400, 96.390, 2107.0, 45.9021
11.310265965, 96.390, 2132.0, 46.1736
11.336526530, 96.390, 2137.0, 46.2277
11.362787096, 96.390, 2008.0, 44.8107
11.389047661, 96.390, 2113.0, 45.9674
11.415308227, 96.390, 2026.0, 45.0111
11.441568792, 96.390, 2006.0, 44.7884
11.467829357, 96.390, 2123.0, 46.0760
11.494089923, 96.390, 2093.0, 45.7493
11.520350488, 96.390, 2114.0, 45.9783
11.546611053, 96.390, 2053.0, 45.3100
11.572871619, 96.390, 2032.0, 45.0777
11.599132184, 96.390, 2038.0, 45.1442
11.625392749, 96.390, 2038.0, 45.1442
11.651653315, 96.390, 2019.0, 44.9333
11.677913880, 96.390, 2051.0, 45.2880
11.704174445, 96.390, 2008.0, 44.8107
11.730435011, 96.390, 2006.0, 44.7884
11.756695576, 96.390, 2111.0, 45.9456
11.782956141, 96.390, 2039.0, 45.1553
11.809216707, 96.390, 1987.0, 44.5758
11.835477272, 96.390, 1980.0, 44.4972
11.861737838, 96.390, 2000.0, 44.7214
11.887998403, 96.390, 1946.0, 44.1135
11.914258968, 96.390, 1975.0, 44.4410
11.940519534, 96.390, 1965.0, 44.3283
11.966780099, 96.390, 1968.0, 44.3621
11.993040664, 96.390, 2022.0, 44.9667
12.019301230, 96.390, 2071.0, 45.5082
12.045561795, 96.390, 1931.0, 43.9431
12.071822360, 96.390, 2010.0, 44.8330
12.098082926, 96.390, 1987.0, 44.5758
12.124343491, 96.390, 2041.0, 45.1774
12.150604056, 96.390, 1913.0, 43.7379
12.176864622, 96.390, 1946.0, 44.1135
12.203125187, 96.390, 2045.0, 45.2217
12.229385753, 96.390, 1876.0, 43.3128
12.255646318, 96.390, 1962.0, 44.2945
12.281906883, 96.390, 1973.0, 44.4185
12.308167449, 96.390, 1969.0, 44.3734
12.334428014, 96.390, 1883.0, 43.3935
12.360688579, 96.390, 1930.0, 43.9318
12.386949145, 96.390, 1934.0, 43.9773
12.413209710, 96.390, 1857.0, 43.0929
12.439470275, 96.390, 1896.0, 43.5431
12.465730841, 96.390, 1936.0, 44.0000
12.491991406, 96.390, 1963.0, 44.3058
12.518251971, 96.390, 1897.0, 43.5546
12.544512537, 96.390, 1952.0, 44.1814
12.570773102, 96.390, 1868.0, 43.2204
12.597033667, 96.390, 1909.0, 43.6921
12.623294233, 96.390, 1954.0, 44.2041
12.649554798, 96.390, 2002.0, 44.7437
12.675815364, 96.390, 1954.0, 44.2041
12.702075929, 96.390, 1838.0, 42.8719
12.728336494, 96.390, 1920.0, 43.8178
12.754597060, 96.390, 1894.0, 43.5201
12.780857625, 96.390, 1907.0, 43.6692
12.807118190, 96.390, 1908.0, 43.6807
12.833378756, 96.390, 1872.0, 43.2666
12.859639321, 96.390, 1855.0, 43.0697
12.885899886, 96.390, 1847.0, 42.9767
12.912160452, 96.390, 1879.0, 43.3474
12.938421017, 96.390, 1929.0, 43.9204
12.964681582, 96.390, 1866.0, 43.1972
12.990942148, 96.390, 1828.0, 42.7551
13.017202713, 96.390, 1900.0, 43.5890
13.043463279, 96.390, 1807.0, 42.5088
13.069723844, 96.390, 1826.0, 42.7317
13.095984409, 96.390, 1879.0, 43.3474
13.122244975, 96.390, 1771.0, 42.0833
13.148505540, 96.390, 1826.0, 42.7317
13.174766105, 96.390, 1766.0, 42.0238
13.201026671, 96.390, 1847.0, 42.9767
13.227287236, 96.390, 1840.0, 42.8952
13.253547801, 96.390, 1841.0, 42.9069
13.279808367, 96.390, 1880.0, 43.3590
13.306068932, 96.390, 1778.0, 42.1663
13.332329497, 96.390, 1839.0, 42.8836
13.358590063, 96.390, 1924.0, 43.8634
13.384850628, 96.390, 1811.0, 42.5558
13.411111193, 96.390, 1823.0, 42.6966
13.437371759, 96.390, 1859.0, 43.1161
13.463632324, 96.390, 1902.0, 43.6119
13.489892890, 96.390, 1821.0, 42.6732
13.516153455, 96.390, 1889.0, 43.4626
13.542414020, 96.390, 1862.0, 43.1509
13.568674586, 96.390, 1809.0, 42.5323
13.594935151, 96.390, 1862.0, 43.1509
13.621195716, 96.390, 1852.0, 43.0349
13.647456282, 96.390, 1895.0, 43.5316
13.673716847, 96.390, 1777.0, 42.1545
13.699977412, 96.390, 1762.0, 41.9762
13.726237978, 96.390, 1771.0, 42.0833
13.752498543, 96.390, 1788.0, 42.2847
13.778759108, 96.390, 1769.0, 42.0595
13.805019674, 96.390, 1808.0, 42.5206
13.831280239, 96.390, 1837.0, 42.8602
13.857540805, 96.390, 1823.0, 42.6966
13.883801370, 96.390, 1851.0, 43.0232
13.910061935, 96.390, 1798.0, 42.4028
13.936322501, 96.390, 1900.0, 43.5890
13.962583066, 96.390, 1780.0, 42.1900
13.988843631, 96.390, 1756.0, 41.9047
14.015104197, 96.390, 1702.0, 41.2553
14.041364762, 96.390, 1791.0, 42.3202
14.067625327, 96.390, 1863.0, 43.1625
14.093885893, 96.390, 1766.0, 42.0238
14.120146458, 96.390, 1674.0, 40.9145
14.146407023, 96.390, 1744.0, 41.7612
14.172667589, 96.390, 1740.0, 41.7133
14.198928154, 96.390, 1744.0, 41.7612
14.225188719, 96.390, 1788.0, 42.2847
14.251449285, 96.390, 1742.0, 41.7373
14.277709850, 96.390, 1742.0, 41.7373
14.303970416, 96.390, 1761.0, 41.9643
14.330230981, 96.390, 1788.0, 42.2847
14.356491546, 96.390, 1759.0, 41.9404
14.382752112, 96.390, 1771.0, 42.0833
14.409012677, 96.390, 1714.0, 41.4005
14.435273242, 96.390, 1712.0, 41.3763
14.461533808, 96.390, 1680.0, 40.9878
14.487794373, 96.390, 1751.0, 41.8450
14.514054938, 96.390, 1723.0, 41.5090
14.540315504, 96.390, 1809.0, 42.5323
14.566576069, 96.390, 1810.0, 42.5441
14.592836634, 96.390, 1734.0, 41.6413
14.619097200, 96.390, 1670.0, 40.8656
14.645357765, 96.390, 1711.0, 41.3642
14.671618331, 96.390, 1740.0, 41.7133
14.697878896, 96.390, 1688.0, 41.0853
14.724139461, 96.390, 1796.0, 42.3792
14.750400027, 96.390, 1715.0, 41.4126
14.776660592, 96.390, 1671.0, 40.8779
14.802921157, 96.390, 1777.0, 42.1545
14.829181723, 96.390, 1707.0, 41.3159
14.855442288, 96.390, 1736.0, 41.6653
14.881702853, 96.390, 1792.0, 42.3320
14.907963419, 96.390, 1676.0, 40.9390
14.934223984, 96.390, 1733.0, 41.6293
14.960484549, 96.390, 1795.0, 42.3674
14.986745115, 96.390, 1742.0, 41.7373
15.013005680, 96.390, 1740.0, 41.7133
15.039266245, 96.390, 1619.0, 40.2368
15.065526811, 96.390, 1749.0, 41.8210
15.091787376, 96.390, 1733.0, 41.6293
15.118047942, 96.390, 1560.0, 39.4968
15.144308507, 96.390, 1724.0, 41.5211
15.170569072, 96.390, 1770.0, 42.0714
15.196829638, 96.390, 1700.0, 41.2311
15.223090203, 96.390, 1741.0, 41.7253
15.249350768, 96.390, 1725.0, 41.5331
15.275611334, 96.390, 1693.0, 41.1461
15.301871899, 96.390, 1709.0, 41.3401
15.328132464, 96.390, 1739.0, 41.7013
15.354393030, 96.390, 1672.0, 40.8901
15.380653595, 96.390, 1682.0, 41.0122
15.406914160, 96.390, 1765.0, 42.0119
15.433174726, 96.390, 1657.0, 40.7063
15.459435291, 96.390, 1642.0, 40.5216
15.485695857, 96.390, 1604.0, 40.0500
15.511956422, 96.390, 1666.0, 40.8167
15.538216987, 96.390, 1676.0, 40.9390
15.564477553, 96.390, 1713.0, 41.3884
15.590738118, 96.390, 1704.0, 41.2795
15.616998683, 96.390, 1710.0, 41.3521
15.643259249, 96.390, 1647.0, 40.5832
15.669519814, 96.390, 1709.0, 41.3401
15.695780379, 96.390, 1667.0, 40.8289
15.722040945, 96.390, 1658.0, 40.7185
15.748301510, 96.390, 1613.0, 40.1622
15.774562075, 96.390, 1669.0, 40.8534
15.800822641, 96.390, 1654.0, 40.6694
15.827083206, 96.390, 1700.0, 41.2311
15.853343771, 96.390, 1655.0, 40.6817
15.879604337, 96.390, 1740.0, 41.7133
15.905864902, 96.390, 1619.0, 40.2368
15.932125468, 96.390, 1708.0, 41.3280
15.958386033, 96.390, 1693.0, 41.1461
15.984646598, 96.390, 1662.0, 40.7676
16.010907164, 96.390, 1689.0, 41.0974
16.037167729, 96.390, 1659.0, 40.7308
16.063428294, 96.390, 1800.0, 42.4264
16.089688860, 96.390, 1769.0, 42.0595
16.115949425, 96.390, 1710.0, 41.3521
16.142209990, 96.390, 1747.0, 41.7971
16.168470556, 96.390, 1697.0, 41.1947
16.194731121, 96.390, 1745.0, 41.7732
16.220991686, 96.390, 1703.0, 41.2674
16.247252252, 96.390, 1635.0, 40.4351
16.273512817, 96.390, 1684.0, 41.0366
16.299773382, 96.390, 1756.0, 41.9047
16.326033948, 96.390, 1681.0, 41.0000
16.352294513, 96.390, 1718.0, 41.4488
16.378555079, 96.390, 1705.0, 41.2916
16.404815644, 96.390, 1668.0, 40.8412
16.431076209, 96.390, 1718.0, 41.4488
16.457336775, 96.390, 1745.0, 41.7732
16.483597340, 96.390, 1722.0, 41.4970
16.509857905, 96.390, 1755.0, 41.8927
16.536118471, 96.390, 1645.0, 40.5586
16.562379036, 96.390, 1700.0, 41.2311
16.588639601, 96.390, 1630.0, 40.3733
16.614900167, 96.390, 1655.0, 40.6817
16.641160732, 96.390, 1723.0, 41.5090
16.667421297, 96.390, 1727.0, 41.5572
16.693681863, 96.390, 1755.0, 41.8927
16.719942428, 96.390, 1701.0, 41.2432
16.746202994, 96.390, 1651.0, 40.6325
16.772463559, 96.390, 1719.0, 41.4608
16.798724124, 96.390, 1733.0, 41.6293
16.824984690, 96.390, 1644.0, 40.5463
16.851245255, 96.390, 1753.0, 41.8688
16.877505820, 96.390, 1747.0, 41.7971
16.903766386, 96.390, 1718.0, 41.4488
16.930026951, 96.390, 1730.0, 41.5933
16.956287516, 96.390, 1727.0, 41.5572
16.982548082, 96.390, 1738.0, 41.6893
17.008808647, 96.390, 1721.0, 41.4849
17.035069212, 96.390, 1768.0, 42.0476
17.061329778, 96.390, 1703.0, 41.2674
17.087590343, 96.390, 1746.0, 41.7852
17.113850908, 96.390, 1771.0, 42.0833
17.140111474, 96.390, 1688.0, 41.0853
17.166372039, 96.390, 1742.0, 41.7373
17.192632605, 96.390, 1643.0, 40.5339
17.218893170, 96.390, 1713.0, 41.3884
17.245153735, 96.390, 1791.0, 42.3202
17.271414301, 96.390, 1791.0, 42.3202
17.297674866, 96.390, 1806.0, 42.4971
17.323935431, 96.390, 1682.0, 41.0122
17.350195997, 96.390, 1711.0, 41.3642
17.376456562, 96.390, 1755.0, 41.8927
17.402717127, 96.390, 1741.0, 41.7253
17.428977693, 96.390, 1778.0, 42.1663
17.455238258, 96.390, 1788.0, 42.2847
17.481498823, 96.390, 1752.0, 41.8569
17.507759389, 96.390, 1741.0, 41.7253
17.534019954, 96.390, 1734.0, 41.6413
17.560280520, 96.390, 1810.0, 42.5441
17.586541085, 96.390, 1880.0, 43.3590
17.612801650, 96.390, 1750.0, 41.8330
17.639062216, 96.390, 1726.0, 41.5452
17.665322781, 96.390, 1727.0, 41.5572
17.691583346, 96.390, 1751.0, 41.8450
17.717843912, 96.390, 1719.0, 41.4608
17.744104477, 96.390, 1736.0, 41.6653
17.770365042, 96.390, 1757.0, 41.9166
17.796625608, 96.390, 1787.0, 42.2729
17.822886173, 96.390, 1803.0, 42.4617
17.849146738, 96.390, 1849.0, 43.0000
17.875407304, 96.390, 1779.0, 42.1782
17.901667869, 96.390, 1773.0, 42.1070
17.927928434, 96.390, 1763.0, 41.9881
17.954189000, 96.390, 1834.0, 42.8252
17.980449565, 96.390, 1854.0, 43.0581
18.006710131, 96.390, 1903.0, 43.6234
18.032970696, 96.390, 1784.0, 42.2374
18.059231261, 96.390, 1813.0, 42.5793
18.085491827, 96.390, 1891.0, 43.4856
18.111752392, 96.390, 1908.0, 43.6807
18.138012957, 96.390, 1797.0, 42.3910
18.164273523, 96.390, 1788.0, 42.2847
18.190534088, 96.390, 1817.0, 42.6263
18.216794653, 96.390, 1820.0, 42.6615
18.243055219, 96.390, 1777.0, 42.1545
18.269315784, 96.390, 1820.0, 42.6615
18.295576349, 96.390, 1800.0, 42.4264
18.321836915, 96.390, 1903.0, 43.6234
18.348097480, 96.390, 1816.0, 42.6146
18.374358046, 96.390, 1898.0, 43.5660
18.400618611, 96.390, 1903.0, 43.6234
18.426879176, 96.390, 1815.0, 42.6028
18.453139742, 96.390, 1837.0, 42.8602
18.479400307, 96.390, 1791.0, 42.3202
18.505660872, 96.390, 1782.0, 42.2137
18.531921438, 96.390, 1904.0, 43.6348
18.558182003, 96.390, 1793.0, 42.3438
18.584442568, 96.390, 1863.0, 43.1625
18.610703134, 96.390, 1834.0, 42.8252
18.636963699, 96.390, 1886.0, 43.4281
18.663224264, 96.390, 1881.0, 43.3705
18.689484830, 96.390, 1930.0, 43.9318
18.715745395, 96.390, 1818.0, 42.6380
18.742005960, 96.390, 1941.0, 44.0568
18.768266526, 96.390, 1899.0, 43.5775
18.794527091, 96.390, 1889.0, 43.4626
18.820787657, 96.390, 1998.0, 44.6990
18.847048222, 96.390, 1982.0, 44.5197
18.873308787, 96.390, 1877.0, 43.3244
18.899569353, 96.390, 1931.0, 43.9431
18.925829918, 96.390, 1993.0, 44.6430
18.952090483, 96.390, 1961.0, 44.2832
18.978351049, 96.390, 1933.0, 43.9659
19.004611614, 96.390, 1977.0, 44.4635
19.030872179, 96.390, 1942.0, 44.0681
19.057132745, 96.390, 2026.0, 45.0111
19.083393310, 96.390, 1929.0, 43.9204
19.109653875, 96.390, 1938.0, 44.0227
19.135914441, 96.390, 2006.0, 44.7884
19.162175006, 96.390, 1994.0, 44.6542
19.188435572, 96.390, 1963.0, 44.3058
19.214696137, 96.390, 1994.0, 44.6542
19.240956702, 96.390, 1991.0, 44.6206
19.267217268, 96.390, 1957.0, 44.2380
19.293477833, 96.390, 1913.0, 43.7379
19.319738398, 96.390, 2058.0, 45.3652
19.345998964, 96.390, 2022.0, 44.9667
19.372259529, 96.390, 2067.0, 45.4643
19.398520094, 96.390, 2007.0, 44.7996
19.424780660, 96.390, 2053.0, 45.3100
19.451041225, 96.390, 1972.0, 44.4072
19.477301790, 96.390, 1971.0, 44.3959
19.503562356, 96.390, 2144.0, 46.3033
19.529822921, 96.390, 2069.0, 45.4863
19.556083486, 96.390, 1936.0, 44.0000
19.582344052, 96.390, 1962.0, 44.2945
19.608604617, 96.390, 2093.0, 45.7493
19.634865183, 96.390, 2045.0, 45.2217
19.661125748, 96.390, 2079.0, 45.5961
19.687386313, 96.390, 2138.0, 46.2385
19.713646879, 96.390, 2107.0, 45.9021
19.739907444, 96.390, 2073.0, 45.5302
19.766168009, 96.390, 2163.0, 46.5081
19.792428575, 96.390, 2039.0, 45.1553
19.818689140, 96.390, 2110.0, 45.9347
19.844949705, 96.390, 2230.0, 47.2229
19.871210271, 96.390, 2121.0, 46.0543
19.897470836, 96.390, 2051.0, 45.2880
19.923731401, 96.390, 2141.0, 46.2709
19.949991967, 96.390, 2268.0, 47.6235
19.976252532, 96.390, 2128.0, 46.1303
20.002513098, 96.390, 2173.0, 46.6154
20.028773663, 96.390, 2099.0, 45.8148
20.055034228, 96.390, 2108.0, 45.9130
20.081294794, 96.390, 2244.0, 47.3709
20.107555359, 96.390, 2204.0, 46.9468
20.133815924, 96.390, 2141.0, 46.2709
20.160076490, 96.390, 2135.0, 46.2061
20.186337055, 96.390, 2163.0, 46.5081
20.212597620, 96.390, 2096.0, 45.7821
20.238858186, 96.390, 2148.0, 46.3465
20.265118751, 96.390, 2124.0, 46.0869
20.291379316, 96.390, 2142.0, 46.2817
20.317639882, 96.390, 2230.0, 47.2229
20.343900447, 96.390, 2197.0, 46.8722
20.370161012, 96.390, 2234.0, 47.2652
20.396421578, 96.390, 2182.0, 46.7119
20.422682143, 96.390, 2302.0, 47.9792
20.448942709, 96.390, 2149.0, 46.3573
20.475203274, 96.390, 2158.0, 46.4543
20.501463839, 96.390, 2250.0, 47.4342
20.527724405, 96.390, 2195.0, 46.8508
20.553984970, 96.390, 2161.0, 46.4866
20.580245535, 96.390, 2212.0, 47.0319
20.606506101, 96.390, 2290.0, 47.8539
20.632766666, 96.390, 2197.0, 46.8722
20.659027231, 96.390, 2203.0, 46.9361
20.685287797, 96.390, 2232.0, 47.2440
20.711548362, 96.390, 2181.0, 46.7012
20.737808927, 96.390, 2343.0, 48.4045
20.764069493, 96.390, 2162.0, 46.4973
20.790330058, 96.390, 2344.0, 48.4149
20.816590623, 96.390, 2217.0, 47.0850
20.842851189, 96.390, 2286.0, 47.8121
20.869111754, 96.390, 2272.0, 47.6655
20.895372320, 96.390, 2285.0, 47.8017
20.921632885, 96.390, 2285.0, 47.8017
20.947893450, 96.390, 2305.0, 48.0104
20.974154016, 96.390, 2279.0, 47.7389
21.000414581, 96.390, 2265.0, 47.5920
21.026675146, 96.390, 2278.0, 47.7284
21.052935712, 96.390, 2201.0, 46.9148
21.079196277, 96.390, 2350.0, 48.4768
21.105456842, 96.390, 2331.0, 48.2804
21.131717408, 96.390, 2284.0, 47.7912
21.157977973, 96.390, 2337.0, 48.3425
21.184238538, 96.390, 2307.0, 48.0312
21.210499104, 96.390, 2324.0, 48.2079
21.236759669, 96.390, 2412.0, 49.1121
21.263020235, 96.390, 2335.0, 48.3218
21.289280800, 96.390, 2367.0, 48.6518
21.315541365, 96.390, 2334.0, 48.3115
21.341801931, 96.390, 2392.0, 48.9081
21.368062496, 96.390, 2350.0, 48.4768
21.394323061, 96.390, 2290.0, 47.8539
21.420583627, 96.390, 2341.0, 48.3839
21.446844192, 96.390, 2408.0, 49.0714
21.473104757, 96.390, 2316.0, 48.1248
21.499365323, 96.390, 2434.0, 49.3356
21.525625888, 96.390, 2380.0, 48.7852
21.551886453, 96.390, 2322.0, 48.1871
21.578147019, 96.390, 2373.0, 48.7134
21.604407584, 96.390, 2287.0, 47.8226
21.630668149, 96.390, 2275.0, 47.6970
21.656928715, 96.390, 2397.0, 48.9592
21.683189280, 96.390, 2326.0, 48.2286
21.709449846, 96.390, 2467.0, 49.6689
21.735710411, 96.390, 2351.0, 48.4871
21.761970976, 96.390, 2500.0, 50.0000
21.788231542, 96.390, 2240.0, 47.3286
21.814492107, 96.390, 2446.0, 49.4571
21.840752672, 96.390, 2417.0, 49.1630
21.867013238, 96.390, 2453.0, 49.5278
21.893273803, 96.390, 2380.0, 48.7852
21.919534368, 96.390, 2428.0, 49.2747
21.945794934, 96.390, 2397.0, 48.9592
21.972055499, 96.390, 2353.0, 48.5077
21.998316064, 96.390, 2376.0, 48.7442
22.024576630, 96.390, 2387.0, 48.8569
22.050837195, 96.390, 2340.0, 48.3735
22.077097761, 96.390, 2348.0, 48.4562
22.103358326, 96.390, 2363.0, 48.6107
22.129618891, 96.390, 2384.0, 48.8262
22.155879457, 96.390, 2400.0, 48.9898
22.182140022, 96.390, 2312.0, 48.0833
22.208400587, 96.390, 2299.0, 47.9479
22.234661153, 96.390, 2502.0, 50.0200
22.260921718, 96.390, 2422.0, 49.2138
22.287182283, 96.390, 2381.0, 48.7955
22.313442849, 96.390, 2316.0, 48.1248
22.339703414, 96.390, 2322.0, 48.1871
22.365963979, 96.390, 2313.0, 48.0937
22.392224545, 96.390, 2347.0, 48.4458
22.418485110, 96.390, 2315.0, 48.1144
22.444745675, 96.390, 2393.0, 48.9183
22.471006241, 96.390, 2337.0, 48.3425
22.497266806, 96.390, 2351.0, 48.4871
22.523527372, 96.390, 2336.0, 48.3322
22.549787937, 96.390, 2280.0, 47.7493
22.576048502, 96.390, 2385.0, 48.8365
22.602309068, 96.390, 2284.0, 47.7912
22.628569633, 96.390, 2410.0, 49.0918
22.654830198, 96.390, 2387.0, 48.8569
22.681090764, 96.390, 2273.0, 47.6760
22.707351329, 96.390, 2343.0, 48.4045
22.733611894, 96.390, 2291.0, 47.8644
22.759872460, 96.390, 2278.0, 47.7284
22.786133025, 96.390, 2374.0, 48.7237
22.812393590, 96.390, 2301.0, 47.9687
22.838654156, 96.390, 2394.0, 48.9285
22.864914721, 96.390, 2375.0, 48.7340
22.891175287, 96.390, 2322.0, 48.1871
22.917435852, 96.390, 2314.0, 48.1041
22.943696417, 96.390, 2337.0, 48.3425
22.969956983, 96.390, 2354.0, 48.5180
22.996217548, 96.390, 2379.0, 48.7750
23.022478113, 96.390, 2377.0, 48.7545
23.048738679, 96.390, 2312.0, 48.0833
23.074999244, 96.390, 2283.0, 47.7807
23.101259809, 96.390, 2454.0, 49.5379
23.127520375, 96.390, 2332.0, 48.2908
23.153780940, 96.390, 2299.0, 47.9479
23.180041505, 96.390, 2287.0, 47.8226
23.206302071, 96.390, 2339.0, 48.3632
23.232562636, 96.390, 2316.0, 48.1248
23.258823201, 96.390, 2336.0, 48.3322
23.285083767, 96.390, 2389.0, 48.8774
23.311344332, 96.390, 2336.0, 48.3322
23.337604898, 96.390, 2221.0, 47.1275
23.363865463, 96.390, 2246.0, 47.3920
23.390126028, 96.390, 2302.0, 47.9792
23.416386594, 96.390, 2253.0, 47.4658
23.442647159, 96.390, 2241.0, 47.3392
23.468907724, 96.390, 2378.0, 48.7647
23.495168290, 96.390, 2278.0, 47.7284
23.521428855, 96.390, 2363.0, 48.6107
23.547689420, 96.390, 2338.0, 48.3529
23.573949986, 96.390, 2200.0, 46.9042
23.600210551, 96.390, 2296.0, 47.9166
23.626471116, 96.390, 2230.0, 47.2229
23.652731682, 96.390, 2203.0, 46.9361
23.678992247, 96.390, 2219.0, 47.1063
23.705252813, 96.390, 2270.0, 47.6445
23.731513378, 96.390, 2249.0, 47.4236
23.757773943, 96.390, 2291.0, 47.8644
23.784034509, 96.390, 2248.0, 47.4131
23.810295074, 96.390, 2205.0, 46.9574
23.836555639, 96.390, 2131.0, 46.1628
23.862816205, 96.390, 2231.0, 47.2335
23.889076770, 96.390, 2220.0, 47.1169
23.915337335, 96.390, 2156.0, 46.4327
23.941597901, 96.390, 2170.0, 46.5833
23.967858466, 96.390, 2227.0, 47.1911
23.994119031, 96.390, 2237.0, 47.2969
24.020379597, 96.390, 2242.0, 47.3498
24.046640162, 96.390, 2220.0, 47.1169
24.072900727, 96.390, 2211.0, 47.0213
24.099161293, 96.390, 2154.0, 46.4112
24.125421858, 96.390, 2248.0, 47.4131
24.151682424, 96.390, 2215.0, 47.0638
24.177942989, 96.390, 2273.0, 47.6760
24.204203554, 96.390, 2239.0, 47.3181
24.230464120, 96.390, 2269.0, 47.6340
24.256724685, 96.390, 2193.0, 46.8295
24.282985250, 96.390, 2260.0, 47.5395
24.309245816, 96.390, 2184.0, 46.7333
24.335506381, 96.390, 2150.0, 46.3681
24.361766946, 96.390, 2267.0, 47.6130
24.388027512, 96.390, 2126.0, 46.1086
24.414288077, 96.390, 2143.0, 46.2925
24.440548642, 96.390, 2186.0, 46.7547
24.466809208, 96.390, 2179.0, 46.6798
24.493069773, 96.390, 2158.0, 46.4543
24.519330338, 96.390, 2169.0, 46.5725
24.545590904, 96.390, 2127.0, 46.1194
24.571851469, 96.390, 2172.0, 46.6047
24.598112035, 96.390, 2088.0, 45.6946
24.624372600, 96.390, 2085.0, 45.6618
24.650633165, 96.390, 2109.0, 45.9239
24.676893731, 96.390, 2137.0, 46.2277
24.703154296, 96.390, 2064.0, 45.4313
24.729414861, 96.390, 2102.0, 45.8476
24.755675427, 96.390, 2207.0, 46.9787
24.781935992, 96.390, 2110.0, 45.9347
24.808196557, 96.390, 2052.0, 45.2990
24.834457123, 96.390, 2122.0, 46.0652
24.860717688, 96.390, 2129.0, 46.1411
24.886978253, 96.390, 2058.0, 45.3652
24.913238819, 96.390, 2102.0, 45.8476
24.939499384, 96.390, 2132.0, 46.1736
24.965759950, 96.390, 2005.0, 44.7772
24.992020515, 96.390, 2108.0, 45.9130
25.018281080, 96.390, 2123.0, 46.0760
25.044541646, 96.390, 2079.0, 45.5961
25.070802211, 96.390, 2071.0, 45.5082
25.097062776, 96.390, 2067.0, 45.4643
25.123323342, 96.390, 2041.0, 45.1774
25.149583907, 96.390, 2059.0, 45.3762
25.175844472, 96.390, 2040.0, 45.1664
25.202105038, 96.390, 2104.0, 45.8694
25.228365603, 96.390, 2029.0, 45.0444
25.254626168, 96.390, 2147.0, 46.3357
25.280886734, 96.390, 1995.0, 44.6654
25.307147299, 96.390, 2099.0, 45.8148
25.333407864, 96.390, 1982.0, 44.5197
25.359668430, 96.390, 2147.0, 46.3357
25.385928995, 96.390, 2005.0, 44.7772
25.412189561, 96.390, 2080.0, 45.6070
25.438450126, 96.390, 2009.0, 44.8219
25.464710691, 96.390, 1946.0, 44.1135
25.490971257, 96.390, 2016.0, 44.8999
25.517231822, 96.390, 2012.0, 44.8553
25.543492387, 96.390, 2014.0, 44.8776
25.569752953, 96.390, 2048.0, 45.2548
25.596013518, 96.390, 1992.0, 44.6318
25.622274083, 96.390, 1997.0, 44.6878
25.648534649, 96.390, 2017.0, 44.9110
25.674795214, 96.390, 2002.0, 44.7437
25.701055779, 96.390, 2005.0, 44.7772
25.727316345, 96.390, 1942.0, 44.0681
25.753576910, 96.390, 2038.0, 45.1442
25.779837476, 96.390, 2038.0, 45.1442
25.806098041, 96.390, 2018.0, 44.9222
25.832358606, 96.390, 1981.0, 44.5084
25.858619172, 96.390, 1998.0, 44.6990
25.884879737, 96.390, 1941.0, 44.0568
25.911140302, 96.390, 1915.0, 43.7607
25.937400868, 96.390, 1966.0, 44.3396
25.963661433, 96.390, 1976.0, 44.4522
25.989921998, 96.390, 1947.0, 44.1248
26.016182564, 96.390, 1926.0, 43.8862
26.042443129, 96.390, 1922.0, 43.8406
26.068703694, 96.390, 1983.0, 44.5309
26.094964260, 96.390, 1948.0, 44.1362
26.121224825, 96.390, 1926.0, 43.8862
26.147485390, 96.390, 1931.0, 43.9431
26.173745956, 96.390, 1886.0, 43.4281
26.200006521, 96.390, 1932.0, 43.9545
26.226267087, 96.390, 1893.0, 43.5086
26.252527652, 96.390, 1892.0, 43.4971
26.278788217, 96.390, 1977.0, 44.4635
26.305048783, 96.390, 1897.0, 43.5546
26.331309348, 96.390, 1921.0, 43.8292
26.357569913, 96.390, 1881.0, 43.3705
26.383830479, 96.390, 1920.0, 43.8178
26.410091044, 96.390, 1810.0, 42.5441
26.436351609, 96.390, 1933.0, 43.9659
26.462612175, 96.390, 1971.0, 44.3959
26.488872740, 96.390, 1887.0, 43.4396
26.515133305, 96.390, 1924.0, 43.8634
26.541393871, 96.390, 1864.0, 43.1741
26.567654436, 96.390, 1887.0, 43.4396
26.593915002, 96.390, 1894.0, 43.5201
26.620175567, 96.390, 1857.0, 43.0929
26.646436132, 96.390, 1865.0, 43.1856
26.672696698, 96.390, 1847.0, 42.9767
26.698957263, 96.390, 1908.0, 43.6807
26.725217828, 96.390, 1913.0, 43.7379
26.751478394, 96.390, 1894.0, 43.5201
26.777738959, 96.390, 1902.0, 43.6119
26.803999524, 96.390, 1821.0, 42.6732
26.830260090, 96.390, 1844.0, 42.9418
26.856520655, 96.390, 1906.0, 43.6578
26.882781220, 96.390, 1867.0, 43.2088
26.909041786, 96.390, 1919.0, 43.8064
26.935302351, 96.390, 1869.0, 43.2319
26.961562916, 96.390, 1872.0, 43.2666
26.987823482, 96.390, 1815.0, 42.6028
27.014084047, 96.390, 1925.0, 43.8748
27.040344613, 96.390, 1840.0, 42.8952
27.066605178, 96.390, 1730.0, 41.5933
27.092865743, 96.390, 1871.0, 43.2551
27.119126309, 96.390, 1830.0, 42.7785
27.145386874, 96.390, 1815.0, 42.6028
27.171647439, 96.390, 1779.0, 42.1782
27.197908005, 96.390, 1848.0, 42.9884
27.224168570, 96.390, 1818.0, 42.6380
27.250429135, 96.390, 1785.0, 42.2493
27.276689701, 96.390, 1741.0, 41.7253
27.302950266, 96.390, 1757.0, 41.9166
27.329210831, 96.390, 1840.0, 42.8952
27.355471397, 96.390, 1788.0, 42.2847
27.381731962, 96.390, 1814.0, 42.5911
27.407992528, 96.390, 1855.0, 43.0697
27.434253093, 96.390, 1809.0, 42.5323
27.460513658, 96.390, 1743.0, 41.7493
27.486774224, 96.390, 1797.0, 42.3910
27.513034789, 96.390, 1781.0, 42.2019
27.539295354, 96.390, 1811.0, 42.5558
27.565555920, 96.390, 1831.0, 42.7902
27.591816485, 96.390, 1748.0, 41.8091
27.618077050, 96.390, 1835.0, 42.8369
27.644337616, 96.390, 1858.0, 43.1045
27.670598181, 96.390, 1781.0, 42.2019
27.696858746, 96.390, 1776.0, 42.1426
27.723119312, 96.390, 1844.0, 42.9418
27.749379877, 96.390, 1811.0, 42.5558
27.775640442, 96.390, 1833.0, 42.8135
27.801901008, 96.390, 1879.0, 43.3474
27.828161573, 96.390, 1840.0, 42.8952
27.854422139, 96.390, 1808.0, 42.5206
27.880682704, 96.390, 1727.0, 41.5572
27.906943269, 96.390, 1775.0, 42.1307
27.933203835, 96.390, 1780.0, 42.1900
27.959464400, 96.390, 1708.0, 41.3280
27.985724965, 96.390, 1622.0, 40.2741
28.011985531, 96.390, 1739.0, 41.7013
28.038246096, 96.390, 1761.0, 41.9643
28.064506661, 96.390, 1682.0, 41.0122
28.090767227, 96.390, 1733.0, 41.6293
28.117027792, 96.390, 1752.0, 41.8569
28.143288357, 96.390, 1789.0, 42.2966
28.169548923, 96.390, 1708.0, 41.3280
28.195809488, 96.390, 1706.0, 41.3038
28.222070054, 96.390, 1662.0, 40.7676
28.248330619, 96.390, 1745.0, 41.7732
28.274591184, 96.390, 1795.0, 42.3674
28.300851750, 96.390, 1719.0, 41.4608
28.327112315, 96.390, 1738.0, 41.6893
28.353372880, 96.390, 1792.0, 42.3320
28.379633446, 96.390, 1782.0, 42.2137
28.405894011, 96.390, 1714.0, 41.4005
28.432154576, 96.390, 1734.0, 41.6413
28.458415142, 96.390, 1675.0, 40.9268
28.484675707, 96.390, 1764.0, 42.0000
28.510936272, 96.390, 1703.0, 41.2674
28.537196838, 96.390, 1685.0, 41.0488
28.563457403, 96.390, 1704.0, 41.2795
28.589717968, 96.390, 1758.0, 41.9285
28.615978534, 96.390, 1680.0, 40.9878
28.642239099, 96.390, 1789.0, 42.2966
28.668499665, 96.390, 1765.0, 42.0119
28.694760230, 96.390, 1679.0, 40.9756
28.721020795, 96.390, 1747.0, 41.7971
28.747281361, 96.390, 1709.0, 41.3401
28.773541926, 96.390, 1711.0, 41.3642
28.799802491, 96.390, 1726.0, 41.5452
28.826063057, 96.390, 1682.0, 41.0122
28.852323622, 96.390, 1637.0, 40.4599
28.878584187, 96.390, 1655.0, 40.6817
28.904844753, 96.390, 1721.0, 41.4849
28.931105318, 96.390, 1729.0, 41.5812
28.957365883, 96.390, 1686.0, 41.0609
28.983626449, 96.390, 1675.0, 40.9268
29.009887014, 96.390, 1693.0, 41.1461
29.036147579, 96.390, 1702.0, 41.2553
29.062408145, 96.390, 1661.0, 40.7554
29.088668710, 96.390, 1689.0, 41.0974
29.114929276, 96.390, 1704.0, 41.2795
29.141189841, 96.390, 1650.0, 40.6202
29.167450406, 96.390, 1643.0, 40.5339
29.193710972, 96.390, 1674.0, 40.9145
29.219971537, 96.390, 1722.0, 41.4970
29.246232102, 96.390, 1695.0, 41.1704
29.272492668, 96.390, 1677.0, 40.9512
29.298753233, 96.390, 1684.0, 41.0366
29.325013798, 96.390, 1649.0, 40.6079
29.351274364, 96.390, 1641.0, 40.5093
29.377534929, 96.390, 1696.0, 41.1825
29.403795494, 96.390, 1572.0, 39.6485
29.430056060, 96.390, 1634.0, 40.4228
29.456316625, 96.390, 1588.0, 39.8497
29.482577191, 96.390, 1654.0, 40.6694
29.508837756, 96.390, 1602.0, 40.0250
29.535098321, 96.390, 1619.0, 40.2368
29.561358887, 96.390, 1640.0, 40.4969
29.587619452, 96.390, 1603.0, 40.0375
29.613880017, 96.390, 1616.0, 40.1995
29.640140583, 96.390, 1627.0, 40.3361
29.666401148, 96.390, 1656.0, 40.6940
29.692661713, 96.390, 1642.0, 40.5216
29.718922279, 96.390, 1669.0, 40.8534
29.745182844, 96.390, 1610.0, 40.1248
29.771443409, 96.390, 1663.0, 40.7799
29.797703975, 96.390, 1614.0, 40.1746
29.823964540, 96.390, 1620.0, 40.2492
29.850225105, 96.390, 1628.0, 40.3485
29.876485671, 96.390, 1569.0, 39.6106
29.902746236, 96.390, 1586.0, 39.8246
29.929006802, 96.390, 1639.0, 40.4846
29.955267367, 96.390, 1561.0, 39.5095
29.981527932, 96.390, 1630.0, 40.3733
30.007788498, 96.390, 1593.0, 39.9124
30.034049063, 96.390, 1514.0, 38.9102
30.060309628, 96.390, 1596.0, 39.9500
30.086570194, 96.390, 1633.0, 40.4104
30.112830759, 96.390, 1560.0, 39.4968
30.139091324, 96.390, 1693.0, 41.1461
30.165351890, 96.390, 1656.0, 40.6940
30.191612455, 96.390, 1663.0, 40.7799
30.217873020, 96.390, 1626.0, 40.3237
30.244133586, 96.390, 1566.0, 39.5727
30.270394151, 96.390, 1623.0, 40.2865
30.296654717, 96.390, 1608.0, 40.0999
30.322915282, 96.390, 1597.0, 39.9625
30.349175847, 96.390, 1536.0, 39.1918
30.375436413, 96.390, 1636.0, 40.4475
30.401696978, 96.390, 1582.0, 39.7744
30.427957543, 96.390, 1582.0, 39.7744
30.454218109, 96.390, 1522.0, 39.0128
30.480478674, 96.390, 1612.0, 40.1497
30.506739239, 96.390, 1572.0, 39.6485
30.532999805, 96.390, 1589.0, 39.8623
30.559260370, 96.390, 1570.0, 39.6232
30.585520935, 96.390, 1555.0, 39.4335
30.611781501, 96.390, 1585.0, 39.8121
30.638042066, 96.390, 1580.0, 39.7492
30.664302631, 96.390, 1478.0, 38.4448
30.690563197, 96.390, 1545.0, 39.3065
30.716823762, 96.390, 1607.0, 40.0874
30.743084328, 96.390, 1528.0, 39.0896
30.769344893, 96.390, 1565.0, 39.5601
30.795605458, 96.390, 1540.0, 39.2428
30.821866024, 96.390, 1504.0, 38.7814
30.848126589, 96.390, 1597.0, 39.9625
30.874387154, 96.390, 1615.0, 40.1871
30.900647720, 96.390, 1596.0, 39.9500
30.926908285, 96.390, 1549.0, 39.3573
30.953168850, 96.390, 1501.0, 38.7427
30.979429416, 96.390, 1608.0, 40.0999
31.005689981, 96.390, 1555.0, 39.4335
31.031950546, 96.390, 1581.0, 39.7618
31.058211112, 96.390, 1537.0, 39.2046
31.084471677, 96.390, 1607.0, 40.0874
31.110732243, 96.390, 1522.0, 39.0128
31.136992808, 96.390, 1561.0, 39.5095
31.163253373, 96.390, 1507.0, 38.8201
31.189513939, 96.390, 1513.0, 38.8973
31.215774504, 96.390, 1495.0, 38.6652
31.242035069, 96.390, 1522.0, 39.0128
31.268295635, 96.390, 1518.0, 38.9615
31.294556200, 96.390, 1529.0, 39.1024
31.320816765, 96.390, 1505.0, 38.7943
31.347077331, 96.390, 1573.0, 39.6611
31.373337896, 96.390, 1531.0, 39.1280
31.399598461, 96.390, 1567.0, 39.5854
31.425859027, 96.390, 1524.0, 39.0384
31.452119592, 96.390, 1575.0, 39.6863
31.478380157, 96.390, 1547.0, 39.3319
31.504640723, 96.390, 1499.0, 38.7169
31.530901288, 96.390, 1570.0, 39.6232
31.557161854, 96.390, 1576.0, 39.6989
31.583422419, 96.390, 1572.0, 39.6485
31.609682984, 96.390, 1498.0, 38.7040
31.635943550, 96.390, 1476.0, 38.4187
31.662204115, 96.390, 1472.0, 38.3667
31.688464680, 96.390, 1546.0, 39.3192
31.714725246, 96.390, 1466.0, 38.2884
31.740985811, 96.390, 1601.0, 40.0125
31.767246376, 96.390, 1545.0, 39.3065
31.793506942, 96.390, 1432.0, 37.8418
31.819767507, 96.390, 1550.0, 39.3700
31.846028072, 96.390, 1482.0, 38.4968
31.872288638, 96.390, 1449.0, 38.0657
31.898549203, 96.390, 1534.0, 39.1663
31.924809769, 96.390, 1492.0, 38.6264
31.951070334, 96.390, 1492.0, 38.6264
31.977330899, 96.390, 1557.0, 39.4588
32.003591465, 96.390, 1536.0, 39.1918
32.029852030, 96.390, 1445.0, 38.0132
32.056112595, 96.390, 1524.0, 39.0384
32.082373161, 96.390, 1505.0, 38.7943
32.108633726, 96.390, 1498.0, 38.7040
32.134894291, 96.390, 1491.0, 38.6135
32.161154857, 96.390, 1440.0, 37.9473
32.187415422, 96.390, 1439.0, 37.9342
32.213675987, 96.390, 1497.0, 38.6911
32.239936553, 96.390, 1520.0, 38.9872
32.266197118, 96.390, 1485.0, 38.5357
32.292457683, 96.390, 1464.0, 38.2623
32.318718249, 96.390, 1388.0, 37.2559
32.344978814, 96.390, 1483.0, 38.5097
32.371239380, 96.390, 1475.0, 38.4057
32.397499945, 96.390, 1435.0, 37.8814
32.423760510, 96.390, 1479.0, 38.4578
32.450021076, 96.390, 1483.0, 38.5097
32.476281641, 96.390, 1478.0, 38.4448
32.502542206, 96.390, 1458.0, 38.1838
32.528802772, 96.390, 1442.0, 37.9737
32.555063337, 96.390, 1530.0, 39.1152
32.581323902, 96.390, 1446.0, 38.0263
32.607584468, 96.390, 1463.0, 38.2492
32.633845033, 96.390, 1413.0, 37.5899
32.660105598, 96.390, 1475.0, 38.4057
32.686366164, 96.390, 1479.0, 38.4578
32.712626729, 96.390, 1444.0, 38.0000
32.738887295, 96.390, 1426.0, 37.7624
32.765147860, 96.390, 1375.0, 37.0810
32.791408425, 96.390, 1453.0, 38.1182
32.817668991, 96.390, 1380.0, 37.1484
32.843929556, 96.390, 1464.0, 38.2623
32.870190121, 96.390, 1416.0, 37.6298
32.896450687, 96.390, 1457.0, 38.1707
32.922711252, 96.390, 1456.0, 38.1576
32.948971817, 96.390, 1446.0, 38.0263
32.975232383, 96.390, 1383.0, 37.1887
33.001492948, 96.390, 1425.0, 37.7492
33.027753513, 96.390, 1371.0, 37.0270
33.054014079, 96.390, 1476.0, 38.4187
33.080274644, 96.390, 1353.0, 36.7831
33.106535209, 96.390, 1409.0, 37.5366
33.132795775, 96.390, 1433.0, 37.8550
33.159056340, 96.390, 1396.0, 37.3631
33.185316906, 96.390, 1395.0, 37.3497
33.211577471, 96.390, 1434.0, 37.8682
33.237838036, 96.390, 1405.0, 37.4833
33.264098602, 96.390, 1429.0, 37.8021
33.290359167, 96.390, 1416.0, 37.6298
33.316619732, 96.390, 1385.0, 37.2156
33.342880298, 96.390, 1434.0, 37.8682
33.369140863, 96.390, 1449.0, 38.0657
33.395401428, 96.390, 1371.0, 37.0270
33.421661994, 96.390, 1418.0, 37.6563
33.447922559, 96.390, 1403.0, 37.4566
33.474183124, 96.390, 1389.0, 37.2693
33.500443690, 96.390, 1398.0, 37.3898
33.526704255, 96.390, 1345.0, 36.6742
33.552964820, 96.390, 1439.0, 37.9342
33.579225386, 96.390, 1424.0, 37.7359
33.605485951, 96.390, 1430.0, 37.8153
33.631746517, 96.390, 1416.0, 37.6298
33.658007082, 96.390, 1468.0, 38.3145
33.684267647, 96.390, 1394.0, 37.3363
33.710528213, 96.390, 1461.0, 38.2230
33.736788778, 96.390, 1391.0, 37.2961
33.763049343, 96.390, 1404.0, 37.4700
33.789309909, 96.390, 1356.0, 36.8239
33.815570474, 96.390, 1368.0, 36.9865
33.841831039, 96.390, 1440.0, 37.9473
33.868091605, 96.390, 1416.0, 37.6298
33.894352170, 96.390, 1374.0, 37.0675
33.920612735, 96.390, 1352.0, 36.7696
33.946873301, 96.390, 1413.0, 37.5899
33.973133866, 96.390, 1310.0, 36.1939
33.999394432, 96.390, 1396.0, 37.3631
34.025654997, 96.390, 1330.0, 36.4692
34.051915562, 96.390, 1356.0, 36.8239
34.078176128, 96.390, 1427.0, 37.7757
34.104436693, 96.390, 1466.0, 38.2884
34.130697258, 96.390, 1436.0, 37.8946
34.156957824, 96.390, 1324.0, 36.3868
34.183218389, 96.390, 1321.0, 36.3456
34.209478954, 96.390, 1417.0, 37.6431
34.235739520, 96.390, 1360.0, 36.8782
34.262000085, 96.390, 1358.0, 36.8511
34.288260650, 96.390, 1340.0, 36.6060
34.314521216, 96.390, 1322.0, 36.3593
34.340781781, 96.390, 1363.0, 36.9188
34.367042346, 96.390, 1381.0, 37.1618
34.393302912, 96.390, 1398.0, 37.3898
34.419563477, 96.390, 1378.0, 37.1214
34.445824043, 96.390, 1288.0, 35.8887
34.472084608, 96.390, 1434.0, 37.8682
34.498345173, 96.390, 1352.0, 36.7696
34.524605739, 96.390, 1292.0, 35.9444
34.550866304, 96.390, 1365.0, 36.9459
34.577126869, 96.390, 1362.0, 36.9053
34.603387435, 96.390, 1351.0, 36.7560
34.629648000, 96.390, 1339.0, 36.5923
34.655908565, 96.390, 1336.0, 36.5513
34.682169131, 96.390, 1329.0, 36.4555
34.708429696, 96.390, 1345.0, 36.6742
34.734690261, 96.390, 1336.0, 36.5513
34.760950827, 96.390, 1374.0, 37.0675
34.787211392, 96.390, 1298.0, 36.0278
34.813471958, 96.390, 1338.0, 36.5787
34.839732523, 96.390, 1282.0, 35.8050
34.865993088, 96.390, 1361.0, 36.8917
34.892253654, 96.390, 1412.0, 37.5766
34.918514219, 96.390, 1320.0, 36.3318
34.944774784, 96.390, 1362.0, 36.9053
34.971035350, 96.390, 1223.0, 34.9714
34.997295915, 96.390, 1349.0, 36.7287
35.023556480, 96.390, 1277.0, 35.7351
35.049817046, 96.390, 1286.0, 35.8608
35.076077611, 96.390, 1360.0, 36.8782
35.102338176, 96.390, 1360.0, 36.8782
35.128598742, 96.390, 1360.0, 36.8782
35.154859307, 96.390, 1267.0, 35.5949
35.181119872, 96.390, 1330.0, 36.4692
35.207380438, 96.390, 1249.0, 35.3412
35.233641003, 96.390, 1297.0, 36.0139
35.259901569, 96.390, 1363.0, 36.9188
35.286162134, 96.390, 1314.0, 36.2491
35.312422699, 96.390, 1302.0, 36.0832
35.338683265, 96.390, 1393.0, 37.3229
35.364943830, 96.390, 1348.0, 36.7151
35.391204395, 96.390, 1301.0, 36.0694
35.417464961, 96.390, 1319.0, 36.3180
35.443725526, 96.390, 1290.0, 35.9166
35.469986091, 96.390, 1259.0, 35.4824
35.496246657, 96.390, 1317.0, 36.2905
35.522507222, 96.390, 1346.0, 36.6879
35.548767787, 96.390, 1378.0, 37.1214
35.575028353, 96.390, 1325.0, 36.4005
35.601288918, 96.390, 1307.0, 36.1525
35.627549484, 96.390, 1356.0, 36.8239
35.653810049, 96.390, 1344.0, 36.6606
35.680070614, 96.390, 1319.0, 36.3180
35.706331180, 96.390, 1304.0, 36.1109
35.732591745, 96.390, 1314.0, 36.2491
35.758852310, 96.390, 1294.0, 35.9722
35.785112876, 96.390, 1300.0, 36.0555
35.811373441, 96.390, 1303.0, 36.0971
35.837634006, 96.390, 1321.0, 36.3456
35.863894572, 96.390, 1268.0, 35.6090
35.890155137, 96.390, 1276.0, 35.7211
35.916415702, 96.390, 1294.0, 35.9722
35.942676268, 96.390, 1294.0, 35.9722
35.968936833, 96.390, 1246.0, 35.2987
35.995197398, 96.390, 1280.0, 35.7771
36.021457964, 96.390, 1306.0, 36.1386
36.047718529, 96.390, 1301.0, 36.0694
36.073979095, 96.390, 1276.0, 35.7211
36.100239660, 96.390, 1300.0, 36.0555
36.126500225, 96.390, 1311.0, 36.2077
36.152760791, 96.390, 1322.0, 36.3593
36.179021356, 96.390, 1312.0, 36.2215
36.205281921, 96.390, 1335.0, 36.5377
36.231542487, 96.390, 1314.0, 36.2491
36.257803052, 96.390, 1333.0, 36.5103
36.284063617, 96.390, 1318.0, 36.3043
36.310324183, 96.390, 1266.0, 35.5809
36.336584748, 96.390, 1283.0, 35.8190
36.362845313, 96.390, 1302.0, 36.0832
36.389105879, 96.390, 1325.0, 36.4005
36.415366444, 96.390, 1284.0, 35.8329
36.441627010, 96.390, 1314.0, 36.2491
36.467887575, 96.390, 1284.0, 35.8329
36.494148140, 96.390, 1307.0, 36.1525
36.520408706, 96.390, 1308.0, 36.1663
36.546669271, 96.390, 1286.0, 35.8608
36.572929836, 96.390, 1289.0, 35.9026
36.599190402, 96.390, 1334.0, 36.5240
36.625450967, 96.390, 1341.0, 36.6197
36.651711532, 96.390, 1272.0, 35.6651
36.677972098, 96.390, 1346.0, 36.6879
36.704232663, 96.390, 1323.0, 36.3731
36.730493228, 96.390, 1304.0, 36.1109
36.756753794, 96.390, 1359.0, 36.8646
36.783014359, 96.390, 1369.0, 37.0000
36.809274924, 96.390, 1245.0, 35.2846
36.835535490, 96.390, 1339.0, 36.5923
36.861796055, 96.390, 1320.0, 36.3318
36.888056621, 96.390, 1361.0, 36.8917
36.914317186, 96.390, 1359.0, 36.8646
36.940577751, 96.390, 1320.0, 36.3318
36.966838317, 96.390, 1351.0, 36.7560
36.993098882, 96.390, 1340.0, 36.6060
37.019359447, 96.390, 1257.0, 35.4542
37.045620013, 96.390, 1333.0, 36.5103
37.071880578, 96.390, 1313.0, 36.2353
37.098141143, 96.390, 1285.0, 35.8469
37.124401709, 96.390, 1333.0, 36.5103
37.150662274, 96.390, 1328.0, 36.4417
37.176922839, 96.390, 1254.0, 35.4119
37.203183405, 96.390, 1272.0, 35.6651
37.229443970, 96.390, 1308.0, 36.1663
37.255704535, 96.390, 1255.0, 35.4260
37.281965101, 96.390, 1244.0, 35.2704
37.308225666, 96.390, 1246.0, 35.2987
37.334486232, 96.390, 1196.0, 34.5832
37.360746797, 96.390, 1236.0, 35.1568
37.387007362, 96.390, 1229.0, 35.0571
37.413267928, 96.390, 1204.0, 34.6987
37.439528493, 96.390, 1195.0, 34.5688
37.465789058, 96.390, 1215.0, 34.8569
37.492049624, 96.390, 1221.0, 34.9428
37.518310189, 96.390, 1241.0, 35.2278
37.544570754, 96.390, 1308.0, 36.1663
37.570831320, 96.390, 1205.0, 34.7131
37.597091885, 96.390, 1229.0, 35.0571
37.623352450, 96.390, 1221.0, 34.9428
37.649613016, 96.390, 1237.0, 35.1710
37.675873581, 96.390, 1247.0, 35.3129
37.702134147, 96.390, 1186.0, 34.4384
37.728394712, 96.390, 1216.0, 34.8712
37.754655277, 96.390, 1177.0, 34.3074
37.780915843, 96.390, 1222.0, 34.9571
37.807176408, 96.390, 1264.0, 35.5528
37.833436973, 96.390, 1203.0, 34.6843
37.859697539, 96.390, 1231.0, 35.0856
37.885958104, 96.390, 1241.0, 35.2278
37.912218669, 96.390, 1199.0, 34.6266
37.938479235, 96.390, 1191.0, 34.5109
37.964739800, 96.390, 1142.0, 33.7935
37.991000365, 96.390, 1197.0, 34.5977
38.017260931, 96.390, 1202.0, 34.6699
38.043521496, 96.390, 1188.0, 34.4674
38.069782061, 96.390, 1187.0, 34.4529
38.096042627, 96.390, 1226.0, 35.0143
38.122303192, 96.390, 1208.0, 34.7563
38.148563758, 96.390, 1157.0, 34.0147
38.174824323, 96.390, 1115.0, 33.3916
38.201084888, 96.390, 1217.0, 34.8855
38.227345454, 96.390, 1180.0, 34.3511
38.253606019, 96.390, 1205.0, 34.7131
38.279866584, 96.390, 1219.0, 34.9142
38.306127150, 96.390, 1183.0, 34.3948
38.332387715, 96.390, 1238.0, 35.1852
38.358648280, 96.390, 1171.0, 34.2199
38.384908846, 96.390, 1149.0, 33.8969
38.411169411, 96.390, 1180.0, 34.3511
38.437429976, 96.390, 1161.0, 34.0735
38.463690542, 96.390, 1092.0, 33.0454
38.489951107, 96.390, 1155.0, 33.9853
38.516211673, 96.390, 1145.0, 33.8378
38.542472238, 96.390, 1178.0, 34.3220
38.568732803, 96.390, 1155.0, 33.9853
38.594993369, 96.390, 1147.0, 33.8674
38.621253934, 96.390, 1191.0, 34.5109
38.647514499, 96.390, 1153.0, 33.9559
38.673775065, 96.390, 1151.0, 33.9264
38.700035630, 96.390, 1190.0, 34.4964
38.726296195, 96.390, 1137.0, 33.7194
38.752556761, 96.390, 1158.0, 34.0294
38.778817326, 96.390, 1065.0, 32.6343
38.805077891, 96.390, 1144.0, 33.8231
38.831338457, 96.390, 1144.0, 33.8231
38.857599022, 96.390, 1142.0, 33.7935
38.883859587, 96.390, 1107.0, 33.2716
38.910120153, 96.390, 1205.0, 34.7131
38.936380718, 96.390, 1109.0, 33.3017
38.962641284, 96.390, 1123.0, 33.5112
38.988901849, 96.390, 1185.0, 34.4238
39.015162414, 96.390, 1130.0, 33.6155
39.041422980, 96.390, 1193.0, 34.5398
39.067683545, 96.390, 1081.0, 32.8786
39.093944110, 96.390, 1098.0, 33.1361
39.120204676, 96.390, 1018.0, 31.9061
39.146465241, 96.390, 1160.0, 34.0588
39.172725806, 96.390, 1147.0, 33.8674
39.198986372, 96.390, 1156.0, 34.0000
39.225246937, 96.390, 1119.0, 33.4515
39.251507502, 96.390, 1128.0, 33.5857
39.277768068, 96.390, 1115.0, 33.3916
39.304028633, 96.390, 1154.0, 33.9706
39.330289199, 96.390, 1153.0, 33.9559
39.356549764, 96.390, 1176.0, 34.2929
39.382810329, 96.390, 1139.0, 33.7491
39.409070895, 96.390, 1156.0, 34.0000
39.435331460, 96.390, 1177.0, 34.3074
39.461592025, 96.390, 1123.0, 33.5112
39.487852591, 96.390, 1123.0, 33.5112
39.514113156, 96.390, 1142.0, 33.7935
39.540373721, 96.390, 1093.0, 33.0606
39.566634287, 96.390, 1121.0, 33.4813
39.592894852, 96.390, 1097.0, 33.1210
39.619155417, 96.390, 1057.0, 32.5115
39.645415983, 96.390, 1109.0, 33.3017
39.671676548, 96.390, 1193.0, 34.5398
39.697937113, 96.390, 1116.0, 33.4066
39.724197679, 96.390, 1063.0, 32.6037
39.750458244, 96.390, 1096.0, 33.1059
39.776718810, 96.390, 1104.0, 33.2265
39.802979375, 96.390, 1102.0, 33.1964
39.829239940, 96.390, 1090.0, 33.0151
39.855500506, 96.390, 1103.0, 33.2114
39.881761071, 96.390, 1103.0, 33.2114
39.908021636, 96.390, 1117.0, 33.4215
39.934282202, 96.390, 1109.0, 33.3017
39.960542767, 96.390, 1057.0, 32.5115
39.986803332, 96.390, 1124.0, 33.5261
40.013063898, 96.390, 1101.0, 33.1813
40.039324463, 96.390, 1104.0, 33.2265
40.065585028, 96.390, 1060.0, 32.5576
40.091845594, 96.390, 1102.0, 33.1964
40.118106159, 96.390, 1123.0, 33.5112
40.144366725, 96.390, 1131.0, 33.6303
40.170627290, 96.390, 1141.0, 33.7787
40.196887855, 96.390, 1110.0, 33.3167
40.223148421, 96.390, 1127.0, 33.5708
40.249408986, 96.390, 1105.0, 33.2415
40.275669551, 96.390, 1085.0, 32.9393
40.301930117, 96.390, 1147.0, 33.8674
40.328190682, 96.390, 1178.0, 34.3220
40.354451247, 96.390, 1143.0, 33.8083
40.380711813, 96.390, 1088.0, 32.9848
40.406972378, 96.390, 1122.0, 33.4963
40.433232943, 96.390, 1153.0, 33.9559
40.459493509, 96.390, 1064.0, 32.6190
40.485754074, 96.390, 1089.0, 33.0000
40.512014639, 96.390, 1034.0, 32.1559
40.538275205, 96.390, 1102.0, 33.1964
40.564535770, 96.390, 1136.0, 33.7046
40.590796336, 96.390, 1127.0, 33.5708
40.617056901, 96.390, 1056.0, 32.4962
40.643317466, 96.390, 1101.0, 33.1813
40.669578032, 96.390, 1101.0, 33.1813
40.695838597, 96.390, 1002.0, 31.6544
40.722099162, 96.390, 1090.0, 33.0151
40.748359728, 96.390, 1066.0, 32.6497
40.774620293, 96.390, 1099.0, 33.1512
40.800880858, 96.390, 1083.0, 32.9090
40.827141424, 96.390, 1115.0, 33.3916
40.853401989, 96.390, 1115.0, 33.3916
40.879662554, 96.390, 1097.0, 33.1210
40.905923120, 96.390, 1111.0, 33.3317
40.932183685, 96.390, 1116.0, 33.4066
40.958444251, 96.390, 1100.0, 33.1662
40.984704816, 96.390, 1064.0, 32.6190
41.010965381, 96.390, 1122.0, 33.4963
41.037225947, 96.390, 1094.0, 33.0757
41.063486512, 96.390, 1110.0, 33.3167
41.089747077, 96.390, 1059.0, 32.5423
41.116007643, 96.390, 1082.0, 32.8938
41.142268208, 96.390, 1131.0, 33.6303
41.168528773, 96.390, 1108.0, 33.2866
41.194789339, 96.390, 1075.0, 32.7872
41.221049904, 96.390, 1194.0, 34.5543
41.247310469, 96.390, 1110.0, 33.3167
41.273571035, 96.390, 1074.0, 32.7719
41.299831600, 96.390, 1100.0, 33.1662
41.326092165, 96.390, 1104.0, 33.2265
41.352352731, 96.390, 1060.0, 32.5576
41.378613296, 96.390, 1123.0, 33.5112
41.404873862, 96.390, 1102.0, 33.1964
41.431134427, 96.390, 1127.0, 33.5708
41.457394992, 96.390, 1118.0, 33.4365
41.483655558, 96.390, 1102.0, 33.1964
41.509916123, 96.390, 1058.0, 32.5269
41.536176688, 96.390, 1178.0, 34.3220
41.562437254, 96.390, 1113.0, 33.3617
41.588697819, 96.390, 1073.0, 32.7567
41.614958384, 96.390, 1094.0, 33.0757
41.641218950, 96.390, 1082.0, 32.8938
41.667479515, 96.390, 1145.0, 33.8378
41.693740080, 96.390, 1153.0, 33.9559
41.720000646, 96.390, 1077.0, 32.8177
41.746261211, 96.390, 1086.0, 32.9545
41.772521776, 96.390, 1205.0, 34.7131
41.798782342, 96.390, 1129.0, 33.6006
41.825042907, 96.390, 1090.0, 33.0151
41.851303473, 96.390, 1121.0, 33.4813
41.877564038, 96.390, 1141.0, 33.7787
41.903824603, 96.390, 1128.0, 33.5857
41.930085169, 96.390, 1118.0, 33.4365
41.956345734, 96.390, 1128.0, 33.5857
41.982606299, 96.390, 1126.0, 33.5559
42.008866865, 96.390, 1153.0, 33.9559
42.035127430, 96.390, 1147.0, 33.8674
42.061387995, 96.390, 1153.0, 33.9559
42.087648561, 96.390, 1189.0, 34.4819
42.113909126, 96.390, 1208.0, 34.7563
42.140169691, 96.390, 1200.0, 34.6410
42.166430257, 96.390, 1244.0, 35.2704
42.192690822, 96.390, 1155.0, 33.9853
42.218951388, 96.390, 1208.0, 34.7563
42.245211953, 96.390, 1194.0, 34.5543
42.271472518, 96.390, 1211.0, 34.7994
42.297733084, 96.390, 1267.0, 35.5949
42.323993649, 96.390, 1271.0, 35.6511
42.350254214, 96.390, 1185.0, 34.4238
42.376514780, 96.390, 1240.0, 35.2136
42.402775345, 96.390, 1226.0, 35.0143
42.429035910, 96.390, 1352.0, 36.7696
42.455296476, 96.390, 1327.0, 36.4280
42.481557041, 96.390, 1341.0, 36.6197
42.507817606, 96.390, 1314.0, 36.2491
42.534078172, 96.390, 1337.0, 36.5650
42.560338737, 96.390, 1339.0, 36.5923
42.586599302, 96.390, 1387.0, 37.2424
42.612859868, 96.390, 1415.0, 37.6165
42.639120433, 96.390, 1396.0, 37.3631
42.665380999, 96.390, 1417.0, 37.6431
42.691641564, 96.390, 1485.0, 38.5357
42.717902129, 96.390, 1473.0, 38.3797
42.744162695, 96.390, 1522.0, 39.0128
42.770423260, 96.390, 1588.0, 39.8497
42.796683825, 96.390, 1628.0, 40.3485
42.822944391, 96.390, 1597.0, 39.9625
42.849204956, 96.390, 1596.0, 39.9500
42.875465521, 96.390, 1727.0, 41.5572
42.901726087, 96.390, 1635.0, 40.4351
42.927986652, 96.390, 1603.0, 40.0375
42.954247217, 96.390, 1714.0, 41.4005
42.980507783, 96.390, 1695.0, 41.1704
43.006768348, 96.390, 1587.0, 39.8372
43.033028914, 96.390, 1633.0, 40.4104
43.059289479, 96.390, 1645.0, 40.5586
43.085550044, 96.390, 1620.0, 40.2492
43.111810610, 96.390, 1466.0, 38.2884
43.138071175, 96.390, 1529.0, 39.1024
43.164331740, 96.390, 1543.0, 39.2810
43.190592306, 96.390, 1477.0, 38.4318
43.216852871, 96.390, 1403.0, 37.4566
43.243113436, 96.390, 1396.0, 37.3631
43.269374002, 96.390, 1379.0, 37.1349
43.295634567, 96.390, 1434.0, 37.8682
43.321895132, 96.390, 1309.0, 36.1801
43.348155698, 96.390, 1293.0, 35.9583
43.374416263, 96.390, 1293.0, 35.9583
43.400676828, 96.390, 1324.0, 36.3868
43.426937394, 96.390, 1266.0, 35.5809
43.453197959, 96.390, 1254.0, 35.4119
43.479458525, 96.390, 1208.0, 34.7563
43.505719090, 96.390, 1298.0, 36.0278
43.531979655, 96.390, 1186.0, 34.4384
43.558240221, 96.390, 1212.0, 34.8138
43.584500786, 96.390, 1168.0, 34.1760
43.610761351, 96.390, 1194.0, 34.5543
43.637021917, 96.390, 1110.0, 33.3167
43.663282482, 96.390, 1139.0, 33.7491
43.689543047, 96.390, 1135.0, 33.6898
43.715803613, 96.390, 1154.0, 33.9706
43.742064178, 96.390, 1132.0, 33.6452
43.768324743, 96.390, 1169.0, 34.1906
43.794585309, 96.390, 1159.0, 34.0441
43.820845874, 96.390, 1133.0, 33.6601
43.847106440, 96.390, 1113.0, 33.3617
43.873367005, 96.390, 1123.0, 33.5112
43.899627570, 96.390, 1084.0, 32.9242
43.925888136, 96.390, 1076.0, 32.8024
43.952148701, 96.390, 1130.0, 33.6155
43.978409266, 96.390, 1018.0, 31.9061
44.004669832, 96.390, 1079.0, 32.8481
44.030930397, 96.390, 999.0, 31.6070
44.057190962, 96.390, 1087.0, 32.9697
44.083451528, 96.390, 1078.0, 32.8329
44.109712093, 96.390, 1122.0, 33.4963
44.135972658, 96.390, 1034.0, 32.1559
44.162233224, 96.390, 963.0, 31.0322
44.188493789, 96.390, 1014.0, 31.8434
44.214754354, 96.390, 1039.0, 32.2335
44.241014920, 96.390, 1021.0, 31.9531
44.267275485, 96.390, 1016.0, 31.8748
44.293536051, 96.390, 1044.0, 32.3110
44.319796616, 96.390, 1017.0, 31.8904
44.346057181, 96.390, 1065.0, 32.6343
44.372317747, 96.390, 1007.0, 31.7333
44.398578312, 96.390, 1002.0, 31.6544
44.424838877, 96.390, 1054.0, 32.4654
44.451099443, 96.390, 1051.0, 32.4191
44.477360008, 96.390, 1013.0, 31.8277
44.503620573, 96.390, 963.0, 31.0322
44.529881139, 96.390, 966.0, 31.0805
44.556141704, 96.390, 983.0, 31.3528
44.582402269, 96.390, 993.0, 31.5119
44.608662835, 96.390, 972.0, 31.1769
44.634923400, 96.390, 978.0, 31.2730
44.661183966, 96.390, 992.0, 31.4960
44.687444531, 96.390, 945.0, 30.7409
44.713705096, 96.390, 999.0, 31.6070
44.739965662, 96.390, 922.0, 30.3645
44.766226227, 96.390, 954.0, 30.8869
44.792486792, 96.390, 995.0, 31.5436
44.818747358, 96.390, 1014.0, 31.8434
44.845007923, 96.390, 949.0, 30.8058
44.871268488, 96.390, 930.0, 30.4959
44.897529054, 96.390, 991.0, 31.4802
44.923789619, 96.390, 950.0, 30.8221
44.950050184, 96.390, 980.0, 31.3050
44.976310750, 96.390, 956.0, 30.9192
45.002571315, 96.390, 961.0, 31.0000
45.028831880, 96.390, 1008.0, 31.7490
45.055092446, 96.390, 938.0, 30.6268
45.081353011, 96.390, 962.0, 31.0161
45.107613577, 96.390, 921.0, 30.3480
45.133874142, 96.390, 988.0, 31.4325
45.160134707, 96.390, 963.0, 31.0322
45.186395273, 96.390, 940.0, 30.6594
45.212655838, 96.390, 885.0, 29.7489
45.238916403, 96.390, 979.0, 31.2890
45.265176969, 96.390, 895.0, 29.9166
45.291437534, 96.390, 960.0, 30.9839
45.317698099, 96.390, 911.0, 30.1828
45.343958665, 96.390, 1002.0, 31.6544
45.370219230, 96.390, 941.0, 30.6757
45.396479795, 96.390, 874.0, 29.5635
45.422740361, 96.390, 928.0, 30.4631
45.449000926, 96.390, 929.0, 30.4795
45.475261492, 96.390, 955.0, 30.9031
45.501522057, 96.390, 916.0, 30.2655
45.527782622, 96.390, 944.0, 30.7246
45.554043188, 96.390, 882.0, 29.6985
45.580303753, 96.390, 913.0, 30.2159
45.606564318, 96.390, 907.0, 30.1164
45.632824884, 96.390, 940.0, 30.6594
45.659085449, 96.390, 909.0, 30.1496
45.685346014, 96.390, 885.0, 29.7489
45.711606580, 96.390, 894.0, 29.8998
45.737867145, 96.390, 873.0, 29.5466
45.764127710, 96.390, 877.0, 29.6142
45.790388276, 96.390, 909.0, 30.1496
45.816648841, 96.390, 951.0, 30.8383
45.842909406, 96.390, 912.0, 30.1993
45.869169972, 96.390, 835.0, 28.8964
45.895430537, 96.390, 896.0, 29.9333
45.921691103, 96.390, 840.0, 28.9828
45.947951668, 96.390, 871.0, 29.5127
45.974212233, 96.390, 827.0, 28.7576
46.000472799, 96.390, 873.0, 29.5466
46.026733364, 96.390, 870.0, 29.4958
46.052993929, 96.390, 920.0, 30.3315
46.079254495, 96.390, 861.0, 29.3428
46.105515060, 96.390, 875.0, 29.5804
46.131775625, 96.390, 922.0, 30.3645
46.158036191, 96.390, 871.0, 29.5127
46.184296756, 96.390, 863.0, 29.3769
46.210557321, 96.390, 854.0, 29.2233
46.236817887, 96.390, 867.0, 29.4449
46.263078452, 96.390, 924.0, 30.3974
46.289339017, 96.390, 879.0, 29.6479
46.315599583, 96.390, 885.0, 29.7489
46.341860148, 96.390, 836.0, 28.9137
46.368120714, 96.390, 899.0, 29.9833
46.394381279, 96.390, 855.0, 29.2404
46.420641844, 96.390, 855.0, 29.2404
46.446902410, 96.390, 816.0, 28.5657
46.473162975, 96.390, 831.0, 28.8271
46.499423540, 96.390, 822.0, 28.6705
46.525684106, 96.390, 882.0, 29.6985
46.551944671, 96.390, 836.0, 28.9137
46.578205236, 96.390, 843.0, 29.0345
46.604465802, 96.390, 881.0, 29.6816
46.630726367, 96.390, 887.0, 29.7825
46.656986932, 96.390, 825.0, 28.7228
46.683247498, 96.390, 823.0, 28.6880
46.709508063, 96.390, 829.0, 28.7924
46.735768629, 96.390, 858.0, 29.2916
46.762029194, 96.390, 816.0, 28.5657
46.788289759, 96.390, 794.0, 28.1780
46.814550325, 96.390, 880.0, 29.6648
46.840810890, 96.390, 821.0, 28.6531
46.867071455, 96.390, 798.0, 28.2489
46.893332021, 96.390, 871.0, 29.5127
46.919592586, 96.390, 843.0, 29.0345
46.945853151, 96.390, 837.0, 28.9310
46.972113717, 96.390, 881.0, 29.6816
46.998374282, 96.390, 835.0, 28.8964
47.024634847, 96.390, 791.0, 28.1247
47.050895413, 96.390, 821.0, 28.6531
47.077155978, 96.390, 868.0, 29.4618
47.103416543, 96.390, 826.0, 28.7402
47.129677109, 96.390, 806.0, 28.3901
47.155937674, 96.390, 796.0, 28.2135
47.182198240, 96.390, 788.0, 28.0713
47.208458805, 96.390, 788.0, 28.0713
47.234719370, 96.390, 839.0, 28.9655
47.260979936, 96.390, 811.0, 28.4781
47.287240501, 96.390, 814.0, 28.5307
47.313501066, 96.390, 797.0, 28.2312
47.339761632, 96.390, 791.0, 28.1247
47.366022197, 96.390, 813.0, 28.5132
47.392282762, 96.390, 839.0, 28.9655
47.418543328, 96.390, 813.0, 28.5132
47.444803893, 96.390, 825.0, 28.7228
47.471064458, 96.390, 775.0, 27.8388
47.497325024, 96.390, 811.0, 28.4781
47.523585589, 96.390, 810.0, 28.4605
47.549846155, 96.390, 851.0, 29.1719
47.576106720, 96.390, 792.0, 28.1425
47.602367285, 96.390, 845.0, 29.0689
47.628627851, 96.390, 814.0, 28.5307
47.654888416, 96.390, 824.0, 28.7054
47.681148981, 96.390, 798.0, 28.2489
47.707409547, 96.390, 791.0, 28.1247
47.733670112, 96.390, 805.0, 28.3725
47.759930677, 96.390, 806.0, 28.3901
47.786191243, 96.390, 746.0, 27.3130
47.812451808, 96.390, 765.0, 27.6586
47.838712373, 96.390, 772.0, 27.7849
47.864972939, 96.390, 748.0, 27.3496
47.891233504, 96.390, 854.0, 29.2233
47.917494069, 96.390, 798.0, 28.2489
47.943754635, 96.390, 809.0, 28.4429
47.970015200, 96.390, 791.0, 28.1247
47.996275766, 96.390, 815.0, 28.5482
48.022536331, 96.390, 796.0, 28.2135
48.048796896, 96.390, 817.0, 28.5832
48.075057462, 96.390, 733.0, 27.0740
48.101318027, 96.390, 837.0, 28.9310
48.127578592, 96.390, 788.0, 28.0713
48.153839158, 96.390, 775.0, 27.8388
48.180099723, 96.390, 789.0, 28.0891
48.206360288, 96.390, 838.0, 28.9482
48.232620854, 96.390, 781.0, 27.9464
48.258881419, 96.390, 824.0, 28.7054
48.285141984, 96.390, 749.0, 27.3679
48.311402550, 96.390, 764.0, 27.6405
48.337663115, 96.390, 770.0, 27.7489
48.363923681, 96.390, 770.0, 27.7489
48.390184246, 96.390, 756.0, 27.4955
48.416444811, 96.390, 772.0, 27.7849
48.442705377, 96.390, 803.0, 28.3373
48.468965942, 96.390, 798.0, 28.2489
48.495226507, 96.390, 784.0, 28.0000
48.521487073, 96.390, 756.0, 27.4955
48.547747638, 96.390, 735.0, 27.1109
48.574008203, 96.390, 800.0, 28.2843
48.600268769, 96.390, 826.0, 28.7402
48.626529334, 96.390, 797.0, 28.2312
48.652789899, 96.390, 774.0, 27.8209
48.679050465, 96.390, 744.0, 27.2764
48.705311030, 96.390, 711.0, 26.6646
48.731571595, 96.390, 812.0, 28.4956
48.757832161, 96.390, 823.0, 28.6880
48.784092726, 96.390, 789.0, 28.0891
48.810353292, 96.390, 753.0, 27.4408
48.836613857, 96.390, 772.0, 27.7849
48.862874422, 96.390, 762.0, 27.6043
48.889134988, 96.390, 774.0, 27.8209
48.915395553, 96.390, 737.0, 27.1477
48.941656118, 96.390, 782.0, 27.9643
48.967916684, 96.390, 725.0, 26.9258
48.994177249, 96.390, 799.0, 28.2666
49.020437814, 96.390, 761.0, 27.5862
49.046698380, 96.390, 735.0, 27.1109
49.072958945, 96.390, 770.0, 27.7489
49.099219510, 96.390, 767.0, 27.6948
49.125480076, 96.390, 746.0, 27.3130
49.151740641, 96.390, 739.0, 27.1846
49.178001207, 96.390, 778.0, 27.8927
49.204261772, 96.390, 725.0, 26.9258
49.230522337, 96.390, 756.0, 27.4955
49.256782903, 96.390, 782.0, 27.9643
49.283043468, 96.390, 772.0, 27.7849
49.309304033, 96.390, 736.0, 27.1293
49.335564599, 96.390, 760.0, 27.5681
49.361825164, 96.390, 780.0, 27.9285
49.388085729, 96.390, 745.0, 27.2947
49.414346295, 96.390, 747.0, 27.3313
49.440606860, 96.390, 722.0, 26.8701
49.466867425, 96.390, 728.0, 26.9815
49.493127991, 96.390, 752.0, 27.4226
49.519388556, 96.390, 688.0, 26.2298
49.545649121, 96.390, 743.0, 27.2580
49.571909687, 96.390, 703.0, 26.5141
49.598170252, 96.390, 733.0, 27.0740
49.624430818, 96.390, 711.0, 26.6646
49.650691383, 96.390, 732.0, 27.0555
49.676951948, 96.390, 733.0, 27.0740
49.703212514, 96.390, 750.0, 27.3861
49.729473079, 96.390, 763.0, 27.6225
49.755733644, 96.390, 758.0, 27.5318
49.781994210, 96.390, 731.0, 27.0370
49.808254775, 96.390, 740.0, 27.2029
49.834515340, 96.390, 772.0, 27.7849
49.860775906, 96.390, 746.0, 27.3130
49.887036471, 96.390, 730.0, 27.0185
49.913297036, 96.390, 727.0, 26.9629
49.939557602, 96.390, 741.0, 27.2213
49.965818167, 96.390, 776.0, 27.8568
49.992078733, 96.390, 706.0, 26.5707
50.018339298, 96.390, 756.0, 27.4955
50.044599863, 96.390, 711.0, 26.6646
50.070860429, 96.390, 727.0, 26.9629
50.097120994, 96.390, 798.0, 28.2489
50.123381559, 96.390, 691.0, 26.2869
50.149642125, 96.390, 745.0, 27.2947
50.175902690, 96.390, 678.0, 26.0384
50.202163255, 96.390, 692.0, 26.3059
50.228423821, 96.390, 731.0, 27.0370
50.254684386, 96.390, 751.0, 27.4044
50.280944951, 96.390, 765.0, 27.6586
50.307205517, 96.390, 697.0, 26.4008
50.333466082, 96.390, 733.0, 27.0740
50.359726647, 96.390, 731.0, 27.0370
50.385987213, 96.390, 782.0, 27.9643
50.412247778, 96.390, 780.0, 27.9285
50.438508344, 96.390, 670.0, 25.8844
50.464768909, 96.390, 759.0, 27.5500
50.491029474, 96.390, 704.0, 26.5330
50.517290040, 96.390, 700.0, 26.4575
50.543550605, 96.390, 764.0, 27.6405
50.569811170, 96.390, 670.0, 25.8844
50.596071736, 96.390, 666.0, 25.8070
50.622332301, 96.390, 757.0, 27.5136
50.648592866, 96.390, 762.0, 27.6043
50.674853432, 96.390, 727.0, 26.9629
50.701113997, 96.390, 725.0, 26.9258
50.727374562, 96.390, 703.0, 26.5141
50.753635128, 96.390, 718.0, 26.7955
50.779895693, 96.390, 733.0, 27.0740
50.806156258, 96.390, 708.0, 26.6083
50.832416824, 96.390, 704.0, 26.5330
50.858677389, 96.390, 692.0, 26.3059
50.884937955, 96.390, 686.0, 26.1916
50.911198520, 96.390, 706.0, 26.5707
50.937459085, 96.390, 689.0, 26.2488
50.963719651, 96.390, 678.0, 26.0384
50.989980216, 96.390, 688.0, 26.2298
51.016240781, 96.390, 704.0, 26.5330
51.042501347, 96.390, 716.0, 26.7582
51.068761912, 96.390, 710.0, 26.6458
51.095022477, 96.390, 721.0, 26.8514
51.121283043, 96.390, 693.0, 26.3249
51.147543608, 96.390, 691.0, 26.2869
51.173804173, 96.390, 729.0, 27.0000
51.200064739, 96.390, 698.0, 26.4197
51.226325304, 96.390, 688.0, 26.2298
51.252585870, 96.390, 688.0, 26.2298
51.278846435, 96.390, 742.0, 27.2397
51.305107000, 96.390, 678.0, 26.0384
51.331367566, 96.390, 716.0, 26.7582
51.357628131, 96.390, 690.0, 26.2679
51.383888696, 96.390, 690.0, 26.2679
51.410149262, 96.390, 664.0, 25.7682
51.436409827, 96.390, 747.0, 27.3313
51.462670392, 96.390, 671.0, 25.9037
51.488930958, 96.390, 741.0, 27.2213
51.515191523, 96.390, 651.0, 25.5147
51.541452088, 96.390, 686.0, 26.1916
51.567712654, 96.390, 681.0, 26.0960
51.593973219, 96.390, 730.0, 27.0185
51.620233784, 96.390, 693.0, 26.3249
51.646494350, 96.390, 685.0, 26.1725
51.672754915, 96.390, 697.0, 26.4008
51.699015481, 96.390, 698.0, 26.4197
51.725276046, 96.390, 670.0, 25.8844
51.751536611, 96.390, 737.0, 27.1477
51.777797177, 96.390, 681.0, 26.0960
51.804057742, 96.390, 749.0, 27.3679
51.830318307, 96.390, 715.0, 26.7395
51.856578873, 96.390, 707.0, 26.5895
51.882839438, 96.390, 711.0, 26.6646
51.909100003, 96.390, 680.0, 26.0768
51.935360569, 96.390, 707.0, 26.5895
51.961621134, 96.390, 709.0, 26.6271
51.987881699, 96.390, 664.0, 25.7682
52.014142265, 96.390, 673.0, 25.9422
52.040402830, 96.390, 660.0, 25.6905
52.066663396, 96.390, 708.0, 26.6083
52.092923961, 96.390, 626.0, 25.0200
52.119184526, 96.390, 710.0, 26.6458
52.145445092, 96.390, 642.0, 25.3377
52.171705657, 96.390, 718.0, 26.7955
52.197966222, 96.390, 737.0, 27.1477
52.224226788, 96.390, 683.0, 26.1343
52.250487353, 96.390, 644.0, 25.3772
52.276747918, 96.390, 697.0, 26.4008
52.303008484, 96.390, 643.0, 25.3574
52.329269049, 96.390, 722.0, 26.8701
52.355529614, 96.390, 711.0, 26.6646
52.381790180, 96.390, 738.0, 27.1662
52.408050745, 96.390, 687.0, 26.2107
52.434311310, 96.390, 665.0, 25.7876
52.460571876, 96.390, 664.0, 25.7682
52.486832441, 96.390, 667.0, 25.8263
52.513093007, 96.390, 575.0, 23.9792
52.539353572, 96.390, 705.0, 26.5518
52.565614137, 96.390, 698.0, 26.4197
52.591874703, 96.390, 673.0, 25.9422
52.618135268, 96.390, 670.0, 25.8844
52.644395833, 96.390, 657.0, 25.6320
52.670656399, 96.390, 652.0, 25.5343
52.696916964, 96.390, 679.0, 26.0576
52.723177529, 96.390, 666.0, 25.8070
52.749438095, 96.390, 644.0, 25.3772
52.775698660, 96.390, 705.0, 26.5518
52.801959225, 96.390, 709.0, 26.6271
52.828219791, 96.390, 641.0, 25.3180
52.854480356, 96.390, 708.0, 26.6083
52.880740922, 96.390, 650.0, 25.4951
52.907001487, 96.390, 694.0, 26.3439
52.933262052, 96.390, 692.0, 26.3059
52.959522618, 96.390, 684.0, 26.1534
52.985783183, 96.390, 706.0, 26.5707
53.012043748, 96.390, 651.0, 25.5147
53.038304314, 96.390, 680.0, 26.0768
53.064564879, 96.390, 696.0, 26.3818
53.090825444, 96.390, 693.0, 26.3249
53.117086010, 96.390, 680.0, 26.0768
53.143346575, 96.390, 686.0, 26.1916
53.169607140, 96.390, 670.0, 25.8844
53.195867706, 96.390, 608.0, 24.6577
53.222128271, 96.390, 698.0, 26.4197
53.248388836, 96.390, 627.0, 25.0400
53.274649402, 96.390, 678.0, 26.0384
53.300909967, 96.390, 656.0, 25.6125
53.327170533, 96.390, 679.0, 26.0576
53.353431098, 96.390, 669.0, 25.8650
53.379691663, 96.390, 668.0, 25.8457
53.405952229, 96.390, 672.0, 25.9230
53.432212794, 96.390, 686.0, 26.1916
53.458473359, 96.390, 643.0, 25.3574
53.484733925, 96.390, 685.0, 26.1725
53.510994490, 96.390, 699.0, 26.4386
53.537255055, 96.390, 622.0, 24.9399
53.563515621, 96.390, 638.0, 25.2587
53.589776186, 96.390, 686.0, 26.1916
53.616036751, 96.390, 673.0, 25.9422
53.642297317, 96.390, 619.0, 24.8797
53.668557882, 96.390, 647.0, 25.4362
53.694818448, 96.390, 705.0, 26.5518
53.721079013, 96.390, 740.0, 27.2029
53.747339578, 96.390, 679.0, 26.0576
53.773600144, 96.390, 628.0, 25.0599
53.799860709, 96.390, 622.0, 24.9399
53.826121274, 96.390, 698.0, 26.4197
53.852381840, 96.390, 672.0, 25.9230
53.878642405, 96.390, 653.0, 25.5539
53.904902970, 96.390, 641.0, 25.3180
53.931163536, 96.390, 650.0, 25.4951
53.957424101, 96.390, 654.0, 25.5734
53.983684666, 96.390, 668.0, 25.8457
54.009945232, 96.390, 678.0, 26.0384
54.036205797, 96.390, 627.0, 25.0400
54.062466362, 96.390, 669.0, 25.8650
54.088726928, 96.390, 660.0, 25.6905
54.114987493, 96.390, 687.0, 26.2107
54.141248059, 96.390, 680.0, 26.0768
54.167508624, 96.390, 648.0, 25.4558
54.193769189, 96.390, 651.0, 25.5147
54.220029755, 96.390, 658.0, 25.6515
54.246290320, 96.390, 726.0, 26.9444
54.272550885, 96.390, 647.0, 25.4362
54.298811451, 96.390, 637.0, 25.2389
54.325072016, 96.390, 641.0, 25.3180
54.351332581, 96.390, 705.0, 26.5518
54.377593147, 96.390, 701.0, 26.4764
54.403853712, 96.390, 646.0, 25.4165
54.430114277, 96.390, 623.0, 24.9600
54.456374843, 96.390, 635.0, 25.1992
54.482635408, 96.390, 637.0, 25.2389
54.508895973, 96.390, 685.0, 26.1725
54.535156539, 96.390, 674.0, 25.9615
54.561417104, 96.390, 625.0, 25.0000
54.587677670, 96.390, 642.0, 25.3377
54.613938235, 96.390, 694.0, 26.3439
54.640198800, 96.390, 685.0, 26.1725
54.666459366, 96.390, 686.0, 26.1916
54.692719931, 96.390, 656.0, 25.6125
54.718980496, 96.390, 705.0, 26.5518
54.745241062, 96.390, 683.0, 26.1343
54.771501627, 96.390, 682.0, 26.1151
54.797762192, 96.390, 602.0, 24.5357
54.824022758, 96.390, 652.0, 25.5343
54.850283323, 96.390, 668.0, 25.8457
54.876543888, 96.390, 678.0, 26.0384
54.902804454, 96.390, 616.0, 24.8193
54.929065019, 96.390, 604.0, 24.5764
54.955325585, 96.390, 657.0, 25.6320
54.981586150, 96.390, 668.0, 25.8457
55.007846715, 96.390, 667.0, 25.8263
55.034107281, 96.390, 638.0, 25.2587
55.060367846, 96.390, 695.0, 26.3629
55.086628411, 96.390, 692.0, 26.3059
55.112888977, 96.390, 675.0, 25.9808
55.139149542, 96.390, 655.0, 25.5930
55.165410107, 96.390, 634.0, 25.1794
55.191670673, 96.390, 690.0, 26.2679
55.217931238, 96.390, 675.0, 25.9808
55.244191803, 96.390, 693.0, 26.3249
55.270452369, 96.390, 643.0, 25.3574
55.296712934, 96.390, 670.0, 25.8844
55.322973499, 96.390, 658.0, 25.6515
55.349234065, 96.390, 675.0, 25.9808
55.375494630, 96.390, 692.0, 26.3059
55.401755196, 96.390, 643.0, 25.3574
55.428015761, 96.390, 650.0, 25.4951
55.454276326, 96.390, 693.0, 26.3249
55.480536892, 96.390, 711.0, 26.6646
55.506797457, 96.390, 631.0, 25.1197
55.533058022, 96.390, 659.0, 25.6710
55.559318588, 96.390, 660.0, 25.6905
55.585579153, 96.390, 651.0, 25.5147
55.611839718, 96.390, 697.0, 26.4008
55.638100284, 96.390, 681.0, 26.0960
55.664360849, 96.390, 620.0, 24.8998
55.690621414, 96.390, 678.0, 26.0384
55.716881980, 96.390, 653.0, 25.5539
55.743142545, 96.390, 676.0, 26.0000
55.769403111, 96.390, 632.0, 25.1396
55.795663676, 96.390, 696.0, 26.3818
55.821924241, 96.390, 682.0, 26.1151
55.848184807, 96.390, 693.0, 26.3249
55.874445372, 96.390, 669.0, 25.8650
55.900705937, 96.390, 679.0, 26.0576
55.926966503, 96.390, 720.0, 26.8328
55.953227068, 96.390, 717.0, 26.7769
55.979487633, 96.390, 645.0, 25.3969
56.005748199, 96.390, 657.0, 25.6320
56.032008764, 96.390, 699.0, 26.4386
56.058269329, 96.390, 612.0, 24.7386
56.084529895, 96.390, 690.0, 26.2679
56.110790460, 96.390, 691.0, 26.2869
56.137051025, 96.390, 733.0, 27.0740
56.163311591, 96.390, 660.0, 25.6905
56.189572156, 96.390, 685.0, 26.1725
56.215832722, 96.390, 677.0, 26.0192
56.242093287, 96.390, 663.0, 25.7488
56.268353852, 96.390, 678.0, 26.0384
56.294614418, 96.390, 661.0, 25.7099
56.320874983, 96.390, 670.0, 25.8844
56.347135548, 96.390, 684.0, 26.1534
56.373396114, 96.390, 727.0, 26.9629
56.399656679, 96.390, 662.0, 25.7294
56.425917244, 96.390, 685.0, 26.1725
56.452177810, 96.390, 690.0, 26.2679
56.478438375, 96.390, 656.0, 25.6125
56.504698940, 96.390, 704.0, 26.5330
56.530959506, 96.390, 688.0, 26.2298
56.557220071, 96.390, 655.0, 25.5930
56.583480637, 96.390, 684.0, 26.1534
56.609741202, 96.390, 718.0, 26.7955
56.636001767, 96.390, 637.0, 25.2389
56.662262333, 96.390, 655.0, 25.5930
56.688522898, 96.390, 688.0, 26.2298
56.714783463, 96.390, 718.0, 26.7955
56.741044029, 96.390, 661.0, 25.7099
56.767304594, 96.390, 690.0, 26.2679
56.793565159, 96.390, 680.0, 26.0768
56.819825725, 96.390, 707.0, 26.5895
56.846086290, 96.390, 660.0, 25.6905
56.872346855, 96.390, 695.0, 26.3629
56.898607421, 96.390, 661.0, 25.7099
56.924867986, 96.390, 721.0, 26.8514
56.951128551, 96.390, 649.0, 25.4755
56.977389117, 96.390, 658.0, 25.6515
57.003649682, 96.390, 668.0, 25.8457
57.029910248, 96.390, 711.0, 26.6646
57.056170813, 96.390, 680.0, 26.0768
57.082431378, 96.390, 680.0, 26.0768
57.108691944, 96.390, 655.0, 25.5930
57.134952509, 96.390, 694.0, 26.3439
57.161213074, 96.390, 679.0, 26.0576
57.187473640, 96.390, 646.0, 25.4165
57.213734205, 96.390, 674.0, 25.9615
57.239994770, 96.390, 676.0, 26.0000
57.266255336, 96.390, 704.0, 26.5330
57.292515901, 96.390, 666.0, 25.8070
57.318776466, 96.390, 662.0, 25.7294
57.345037032, 96.390, 672.0, 25.9230
57.371297597, 96.390, 639.0, 25.2784
57.397558163, 96.390, 654.0, 25.5734
57.423818728, 96.390, 666.0, 25.8070
57.450079293, 96.390, 675.0, 25.9808
57.476339859, 96.390, 658.0, 25.6515
57.502600424, 96.390, 731.0, 27.0370
57.528860989, 96.390, 665.0, 25.7876
57.555121555, 96.390, 671.0, 25.9037
57.581382120, 96.390, 658.0, 25.6515
57.607642685, 96.390, 702.0, 26.4953
57.633903251, 96.390, 704.0, 26.5330
57.660163816, 96.390, 686.0, 26.1916
57.686424381, 96.390, 623.0, 24.9600
57.712684947, 96.390, 681.0, 26.0960
57.738945512, 96.390, 674.0, 25.9615
57.765206077, 96.390, 672.0, 25.9230
57.791466643, 96.390, 654.0, 25.5734
57.817727208, 96.390, 699.0, 26.4386
57.843987774, 96.390, 702.0, 26.4953
57.870248339, 96.390, 681.0, 26.0960
57.896508904, 96.390, 661.0, 25.7099
57.922769470, 96.390, 659.0, 25.6710
57.949030035, 96.390, 686.0, 26.1916
57.975290600, 96.390, 698.0, 26.4197
58.001551166, 96.390, 725.0, 26.9258
58.027811731, 96.390, 680.0, 26.0768
58.054072296, 96.390, 692.0, 26.3059
58.080332862, 96.390, 697.0, 26.4008
58.106593427, 96.390, 675.0, 25.9808
58.132853992, 96.390, 712.0, 26.6833
58.159114558, 96.390, 690.0, 26.2679
58.185375123, 96.390, 711.0, 26.6646
58.211635689, 96.390, 689.0, 26.2488
58.237896254, 96.390, 707.0, 26.5895
58.264156819, 96.390, 674.0, 25.9615
58.290417385, 96.390, 737.0, 27.1477
58.316677950, 96.390, 669.0, 25.8650
58.342938515, 96.390, 672.0, 25.9230
58.369199081, 96.390, 699.0, 26.4386
58.395459646, 96.390, 732.0, 27.0555
58.421720211, 96.390, 669.0, 25.8650
58.447980777, 96.390, 697.0, 26.4008
58.474241342, 96.390, 711.0, 26.6646
58.500501907, 96.390, 729.0, 27.0000
58.526762473, 96.390, 706.0, 26.5707
58.553023038, 96.390, 724.0, 26.9072
58.579283603, 96.390, 696.0, 26.3818
58.605544169, 96.390, 736.0, 27.1293
58.631804734, 96.390, 674.0, 25.9615
58.658065300, 96.390, 692.0, 26.3059
58.684325865, 96.390, 747.0, 27.3313
58.710586430, 96.390, 715.0, 26.7395
58.736846996, 96.390, 733.0, 27.0740
58.763107561, 96.390, 682.0, 26.1151
58.789368126, 96.390, 659.0, 25.6710
58.815628692, 96.390, 724.0, 26.9072
58.841889257, 96.390, 724.0, 26.9072
58.868149822, 96.390, 649.0, 25.4755
58.894410388, 96.390, 719.0, 26.8142
58.920670953, 96.390, 711.0, 26.6646
58.946931518, 96.390, 683.0, 26.1343
58.973192084, 96.390, 648.0, 25.4558
58.999452649, 96.390, 703.0, 26.5141
59.025713214, 96.390, 731.0, 27.0370
59.051973780, 96.390, 688.0, 26.2298
59.078234345, 96.390, 710.0, 26.6458
59.104494911, 96.390, 719.0, 26.8142
59.130755476, 96.390, 724.0, 26.9072
59.157016041, 96.390, 704.0, 26.5330
59.183276607, 96.390, 690.0, 26.2679
59.209537172, 96.390, 726.0, 26.9444
59.235797737, 96.390, 752.0, 27.4226
59.262058303, 96.390, 752.0, 27.4226
59.288318868, 96.390, 737.0, 27.1477
59.314579433, 96.390, 695.0, 26.3629
59.340839999, 96.390, 765.0, 27.6586
59.367100564, 96.390, 694.0, 26.3439
59.393361129, 96.390, 734.0, 27.0924
59.419621695, 96.390, 703.0, 26.5141
59.445882260, 96.390, 707.0, 26.5895
59.472142826, 96.390, 717.0, 26.7769
59.498403391, 96.390, 732.0, 27.0555
59.524663956, 96.390, 738.0, 27.1662
59.550924522, 96.390, 632.0, 25.1396
59.577185087, 96.390, 717.0, 26.7769
59.603445652, 96.390, 744.0, 27.2764
59.629706218, 96.390, 771.0, 27.7669
59.655966783, 96.390, 700.0, 26.4575
59.682227348, 96.390, 729.0, 27.0000
59.708487914, 96.390, 763.0, 27.6225
59.734748479, 96.390, 731.0, 27.0370
59.761009044, 96.390, 698.0, 26.4197
59.787269610, 96.390, 683.0, 26.1343
59.813530175, 96.390, 740.0, 27.2029
59.839790740, 96.390, 753.0, 27.4408
59.866051306, 96.390, 720.0, 26.8328
59.892311871, 96.390, 704.0, 26.5330
59.918572437, 96.390, 757.0, 27.5136
59.944833002, 96.390, 710.0, 26.6458
59.971093567, 96.390, 730.0, 27.0185
59.997354133, 96.390, 723.0, 26.8887
60.023614698, 96.390, 726.0, 26.9444
60.049875263, 96.390, 762.0, 27.6043
60.076135829, 96.390, 732.0, 27.0555
60.102396394, 96.390, 733.0, 27.0740
60.128656959, 96.390, 729.0, 27.0000
60.154917525, 96.390, 766.0, 27.6767
60.181178090, 96.390, 742.0, 27.2397
60.207438655, 96.390, 748.0, 27.3496
60.233699221, 96.390, 742.0, 27.2397
60.259959786, 96.390, 709.0, 26.6271
60.286220352, 96.390, 699.0, 26.4386
60.312480917, 96.390, 764.0, 27.6405
60.338741482, 96.390, 783.0, 27.9821
60.365002048, 96.390, 749.0, 27.3679
60.391262613, 96.390, 723.0, 26.8887
60.417523178, 96.390, 761.0, 27.5862
60.443783744, 96.390, 733.0, 27.0740
60.470044309, 96.390, 721.0, 26.8514
60.496304874, 96.390, 748.0, 27.3496
60.522565440, 96.390, 753.0, 27.4408
60.548826005, 96.390, 761.0, 27.5862
60.575086570, 96.390, 769.0, 27.7308
60.601347136, 96.390, 760.0, 27.5681
60.627607701, 96.390, 731.0, 27.0370
60.653868266, 96.390, 765.0, 27.6586
60.680128832, 96.390, 758.0, 27.5318
60.706389397, 96.390, 745.0, 27.2947
60.732649963, 96.390, 766.0, 27.6767
60.758910528, 96.390, 742.0, 27.2397
60.785171093, 96.390, 781.0, 27.9464
60.811431659, 96.390, 745.0, 27.2947
60.837692224, 96.390, 756.0, 27.4955
60.863952789, 96.390, 800.0, 28.2843
60.890213355, 96.390, 803.0, 28.3373
60.916473920, 96.390, 811.0, 28.4781
60.942734485, 96.390, 793.0, 28.1603
60.968995051, 96.390, 752.0, 27.4226
60.995255616, 96.390, 825.0, 28.7228
61.021516181, 96.390, 824.0, 28.7054
61.047776747, 96.390, 838.0, 28.9482
61.074037312, 96.390, 780.0, 27.9285
61.100297878, 96.390, 803.0, 28.3373
61.126558443, 96.390, 796.0, 28.2135
61.152819008, 96.390, 794.0, 28.1780
61.179079574, 96.390, 778.0, 27.8927
61.205340139, 96.390, 814.0, 28.5307
61.231600704, 96.390, 814.0, 28.5307
61.257861270, 96.390, 805.0, 28.3725
61.284121835, 96.390, 795.0, 28.1957
61.310382400, 96.390, 828.0, 28.7750
61.336642966, 96.390, 766.0, 27.6767
61.362903531, 96.390, 813.0, 28.5132
61.389164096, 96.390, 865.0, 29.4109
61.415424662, 96.390, 824.0, 28.7054
61.441685227, 96.390, 762.0, 27.6043
61.467945792, 96.390, 812.0, 28.4956
61.494206358, 96.390, 850.0, 29.1548
61.520466923, 96.390, 830.0, 28.8097
61.546727489, 96.390, 795.0, 28.1957
61.572988054, 96.390, 831.0, 28.8271
61.599248619, 96.390, 837.0, 28.9310
61.625509185, 96.390, 863.0, 29.3769
61.651769750, 96.390, 894.0, 29.8998
61.678030315, 96.390, 854.0, 29.2233
61.704290881, 96.390, 862.0, 29.3598
61.730551446, 96.390, 876.0, 29.5973
61.756812011, 96.390, 903.0, 30.0500
61.783072577, 96.390, 877.0, 29.6142
61.809333142, 96.390, 866.0, 29.4279
61.835593707, 96.390, 920.0, 30.3315
61.861854273, 96.390, 938.0, 30.6268
61.888114838, 96.390, 904.0, 30.0666
61.914375404, 96.390, 885.0, 29.7489
61.940635969, 96.390, 910.0, 30.1662
61.966896534, 96.390, 881.0, 29.6816
61.993157100, 96.390, 937.0, 30.6105
62.019417665, 96.390, 922.0, 30.3645
62.045678230, 96.390, 942.0, 30.6920
62.071938796, 96.390, 989.0, 31.4484
62.098199361, 96.390, 951.0, 30.8383
62.124459926, 96.390, 987.0, 31.4166
62.150720492, 96.390, 969.0, 31.1288
62.176981057, 96.390, 999.0, 31.6070
62.203241622, 96.390, 1028.0, 32.0624
62.229502188, 96.390, 970.0, 31.1448
62.255762753, 96.390, 1081.0, 32.8786
62.282023318, 96.390, 1020.0, 31.9374
62.308283884, 96.390, 1061.0, 32.5730
62.334544449, 96.390, 993.0, 31.5119
62.360805015, 96.390, 1079.0, 32.8481
62.387065580, 96.390, 1097.0, 33.1210
62.413326145, 96.390, 1059.0, 32.5423
62.439586711, 96.390, 1116.0, 33.4066
62.465847276, 96.390, 996.0, 31.5595
62.492107841, 96.390, 1031.0, 32.1092
62.518368407, 96.390, 1029.0, 32.0780
62.544628972, 96.390, 1002.0, 31.6544
62.570889537, 96.390, 1023.0, 31.9844
62.597150103, 96.390, 976.0, 31.2410
62.623410668, 96.390, 991.0, 31.4802
62.649671233, 96.390, 986.0, 31.4006
62.675931799, 96.390, 948.0, 30.7896
62.702192364, 96.390, 924.0, 30.3974
62.728452930, 96.390, 957.0, 30.9354
62.754713495, 96.390, 985.0, 31.3847
62.780974060, 96.390, 893.0, 29.8831
62.807234626, 96.390, 885.0, 29.7489
62.833495191, 96.390, 893.0, 29.8831
62.859755756, 96.390, 883.0, 29.7153
62.886016322, 96.390, 909.0, 30.1496
62.912276887, 96.390, 899.0, 29.9833
62.938537452, 96.390, 923.0, 30.3809
62.964798018, 96.390, 890.0, 29.8329
62.991058583, 96.390, 946.0, 30.7571
63.017319148, 96.390, 894.0, 29.8998
63.043579714, 96.390, 930.0, 30.4959
63.069840279, 96.390, 880.0, 29.6648
63.096100844, 96.390, 888.0, 29.7993
63.122361410, 96.390, 850.0, 29.1548
63.148621975, 96.390, 909.0, 30.1496
63.174882541, 96.390, 890.0, 29.8329
63.201143106, 96.390, 901.0, 30.0167
63.227403671, 96.390, 842.0, 29.0172
63.253664237, 96.390, 837.0, 28.9310
63.279924802, 96.390, 821.0, 28.6531
63.306185367, 96.390, 837.0, 28.9310
63.332445933, 96.390, 870.0, 29.4958
63.358706498, 96.390, 871.0, 29.5127
63.384967063, 96.390, 901.0, 30.0167
63.411227629, 96.390, 891.0, 29.8496
63.437488194, 96.390, 842.0, 29.0172
63.463748759, 96.390, 878.0, 29.6311
63.490009325, 96.390, 889.0, 29.8161
63.516269890, 96.390, 847.0, 29.1033
63.542530455, 96.390, 850.0, 29.1548
63.568791021, 96.390, 836.0, 28.9137
63.595051586, 96.390, 798.0, 28.2489
63.621312152, 96.390, 863.0, 29.3769
63.647572717, 96.390, 862.0, 29.3598
63.673833282, 96.390, 847.0, 29.1033
63.700093848, 96.390, 831.0, 28.8271
63.726354413, 96.390, 850.0, 29.1548
63.752614978, 96.390, 884.0, 29.7321
63.778875544, 96.390, 849.0, 29.1376
63.805136109, 96.390, 868.0, 29.4618
63.831396674, 96.390, 858.0, 29.2916
63.857657240, 96.390, 789.0, 28.0891
63.883917805, 96.390, 860.0, 29.3258
63.910178370, 96.390, 862.0, 29.3598
63.936438936, 96.390, 897.0, 29.9500
63.962699501, 96.390, 832.0, 28.8444
63.988960067, 96.390, 829.0, 28.7924
64.015220632, 96.390, 861.0, 29.3428
64.041481197, 96.390, 854.0, 29.2233
64.067741763, 96.390, 800.0, 28.2843
64.094002328, 96.390, 885.0, 29.7489
64.120262893, 96.390, 847.0, 29.1033
64.146523459, 96.390, 885.0, 29.7489
64.172784024, 96.390, 849.0, 29.1376
64.199044589, 96.390, 879.0, 29.6479
64.225305155, 96.390, 959.0, 30.9677
64.251565720, 96.390, 877.0, 29.6142
64.277826285, 96.390, 840.0, 28.9828
64.304086851, 96.390, 850.0, 29.1548
64.330347416, 96.390, 887.0, 29.7825
64.356607981, 96.390, 871.0, 29.5127
64.382868547, 96.390, 880.0, 29.6648
64.409129112, 96.390, 874.0, 29.5635
64.435389678, 96.390, 893.0, 29.8831
64.461650243, 96.390, 889.0, 29.8161
64.487910808, 96.390, 898.0, 29.9666
64.514171374, 96.390, 822.0, 28.6705
64.540431939, 96.390, 869.0, 29.4788
64.566692504, 96.390, 873.0, 29.5466
64.592953070, 96.390, 894.0, 29.8998
64.619213635, 96.390, 851.0, 29.1719
64.645474200, 96.390, 906.0, 30.0998
64.671734766, 96.390, 834.0, 28.8791
64.697995331, 96.390, 867.0, 29.4449
64.724255896, 96.390, 878.0, 29.6311
64.750516462, 96.390, 855.0, 29.2404
64.776777027, 96.390, 908.0, 30.1330
64.803037593, 96.390, 845.0, 29.0689
64.829298158, 96.390, 867.0, 29.4449
64.855558723, 96.390, 877.0, 29.6142
64.881819289, 96.390, 866.0, 29.4279
64.908079854, 96.390, 910.0, 30.1662
64.934340419, 96.390, 827.0, 28.7576
64.960600985, 96.390, 812.0, 28.4956
64.986861550, 96.390, 899.0, 29.9833
