[Measurement conditions]
Sample identification,XRD_CentroidPrecursor08Dec21_B3_1
Comment - 1,"Configuration=Stage for Flat Samples/Holders, Owner=User-1, Creation date=7/1/2020 9:53:24 AM"
Comment - 2,"Goniometer=Theta/Theta; Minimum step size 2Theta:0.0001; Minimum step size Omega:0.0001"
Comment - 3,"Sample stage=Stage for flat samples/holders"
Comment - 4,"Diffractometer system=EMPYREAN"
Comment - 5,"Measurement program=C:\Users\ibo5034\OneDrive - The Pennsylvania State University\NEUP\Zerobackground scan.xrdmp, Identifier={98A3B11C-88F9-4AA6-982C-73314A311EF5}"
Anode material,Cu
K-Alpha1 wavelength,1.5405980
K-Alpha2 wavelength,1.5444260
Ratio K-Alpha2/K-Alpha1,0.500
Divergence slit,Fixed,0.25
Monochromator used,NO
Generator voltage, 45
Tube current, 40
File date and time,10/Mar/2022 12:48
Unit cell,
h k l, 0 0 0
Scan axis,Gonio
Scan range,4.994599997,64.999991833
Scan step size,0.0262606
No. of points, 2285
Scan type,CONTINUOUS
Time per step,96.390
[Scan points]
Angle, TimePerStep, Intensity, ESD
5.007730280, 96.390, 4729.0, 68.7677
5.033990845, 96.390, 4881.0, 69.8642
5.060251411, 96.390, 4607.0, 67.8749
5.086511976, 96.390, 4707.0, 68.6076
5.112772541, 96.390, 4565.0, 67.5648
5.139033107, 96.390, 4715.0, 68.6659
5.165293672, 96.390, 4530.0, 67.3053
5.191554237, 96.390, 4604.0, 67.8528
5.217814803, 96.390, 4449.0, 66.7008
5.244075368, 96.390, 4313.0, 65.6734
5.270335934, 96.390, 4528.0, 67.2904
5.296596499, 96.390, 4361.0, 66.0379
5.322857064, 96.390, 4262.0, 65.2840
5.349117630, 96.390, 4339.0, 65.8711
5.375378195, 96.390, 4302.0, 65.5896
5.401638760, 96.390, 4305.0, 65.6125
5.427899326, 96.390, 4193.0, 64.7534
5.454159891, 96.390, 4185.0, 64.6916
5.480420456, 96.390, 4106.0, 64.0781
5.506681022, 96.390, 4191.0, 64.7379
5.532941587, 96.390, 4135.0, 64.3040
5.559202152, 96.390, 4120.0, 64.1872
5.585462718, 96.390, 4014.0, 63.3561
5.611723283, 96.390, 4098.0, 64.0156
5.637983849, 96.390, 3935.0, 62.7296
5.664244414, 96.390, 3957.0, 62.9047
5.690504979, 96.390, 4031.0, 63.4902
5.716765545, 96.390, 3971.0, 63.0159
5.743026110, 96.390, 3911.0, 62.5380
5.769286675, 96.390, 3909.0, 62.5220
5.795547241, 96.390, 3691.0, 60.7536
5.821807806, 96.390, 3800.0, 61.6441
5.848068371, 96.390, 3849.0, 62.0403
5.874328937, 96.390, 3877.0, 62.2656
5.900589502, 96.390, 3905.0, 62.4900
5.926850067, 96.390, 3807.0, 61.7009
5.953110633, 96.390, 3810.0, 61.7252
5.979371198, 96.390, 3865.0, 62.1691
6.005631763, 96.390, 3683.0, 60.6877
6.031892329, 96.390, 3796.0, 61.6117
6.058152894, 96.390, 3788.0, 61.5467
6.084413460, 96.390, 3803.0, 61.6685
6.110674025, 96.390, 3672.0, 60.5970
6.136934590, 96.390, 3792.0, 61.5792
6.163195156, 96.390, 3608.0, 60.0666
6.189455721, 96.390, 3681.0, 60.6712
6.215716286, 96.390, 3567.0, 59.7244
6.241976852, 96.390, 3605.0, 60.0417
6.268237417, 96.390, 3655.0, 60.4566
6.294497982, 96.390, 3661.0, 60.5062
6.320758548, 96.390, 3570.0, 59.7495
6.347019113, 96.390, 3632.0, 60.2661
6.373279678, 96.390, 3660.0, 60.4979
6.399540244, 96.390, 3517.0, 59.3043
6.425800809, 96.390, 3494.0, 59.1101
6.452061375, 96.390, 3641.0, 60.3407
6.478321940, 96.390, 3641.0, 60.3407
6.504582505, 96.390, 3493.0, 59.1016
6.530843071, 96.390, 3563.0, 59.6909
6.557103636, 96.390, 3400.0, 58.3095
6.583364201, 96.390, 3376.0, 58.1034
6.609624767, 96.390, 3488.0, 59.0593
6.635885332, 96.390, 3432.0, 58.5833
6.662145897, 96.390, 3443.0, 58.6771
6.688406463, 96.390, 3423.0, 58.5064
6.714667028, 96.390, 3489.0, 59.0678
6.740927593, 96.390, 3507.0, 59.2199
6.767188159, 96.390, 3406.0, 58.3609
6.793448724, 96.390, 3359.0, 57.9569
6.819709289, 96.390, 3373.0, 58.0775
6.845969855, 96.390, 3480.0, 58.9915
6.872230420, 96.390, 3336.0, 57.7581
6.898490986, 96.390, 3289.0, 57.3498
6.924751551, 96.390, 3358.0, 57.9483
6.951012116, 96.390, 3277.0, 57.2451
6.977272682, 96.390, 3357.0, 57.9396
7.003533247, 96.390, 3372.0, 58.0689
7.029793812, 96.390, 3329.0, 57.6975
7.056054378, 96.390, 3238.0, 56.9034
7.082314943, 96.390, 3297.0, 57.4195
7.108575508, 96.390, 3229.0, 56.8243
7.134836074, 96.390, 3233.0, 56.8595
7.161096639, 96.390, 3249.0, 57.0000
7.187357204, 96.390, 3311.0, 57.5413
7.213617770, 96.390, 3282.0, 57.2887
7.239878335, 96.390, 3195.0, 56.5243
7.266138900, 96.390, 3143.0, 56.0625
7.292399466, 96.390, 3240.0, 56.9210
7.318660031, 96.390, 3307.0, 57.5065
7.344920597, 96.390, 3227.0, 56.8067
7.371181162, 96.390, 3242.0, 56.9386
7.397441727, 96.390, 3122.0, 55.8749
7.423702293, 96.390, 3210.0, 56.6569
7.449962858, 96.390, 3226.0, 56.7979
7.476223423, 96.390, 3156.0, 56.1783
7.502483989, 96.390, 3151.0, 56.1338
7.528744554, 96.390, 3215.0, 56.7010
7.555005119, 96.390, 3084.0, 55.5338
7.581265685, 96.390, 3158.0, 56.1961
7.607526250, 96.390, 3228.0, 56.8155
7.633786815, 96.390, 3083.0, 55.5248
7.660047381, 96.390, 3140.0, 56.0357
7.686307946, 96.390, 3143.0, 56.0625
7.712568512, 96.390, 3137.0, 56.0089
7.738829077, 96.390, 2986.0, 54.6443
7.765089642, 96.390, 3106.0, 55.7315
7.791350208, 96.390, 3196.0, 56.5332
7.817610773, 96.390, 3135.0, 55.9911
7.843871338, 96.390, 3027.0, 55.0182
7.870131904, 96.390, 3133.0, 55.9732
7.896392469, 96.390, 3032.0, 55.0636
7.922653034, 96.390, 3008.0, 54.8452
7.948913600, 96.390, 3046.0, 55.1906
7.975174165, 96.390, 3004.0, 54.8088
8.001434730, 96.390, 3073.0, 55.4346
8.027695296, 96.390, 2991.0, 54.6900
8.053955861, 96.390, 2977.0, 54.5619
8.080216426, 96.390, 3023.0, 54.9818
8.106476992, 96.390, 2881.0, 53.6749
8.132737557, 96.390, 2935.0, 54.1756
8.158998123, 96.390, 2900.0, 53.8516
8.185258688, 96.390, 2993.0, 54.7083
8.211519253, 96.390, 2907.0, 53.9166
8.237779819, 96.390, 2912.0, 53.9630
8.264040384, 96.390, 3004.0, 54.8088
8.290300949, 96.390, 2969.0, 54.4885
8.316561515, 96.390, 2937.0, 54.1941
8.342822080, 96.390, 2860.0, 53.4790
8.369082645, 96.390, 2970.0, 54.4977
8.395343211, 96.390, 2914.0, 53.9815
8.421603776, 96.390, 2980.0, 54.5894
8.447864341, 96.390, 2930.0, 54.1295
8.474124907, 96.390, 2873.0, 53.6004
8.500385472, 96.390, 2900.0, 53.8516
8.526646038, 96.390, 2919.0, 54.0278
8.552906603, 96.390, 2795.0, 52.8678
8.579167168, 96.390, 2963.0, 54.4334
8.605427734, 96.390, 2799.0, 52.9056
8.631688299, 96.390, 2813.0, 53.0377
8.657948864, 96.390, 2873.0, 53.6004
8.684209430, 96.390, 2941.0, 54.2310
8.710469995, 96.390, 2800.0, 52.9150
8.736730560, 96.390, 2850.0, 53.3854
8.762991126, 96.390, 2866.0, 53.5350
8.789251691, 96.390, 2898.0, 53.8331
8.815512256, 96.390, 2824.0, 53.1413
8.841772822, 96.390, 2733.0, 52.2781
8.868033387, 96.390, 2782.0, 52.7447
8.894293952, 96.390, 2807.0, 52.9811
8.920554518, 96.390, 2804.0, 52.9528
8.946815083, 96.390, 2825.0, 53.1507
8.973075649, 96.390, 2751.0, 52.4500
8.999336214, 96.390, 2706.0, 52.0192
9.025596779, 96.390, 2754.0, 52.4786
9.051857345, 96.390, 2837.0, 53.2635
9.078117910, 96.390, 2761.0, 52.5452
9.104378475, 96.390, 2800.0, 52.9150
9.130639041, 96.390, 2700.0, 51.9615
9.156899606, 96.390, 2830.0, 53.1977
9.183160171, 96.390, 2780.0, 52.7257
9.209420737, 96.390, 2713.0, 52.0865
9.235681302, 96.390, 2794.0, 52.8583
9.261941867, 96.390, 2718.0, 52.1344
9.288202433, 96.390, 2686.0, 51.8266
9.314462998, 96.390, 2658.0, 51.5558
9.340723564, 96.390, 2702.0, 51.9808
9.366984129, 96.390, 2772.0, 52.6498
9.393244694, 96.390, 2706.0, 52.0192
9.419505260, 96.390, 2718.0, 52.1344
9.445765825, 96.390, 2661.0, 51.5849
9.472026390, 96.390, 2719.0, 52.1440
9.498286956, 96.390, 2666.0, 51.6333
9.524547521, 96.390, 2678.0, 51.7494
9.550808086, 96.390, 2666.0, 51.6333
9.577068652, 96.390, 2668.0, 51.6527
9.603329217, 96.390, 2743.0, 52.3737
9.629589782, 96.390, 2730.0, 52.2494
9.655850348, 96.390, 2666.0, 51.6333
9.682110913, 96.390, 2669.0, 51.6624
9.708371478, 96.390, 2563.0, 50.6261
9.734632044, 96.390, 2697.0, 51.9326
9.760892609, 96.390, 2598.0, 50.9706
9.787153175, 96.390, 2654.0, 51.5170
9.813413740, 96.390, 2524.0, 50.2394
9.839674305, 96.390, 2595.0, 50.9411
9.865934871, 96.390, 2614.0, 51.1273
9.892195436, 96.390, 2622.0, 51.2055
9.918456001, 96.390, 2685.0, 51.8170
9.944716567, 96.390, 2633.0, 51.3128
9.970977132, 96.390, 2743.0, 52.3737
9.997237697, 96.390, 2647.0, 51.4490
10.023498263, 96.390, 2548.0, 50.4777
10.049758828, 96.390, 2624.0, 51.2250
10.076019393, 96.390, 2556.0, 50.5569
10.102279959, 96.390, 2540.0, 50.3984
10.128540524, 96.390, 2594.0, 50.9313
10.154801090, 96.390, 2454.0, 49.5379
10.181061655, 96.390, 2516.0, 50.1597
10.207322220, 96.390, 2549.0, 50.4876
10.233582786, 96.390, 2540.0, 50.3984
10.259843351, 96.390, 2521.0, 50.2096
10.286103916, 96.390, 2592.0, 50.9117
10.312364482, 96.390, 2621.0, 51.1957
10.338625047, 96.390, 2509.0, 50.0899
10.364885612, 96.390, 2609.0, 51.0784
10.391146178, 96.390, 2501.0, 50.0100
10.417406743, 96.390, 2525.0, 50.2494
10.443667308, 96.390, 2576.0, 50.7543
10.469927874, 96.390, 2546.0, 50.4579
10.496188439, 96.390, 2579.0, 50.7839
10.522449004, 96.390, 2513.0, 50.1298
10.548709570, 96.390, 2469.0, 49.6890
10.574970135, 96.390, 2511.0, 50.1099
10.601230701, 96.390, 2429.0, 49.2849
10.627491266, 96.390, 2528.0, 50.2792
10.653751831, 96.390, 2434.0, 49.3356
10.680012397, 96.390, 2496.0, 49.9600
10.706272962, 96.390, 2475.0, 49.7494
10.732533527, 96.390, 2571.0, 50.7050
10.758794093, 96.390, 2472.0, 49.7192
10.785054658, 96.390, 2443.0, 49.4267
10.811315223, 96.390, 2489.0, 49.8899
10.837575789, 96.390, 2446.0, 49.4571
10.863836354, 96.390, 2428.0, 49.2747
10.890096919, 96.390, 2420.0, 49.1935
10.916357485, 96.390, 2463.0, 49.6286
10.942618050, 96.390, 2515.0, 50.1498
10.968878616, 96.390, 2510.0, 50.0999
10.995139181, 96.390, 2433.0, 49.3254
11.021399746, 96.390, 2422.0, 49.2138
11.047660312, 96.390, 2338.0, 48.3529
11.073920877, 96.390, 2512.0, 50.1199
11.100181442, 96.390, 2434.0, 49.3356
11.126442008, 96.390, 2447.0, 49.4672
11.152702573, 96.390, 2483.0, 49.8297
11.178963138, 96.390, 2384.0, 48.8262
11.205223704, 96.390, 2426.0, 49.2544
11.231484269, 96.390, 2392.0, 48.9081
11.257744834, 96.390, 2316.0, 48.1248
11.284005400, 96.390, 2357.0, 48.5489
11.310265965, 96.390, 2457.0, 49.5681
11.336526530, 96.390, 2382.0, 48.8057
11.362787096, 96.390, 2413.0, 49.1223
11.389047661, 96.390, 2449.0, 49.4874
11.415308227, 96.390, 2358.0, 48.5592
11.441568792, 96.390, 2410.0, 49.0918
11.467829357, 96.390, 2397.0, 48.9592
11.494089923, 96.390, 2376.0, 48.7442
11.520350488, 96.390, 2344.0, 48.4149
11.546611053, 96.390, 2353.0, 48.5077
11.572871619, 96.390, 2356.0, 48.5386
11.599132184, 96.390, 2294.0, 47.8957
11.625392749, 96.390, 2342.0, 48.3942
11.651653315, 96.390, 2372.0, 48.7032
11.677913880, 96.390, 2283.0, 47.7807
11.704174445, 96.390, 2329.0, 48.2597
11.730435011, 96.390, 2276.0, 47.7074
11.756695576, 96.390, 2338.0, 48.3529
11.782956141, 96.390, 2292.0, 47.8748
11.809216707, 96.390, 2364.0, 48.6210
11.835477272, 96.390, 2313.0, 48.0937
11.861737838, 96.390, 2278.0, 47.7284
11.887998403, 96.390, 2318.0, 48.1456
11.914258968, 96.390, 2178.0, 46.6690
11.940519534, 96.390, 2325.0, 48.2183
11.966780099, 96.390, 2269.0, 47.6340
11.993040664, 96.390, 2318.0, 48.1456
12.019301230, 96.390, 2292.0, 47.8748
12.045561795, 96.390, 2254.0, 47.4763
12.071822360, 96.390, 2358.0, 48.5592
12.098082926, 96.390, 2326.0, 48.2286
12.124343491, 96.390, 2228.0, 47.2017
12.150604056, 96.390, 2330.0, 48.2701
12.176864622, 96.390, 2201.0, 46.9148
12.203125187, 96.390, 2292.0, 47.8748
12.229385753, 96.390, 2185.0, 46.7440
12.255646318, 96.390, 2191.0, 46.8081
12.281906883, 96.390, 2109.0, 45.9239
12.308167449, 96.390, 2265.0, 47.5920
12.334428014, 96.390, 2307.0, 48.0312
12.360688579, 96.390, 2170.0, 46.5833
12.386949145, 96.390, 2291.0, 47.8644
12.413209710, 96.390, 2277.0, 47.7179
12.439470275, 96.390, 2267.0, 47.6130
12.465730841, 96.390, 2276.0, 47.7074
12.491991406, 96.390, 2151.0, 46.3789
12.518251971, 96.390, 2272.0, 47.6655
12.544512537, 96.390, 2191.0, 46.8081
12.570773102, 96.390, 2175.0, 46.6369
12.597033667, 96.390, 2197.0, 46.8722
12.623294233, 96.390, 2180.0, 46.6905
12.649554798, 96.390, 2152.0, 46.3897
12.675815364, 96.390, 2183.0, 46.7226
12.702075929, 96.390, 2177.0, 46.6583
12.728336494, 96.390, 2174.0, 46.6262
12.754597060, 96.390, 2250.0, 47.4342
12.780857625, 96.390, 2154.0, 46.4112
12.807118190, 96.390, 2134.0, 46.1952
12.833378756, 96.390, 2187.0, 46.7654
12.859639321, 96.390, 2218.0, 47.0956
12.885899886, 96.390, 2215.0, 47.0638
12.912160452, 96.390, 2160.0, 46.4758
12.938421017, 96.390, 2139.0, 46.2493
12.964681582, 96.390, 2140.0, 46.2601
12.990942148, 96.390, 2214.0, 47.0532
13.017202713, 96.390, 2190.0, 46.7974
13.043463279, 96.390, 2164.0, 46.5188
13.069723844, 96.390, 2159.0, 46.4650
13.095984409, 96.390, 2190.0, 46.7974
13.122244975, 96.390, 2097.0, 45.7930
13.148505540, 96.390, 2113.0, 45.9674
13.174766105, 96.390, 2145.0, 46.3141
13.201026671, 96.390, 2152.0, 46.3897
13.227287236, 96.390, 2134.0, 46.1952
13.253547801, 96.390, 2170.0, 46.5833
13.279808367, 96.390, 2182.0, 46.7119
13.306068932, 96.390, 2104.0, 45.8694
13.332329497, 96.390, 2148.0, 46.3465
13.358590063, 96.390, 2154.0, 46.4112
13.384850628, 96.390, 2210.0, 47.0106
13.411111193, 96.390, 2125.0, 46.0977
13.437371759, 96.390, 2155.0, 46.4220
13.463632324, 96.390, 2076.0, 45.5631
13.489892890, 96.390, 2214.0, 47.0532
13.516153455, 96.390, 2133.0, 46.1844
13.542414020, 96.390, 2110.0, 45.9347
13.568674586, 96.390, 2199.0, 46.8935
13.594935151, 96.390, 2168.0, 46.5618
13.621195716, 96.390, 2143.0, 46.2925
13.647456282, 96.390, 2159.0, 46.4650
13.673716847, 96.390, 2104.0, 45.8694
13.699977412, 96.390, 2200.0, 46.9042
13.726237978, 96.390, 2146.0, 46.3249
13.752498543, 96.390, 2100.0, 45.8258
13.778759108, 96.390, 2071.0, 45.5082
13.805019674, 96.390, 2114.0, 45.9783
13.831280239, 96.390, 2140.0, 46.2601
13.857540805, 96.390, 2128.0, 46.1303
13.883801370, 96.390, 2146.0, 46.3249
13.910061935, 96.390, 2094.0, 45.7602
13.936322501, 96.390, 2121.0, 46.0543
13.962583066, 96.390, 2131.0, 46.1628
13.988843631, 96.390, 2068.0, 45.4753
14.015104197, 96.390, 1980.0, 44.4972
14.041364762, 96.390, 2108.0, 45.9130
14.067625327, 96.390, 2072.0, 45.5192
14.093885893, 96.390, 2062.0, 45.4093
14.120146458, 96.390, 2075.0, 45.5522
14.146407023, 96.390, 2072.0, 45.5192
14.172667589, 96.390, 2052.0, 45.2990
14.198928154, 96.390, 2051.0, 45.2880
14.225188719, 96.390, 2077.0, 45.5741
14.251449285, 96.390, 2094.0, 45.7602
14.277709850, 96.390, 2097.0, 45.7930
14.303970416, 96.390, 2043.0, 45.1996
14.330230981, 96.390, 2135.0, 46.2061
14.356491546, 96.390, 2045.0, 45.2217
14.382752112, 96.390, 1980.0, 44.4972
14.409012677, 96.390, 2009.0, 44.8219
14.435273242, 96.390, 2024.0, 44.9889
14.461533808, 96.390, 2103.0, 45.8585
14.487794373, 96.390, 2130.0, 46.1519
14.514054938, 96.390, 2038.0, 45.1442
14.540315504, 96.390, 2055.0, 45.3321
14.566576069, 96.390, 1997.0, 44.6878
14.592836634, 96.390, 2007.0, 44.7996
14.619097200, 96.390, 1996.0, 44.6766
14.645357765, 96.390, 2103.0, 45.8585
14.671618331, 96.390, 2069.0, 45.4863
14.697878896, 96.390, 2097.0, 45.7930
14.724139461, 96.390, 2111.0, 45.9456
14.750400027, 96.390, 2116.0, 46.0000
14.776660592, 96.390, 2014.0, 44.8776
14.802921157, 96.390, 2013.0, 44.8665
14.829181723, 96.390, 2046.0, 45.2327
14.855442288, 96.390, 2060.0, 45.3872
14.881702853, 96.390, 1999.0, 44.7102
14.907963419, 96.390, 2139.0, 46.2493
14.934223984, 96.390, 2032.0, 45.0777
14.960484549, 96.390, 2121.0, 46.0543
14.986745115, 96.390, 1999.0, 44.7102
15.013005680, 96.390, 2114.0, 45.9783
15.039266245, 96.390, 2068.0, 45.4753
15.065526811, 96.390, 2043.0, 45.1996
15.091787376, 96.390, 2039.0, 45.1553
15.118047942, 96.390, 2045.0, 45.2217
15.144308507, 96.390, 2086.0, 45.6727
15.170569072, 96.390, 1991.0, 44.6206
15.196829638, 96.390, 1997.0, 44.6878
15.223090203, 96.390, 2056.0, 45.3431
15.249350768, 96.390, 2011.0, 44.8442
15.275611334, 96.390, 1989.0, 44.5982
15.301871899, 96.390, 2097.0, 45.7930
15.328132464, 96.390, 1943.0, 44.0795
15.354393030, 96.390, 2041.0, 45.1774
15.380653595, 96.390, 2054.0, 45.3211
15.406914160, 96.390, 2080.0, 45.6070
15.433174726, 96.390, 2030.0, 45.0555
15.459435291, 96.390, 2069.0, 45.4863
15.485695857, 96.390, 1995.0, 44.6654
15.511956422, 96.390, 2046.0, 45.2327
15.538216987, 96.390, 2121.0, 46.0543
15.564477553, 96.390, 2020.0, 44.9444
15.590738118, 96.390, 1963.0, 44.3058
15.616998683, 96.390, 2021.0, 44.9555
15.643259249, 96.390, 2028.0, 45.0333
15.669519814, 96.390, 2014.0, 44.8776
15.695780379, 96.390, 2024.0, 44.9889
15.722040945, 96.390, 2063.0, 45.4203
15.748301510, 96.390, 2016.0, 44.8999
15.774562075, 96.390, 2081.0, 45.6180
15.800822641, 96.390, 1946.0, 44.1135
15.827083206, 96.390, 2015.0, 44.8888
15.853343771, 96.390, 2071.0, 45.5082
15.879604337, 96.390, 2035.0, 45.1110
15.905864902, 96.390, 2009.0, 44.8219
15.932125468, 96.390, 2066.0, 45.4533
15.958386033, 96.390, 2015.0, 44.8888
15.984646598, 96.390, 2065.0, 45.4423
16.010907164, 96.390, 2057.0, 45.3542
16.037167729, 96.390, 2021.0, 44.9555
16.063428294, 96.390, 2033.0, 45.0888
16.089688860, 96.390, 2008.0, 44.8107
16.115949425, 96.390, 1958.0, 44.2493
16.142209990, 96.390, 2115.0, 45.9891
16.168470556, 96.390, 2063.0, 45.4203
16.194731121, 96.390, 2078.0, 45.5851
16.220991686, 96.390, 2051.0, 45.2880
16.247252252, 96.390, 2066.0, 45.4533
16.273512817, 96.390, 2141.0, 46.2709
16.299773382, 96.390, 2067.0, 45.4643
16.326033948, 96.390, 2038.0, 45.1442
16.352294513, 96.390, 2091.0, 45.7275
16.378555079, 96.390, 2115.0, 45.9891
16.404815644, 96.390, 2107.0, 45.9021
16.431076209, 96.390, 2091.0, 45.7275
16.457336775, 96.390, 2115.0, 45.9891
16.483597340, 96.390, 2098.0, 45.8039
16.509857905, 96.390, 2028.0, 45.0333
16.536118471, 96.390, 2063.0, 45.4203
16.562379036, 96.390, 2219.0, 47.1063
16.588639601, 96.390, 2104.0, 45.8694
16.614900167, 96.390, 2057.0, 45.3542
16.641160732, 96.390, 2079.0, 45.5961
16.667421297, 96.390, 2019.0, 44.9333
16.693681863, 96.390, 2125.0, 46.0977
16.719942428, 96.390, 2078.0, 45.5851
16.746202994, 96.390, 2050.0, 45.2769
16.772463559, 96.390, 2112.0, 45.9565
16.798724124, 96.390, 2225.0, 47.1699
16.824984690, 96.390, 2070.0, 45.4973
16.851245255, 96.390, 2018.0, 44.9222
16.877505820, 96.390, 2086.0, 45.6727
16.903766386, 96.390, 2168.0, 46.5618
16.930026951, 96.390, 2219.0, 47.1063
16.956287516, 96.390, 2092.0, 45.7384
16.982548082, 96.390, 2113.0, 45.9674
17.008808647, 96.390, 2080.0, 45.6070
17.035069212, 96.390, 2188.0, 46.7761
17.061329778, 96.390, 2155.0, 46.4220
17.087590343, 96.390, 2127.0, 46.1194
17.113850908, 96.390, 2091.0, 45.7275
17.140111474, 96.390, 2141.0, 46.2709
17.166372039, 96.390, 2103.0, 45.8585
17.192632605, 96.390, 2190.0, 46.7974
17.218893170, 96.390, 2242.0, 47.3498
17.245153735, 96.390, 2194.0, 46.8402
17.271414301, 96.390, 2127.0, 46.1194
17.297674866, 96.390, 2143.0, 46.2925
17.323935431, 96.390, 2220.0, 47.1169
17.350195997, 96.390, 2236.0, 47.2864
17.376456562, 96.390, 2177.0, 46.6583
17.402717127, 96.390, 2135.0, 46.2061
17.428977693, 96.390, 2114.0, 45.9783
17.455238258, 96.390, 2217.0, 47.0850
17.481498823, 96.390, 2102.0, 45.8476
17.507759389, 96.390, 2226.0, 47.1805
17.534019954, 96.390, 2184.0, 46.7333
17.560280520, 96.390, 2222.0, 47.1381
17.586541085, 96.390, 2189.0, 46.7868
17.612801650, 96.390, 2238.0, 47.3075
17.639062216, 96.390, 2232.0, 47.2440
17.665322781, 96.390, 2182.0, 46.7119
17.691583346, 96.390, 2213.0, 47.0425
17.717843912, 96.390, 2210.0, 47.0106
17.744104477, 96.390, 2183.0, 46.7226
17.770365042, 96.390, 2263.0, 47.5710
17.796625608, 96.390, 2191.0, 46.8081
17.822886173, 96.390, 2239.0, 47.3181
17.849146738, 96.390, 2248.0, 47.4131
17.875407304, 96.390, 2219.0, 47.1063
17.901667869, 96.390, 2229.0, 47.2123
17.927928434, 96.390, 2302.0, 47.9792
17.954189000, 96.390, 2328.0, 48.2494
17.980449565, 96.390, 2222.0, 47.1381
18.006710131, 96.390, 2279.0, 47.7389
18.032970696, 96.390, 2256.0, 47.4974
18.059231261, 96.390, 2210.0, 47.0106
18.085491827, 96.390, 2341.0, 48.3839
18.111752392, 96.390, 2371.0, 48.6929
18.138012957, 96.390, 2304.0, 48.0000
18.164273523, 96.390, 2396.0, 48.9490
18.190534088, 96.390, 2238.0, 47.3075
18.216794653, 96.390, 2302.0, 47.9792
18.243055219, 96.390, 2385.0, 48.8365
18.269315784, 96.390, 2306.0, 48.0208
18.295576349, 96.390, 2314.0, 48.1041
18.321836915, 96.390, 2351.0, 48.4871
18.348097480, 96.390, 2305.0, 48.0104
18.374358046, 96.390, 2331.0, 48.2804
18.400618611, 96.390, 2269.0, 47.6340
18.426879176, 96.390, 2356.0, 48.5386
18.453139742, 96.390, 2298.0, 47.9375
18.479400307, 96.390, 2247.0, 47.4025
18.505660872, 96.390, 2360.0, 48.5798
18.531921438, 96.390, 2397.0, 48.9592
18.558182003, 96.390, 2401.0, 49.0000
18.584442568, 96.390, 2429.0, 49.2849
18.610703134, 96.390, 2398.0, 48.9694
18.636963699, 96.390, 2394.0, 48.9285
18.663224264, 96.390, 2309.0, 48.0521
18.689484830, 96.390, 2305.0, 48.0104
18.715745395, 96.390, 2467.0, 49.6689
18.742005960, 96.390, 2402.0, 49.0102
18.768266526, 96.390, 2441.0, 49.4065
18.794527091, 96.390, 2569.0, 50.6853
18.820787657, 96.390, 2413.0, 49.1223
18.847048222, 96.390, 2378.0, 48.7647
18.873308787, 96.390, 2513.0, 50.1298
18.899569353, 96.390, 2416.0, 49.1528
18.925829918, 96.390, 2421.0, 49.2037
18.952090483, 96.390, 2467.0, 49.6689
18.978351049, 96.390, 2421.0, 49.2037
19.004611614, 96.390, 2599.0, 50.9804
19.030872179, 96.390, 2491.0, 49.9099
19.057132745, 96.390, 2600.0, 50.9902
19.083393310, 96.390, 2510.0, 50.0999
19.109653875, 96.390, 2501.0, 50.0100
19.135914441, 96.390, 2522.0, 50.2195
19.162175006, 96.390, 2526.0, 50.2593
19.188435572, 96.390, 2512.0, 50.1199
19.214696137, 96.390, 2553.0, 50.5272
19.240956702, 96.390, 2608.0, 51.0686
19.267217268, 96.390, 2660.0, 51.5752
19.293477833, 96.390, 2596.0, 50.9510
19.319738398, 96.390, 2595.0, 50.9411
19.345998964, 96.390, 2580.0, 50.7937
19.372259529, 96.390, 2577.0, 50.7642
19.398520094, 96.390, 2603.0, 51.0196
19.424780660, 96.390, 2580.0, 50.7937
19.451041225, 96.390, 2613.0, 51.1175
19.477301790, 96.390, 2568.0, 50.6754
19.503562356, 96.390, 2606.0, 51.0490
19.529822921, 96.390, 2681.0, 51.7784
19.556083486, 96.390, 2576.0, 50.7543
19.582344052, 96.390, 2641.0, 51.3907
19.608604617, 96.390, 2593.0, 50.9215
19.634865183, 96.390, 2666.0, 51.6333
19.661125748, 96.390, 2714.0, 52.0961
19.687386313, 96.390, 2632.0, 51.3030
19.713646879, 96.390, 2689.0, 51.8556
19.739907444, 96.390, 2756.0, 52.4976
19.766168009, 96.390, 2645.0, 51.4296
19.792428575, 96.390, 2725.0, 52.2015
19.818689140, 96.390, 2679.0, 51.7591
19.844949705, 96.390, 2778.0, 52.7067
19.871210271, 96.390, 2783.0, 52.7541
19.897470836, 96.390, 2730.0, 52.2494
19.923731401, 96.390, 2698.0, 51.9423
19.949991967, 96.390, 2813.0, 53.0377
19.976252532, 96.390, 2788.0, 52.8015
20.002513097, 96.390, 2865.0, 53.5257
20.028773663, 96.390, 2785.0, 52.7731
20.055034228, 96.390, 2844.0, 53.3292
20.081294794, 96.390, 2791.0, 52.8299
20.107555359, 96.390, 2791.0, 52.8299
20.133815924, 96.390, 2751.0, 52.4500
20.160076490, 96.390, 2822.0, 53.1225
20.186337055, 96.390, 2757.0, 52.5071
20.212597620, 96.390, 2783.0, 52.7541
20.238858186, 96.390, 2803.0, 52.9434
20.265118751, 96.390, 2751.0, 52.4500
20.291379316, 96.390, 2830.0, 53.1977
20.317639882, 96.390, 2925.0, 54.0833
20.343900447, 96.390, 2834.0, 53.2353
20.370161012, 96.390, 2855.0, 53.4322
20.396421578, 96.390, 2900.0, 53.8516
20.422682143, 96.390, 2902.0, 53.8702
20.448942709, 96.390, 3010.0, 54.8635
20.475203274, 96.390, 2904.0, 53.8888
20.501463839, 96.390, 2987.0, 54.6535
20.527724405, 96.390, 2897.0, 53.8238
20.553984970, 96.390, 2918.0, 54.0185
20.580245535, 96.390, 2953.0, 54.3415
20.606506101, 96.390, 2940.0, 54.2218
20.632766666, 96.390, 2956.0, 54.3691
20.659027231, 96.390, 2987.0, 54.6535
20.685287797, 96.390, 2991.0, 54.6900
20.711548362, 96.390, 2983.0, 54.6168
20.737808927, 96.390, 3205.0, 56.6127
20.764069493, 96.390, 3094.0, 55.6237
20.790330058, 96.390, 3056.0, 55.2811
20.816590623, 96.390, 3050.0, 55.2268
20.842851189, 96.390, 3134.0, 55.9821
20.869111754, 96.390, 3031.0, 55.0545
20.895372320, 96.390, 3089.0, 55.5788
20.921632885, 96.390, 3178.0, 56.3738
20.947893450, 96.390, 3080.0, 55.4977
20.974154016, 96.390, 3024.0, 54.9909
21.000414581, 96.390, 3207.0, 56.6304
21.026675146, 96.390, 3107.0, 55.7405
21.052935712, 96.390, 3101.0, 55.6866
21.079196277, 96.390, 3100.0, 55.6776
21.105456842, 96.390, 3188.0, 56.4624
21.131717408, 96.390, 3144.0, 56.0714
21.157977973, 96.390, 3068.0, 55.3895
21.184238538, 96.390, 3074.0, 55.4437
21.210499104, 96.390, 3113.0, 55.7943
21.236759669, 96.390, 3020.0, 54.9545
21.263020235, 96.390, 3079.0, 55.4887
21.289280800, 96.390, 3139.0, 56.0268
21.315541365, 96.390, 3237.0, 56.8946
21.341801931, 96.390, 3214.0, 56.6922
21.368062496, 96.390, 3203.0, 56.5951
21.394323061, 96.390, 3160.0, 56.2139
21.420583627, 96.390, 3158.0, 56.1961
21.446844192, 96.390, 3165.0, 56.2583
21.473104757, 96.390, 3236.0, 56.8859
21.499365323, 96.390, 3164.0, 56.2494
21.525625888, 96.390, 3194.0, 56.5155
21.551886453, 96.390, 3313.0, 57.5587
21.578147019, 96.390, 3252.0, 57.0263
21.604407584, 96.390, 3255.0, 57.0526
21.630668149, 96.390, 3270.0, 57.1839
21.656928715, 96.390, 3273.0, 57.2101
21.683189280, 96.390, 3321.0, 57.6281
21.709449846, 96.390, 3266.0, 57.1489
21.735710411, 96.390, 3292.0, 57.3760
21.761970976, 96.390, 3178.0, 56.3738
21.788231542, 96.390, 3282.0, 57.2887
21.814492107, 96.390, 3314.0, 57.5674
21.840752672, 96.390, 3290.0, 57.3585
21.867013238, 96.390, 3369.0, 58.0431
21.893273803, 96.390, 3374.0, 58.0861
21.919534368, 96.390, 3269.0, 57.1752
21.945794934, 96.390, 3348.0, 57.8619
21.972055499, 96.390, 3451.0, 58.7452
21.998316064, 96.390, 3349.0, 57.8705
22.024576630, 96.390, 3387.0, 58.1979
22.050837195, 96.390, 3386.0, 58.1893
22.077097761, 96.390, 3410.0, 58.3952
22.103358326, 96.390, 3406.0, 58.3609
22.129618891, 96.390, 3323.0, 57.6455
22.155879457, 96.390, 3334.0, 57.7408
22.182140022, 96.390, 3338.0, 57.7754
22.208400587, 96.390, 3379.0, 58.1292
22.234661153, 96.390, 3317.0, 57.5934
22.260921718, 96.390, 3386.0, 58.1893
22.287182283, 96.390, 3428.0, 58.5491
22.313442849, 96.390, 3339.0, 57.7841
22.339703414, 96.390, 3358.0, 57.9483
22.365963979, 96.390, 3456.0, 58.7878
22.392224545, 96.390, 3415.0, 58.4380
22.418485110, 96.390, 3353.0, 57.9051
22.444745675, 96.390, 3475.0, 58.9491
22.471006241, 96.390, 3290.0, 57.3585
22.497266806, 96.390, 3497.0, 59.1354
22.523527372, 96.390, 3416.0, 58.4466
22.549787937, 96.390, 3352.0, 57.8965
22.576048502, 96.390, 3266.0, 57.1489
22.602309068, 96.390, 3401.0, 58.3181
22.628569633, 96.390, 3287.0, 57.3324
22.654830198, 96.390, 3497.0, 59.1354
22.681090764, 96.390, 3430.0, 58.5662
22.707351329, 96.390, 3519.0, 59.3212
22.733611894, 96.390, 3420.0, 58.4808
22.759872460, 96.390, 3427.0, 58.5406
22.786133025, 96.390, 3496.0, 59.1270
22.812393590, 96.390, 3407.0, 58.3695
22.838654156, 96.390, 3403.0, 58.3352
22.864914721, 96.390, 3409.0, 58.3866
22.891175287, 96.390, 3370.0, 58.0517
22.917435852, 96.390, 3395.0, 58.2666
22.943696417, 96.390, 3406.0, 58.3609
22.969956983, 96.390, 3409.0, 58.3866
22.996217548, 96.390, 3393.0, 58.2495
23.022478113, 96.390, 3452.0, 58.7537
23.048738679, 96.390, 3354.0, 57.9137
23.074999244, 96.390, 3459.0, 58.8133
23.101259809, 96.390, 3325.0, 57.6628
23.127520375, 96.390, 3419.0, 58.4722
23.153780940, 96.390, 3459.0, 58.8133
23.180041505, 96.390, 3472.0, 58.9237
23.206302071, 96.390, 3483.0, 59.0169
23.232562636, 96.390, 3496.0, 59.1270
23.258823201, 96.390, 3376.0, 58.1034
23.285083767, 96.390, 3267.0, 57.1577
23.311344332, 96.390, 3325.0, 57.6628
23.337604898, 96.390, 3402.0, 58.3267
23.363865463, 96.390, 3298.0, 57.4282
23.390126028, 96.390, 3361.0, 57.9741
23.416386594, 96.390, 3338.0, 57.7754
23.442647159, 96.390, 3286.0, 57.3236
23.468907724, 96.390, 3248.0, 56.9912
23.495168290, 96.390, 3322.0, 57.6368
23.521428855, 96.390, 3293.0, 57.3847
23.547689420, 96.390, 3346.0, 57.8446
23.573949986, 96.390, 3295.0, 57.4021
23.600210551, 96.390, 3309.0, 57.5239
23.626471116, 96.390, 3346.0, 57.8446
23.652731682, 96.390, 3415.0, 58.4380
23.678992247, 96.390, 3232.0, 56.8507
23.705252813, 96.390, 3398.0, 58.2924
23.731513378, 96.390, 3507.0, 59.2199
23.757773943, 96.390, 3350.0, 57.8792
23.784034509, 96.390, 3324.0, 57.6541
23.810295074, 96.390, 3274.0, 57.2189
23.836555639, 96.390, 3271.0, 57.1927
23.862816205, 96.390, 3349.0, 57.8705
23.889076770, 96.390, 3363.0, 57.9914
23.915337335, 96.390, 3298.0, 57.4282
23.941597901, 96.390, 3355.0, 57.9224
23.967858466, 96.390, 3266.0, 57.1489
23.994119031, 96.390, 3316.0, 57.5847
24.020379597, 96.390, 3253.0, 57.0351
24.046640162, 96.390, 3262.0, 57.1139
24.072900727, 96.390, 3260.0, 57.0964
24.099161293, 96.390, 3230.0, 56.8331
24.125421858, 96.390, 3167.0, 56.2761
24.151682424, 96.390, 3307.0, 57.5065
24.177942989, 96.390, 3312.0, 57.5500
24.204203554, 96.390, 3368.0, 58.0345
24.230464120, 96.390, 3268.0, 57.1664
24.256724685, 96.390, 3362.0, 57.9828
24.282985250, 96.390, 3248.0, 56.9912
24.309245816, 96.390, 3239.0, 56.9122
24.335506381, 96.390, 3193.0, 56.5066
24.361766946, 96.390, 3297.0, 57.4195
24.388027512, 96.390, 3250.0, 57.0088
24.414288077, 96.390, 3284.0, 57.3062
24.440548642, 96.390, 3111.0, 55.7763
24.466809208, 96.390, 3234.0, 56.8683
24.493069773, 96.390, 3239.0, 56.9122
24.519330338, 96.390, 3114.0, 55.8032
24.545590904, 96.390, 3158.0, 56.1961
24.571851469, 96.390, 3216.0, 56.7098
24.598112035, 96.390, 3181.0, 56.4004
24.624372600, 96.390, 3266.0, 57.1489
24.650633165, 96.390, 3183.0, 56.4181
24.676893731, 96.390, 3099.0, 55.6687
24.703154296, 96.390, 3094.0, 55.6237
24.729414861, 96.390, 3143.0, 56.0625
24.755675427, 96.390, 3157.0, 56.1872
24.781935992, 96.390, 3133.0, 55.9732
24.808196557, 96.390, 3179.0, 56.3826
24.834457123, 96.390, 3087.0, 55.5608
24.860717688, 96.390, 3091.0, 55.5968
24.886978253, 96.390, 3050.0, 55.2268
24.913238819, 96.390, 3132.0, 55.9643
24.939499384, 96.390, 3123.0, 55.8838
24.965759950, 96.390, 3213.0, 56.6833
24.992020515, 96.390, 3110.0, 55.7674
25.018281080, 96.390, 3105.0, 55.7225
25.044541646, 96.390, 3118.0, 55.8391
25.070802211, 96.390, 3090.0, 55.5878
25.097062776, 96.390, 3107.0, 55.7405
25.123323342, 96.390, 3054.0, 55.2630
25.149583907, 96.390, 3028.0, 55.0273
25.175844472, 96.390, 3054.0, 55.2630
25.202105038, 96.390, 3114.0, 55.8032
25.228365603, 96.390, 3030.0, 55.0454
25.254626168, 96.390, 2958.0, 54.3875
25.280886734, 96.390, 3096.0, 55.6417
25.307147299, 96.390, 2939.0, 54.2125
25.333407864, 96.390, 2998.0, 54.7540
25.359668430, 96.390, 3056.0, 55.2811
25.385928995, 96.390, 2991.0, 54.6900
25.412189561, 96.390, 3056.0, 55.2811
25.438450126, 96.390, 3035.0, 55.0908
25.464710691, 96.390, 2969.0, 54.4885
25.490971257, 96.390, 3083.0, 55.5248
25.517231822, 96.390, 2983.0, 54.6168
25.543492387, 96.390, 2987.0, 54.6535
25.569752953, 96.390, 2959.0, 54.3967
25.596013518, 96.390, 2952.0, 54.3323
25.622274083, 96.390, 3007.0, 54.8361
25.648534649, 96.390, 2947.0, 54.2863
25.674795214, 96.390, 3015.0, 54.9090
25.701055779, 96.390, 2972.0, 54.5161
25.727316345, 96.390, 3003.0, 54.7996
25.753576910, 96.390, 2947.0, 54.2863
25.779837476, 96.390, 2958.0, 54.3875
25.806098041, 96.390, 3000.0, 54.7723
25.832358606, 96.390, 2995.0, 54.7266
25.858619172, 96.390, 2838.0, 53.2729
25.884879737, 96.390, 2890.0, 53.7587
25.911140302, 96.390, 2876.0, 53.6284
25.937400868, 96.390, 2998.0, 54.7540
25.963661433, 96.390, 2905.0, 53.8981
25.989921998, 96.390, 2898.0, 53.8331
26.016182564, 96.390, 2899.0, 53.8424
26.042443129, 96.390, 2951.0, 54.3231
26.068703694, 96.390, 2907.0, 53.9166
26.094964260, 96.390, 2788.0, 52.8015
26.121224825, 96.390, 2816.0, 53.0660
26.147485390, 96.390, 2891.0, 53.7680
26.173745956, 96.390, 2913.0, 53.9722
26.200006521, 96.390, 2788.0, 52.8015
26.226267087, 96.390, 2882.0, 53.6843
26.252527652, 96.390, 2884.0, 53.7029
26.278788217, 96.390, 2826.0, 53.1601
26.305048783, 96.390, 2884.0, 53.7029
26.331309348, 96.390, 2696.0, 51.9230
26.357569913, 96.390, 2874.0, 53.6097
26.383830479, 96.390, 2900.0, 53.8516
26.410091044, 96.390, 2731.0, 52.2590
26.436351609, 96.390, 2780.0, 52.7257
26.462612175, 96.390, 2841.0, 53.3010
26.488872740, 96.390, 2814.0, 53.0471
26.515133305, 96.390, 2782.0, 52.7447
26.541393871, 96.390, 2846.0, 53.3479
26.567654436, 96.390, 2736.0, 52.3068
26.593915002, 96.390, 2853.0, 53.4135
26.620175567, 96.390, 2684.0, 51.8073
26.646436132, 96.390, 2838.0, 53.2729
26.672696698, 96.390, 2750.0, 52.4404
26.698957263, 96.390, 2845.0, 53.3385
26.725217828, 96.390, 2751.0, 52.4500
26.751478394, 96.390, 2820.0, 53.1037
26.777738959, 96.390, 2740.0, 52.3450
26.803999524, 96.390, 2751.0, 52.4500
26.830260090, 96.390, 2655.0, 51.5267
26.856520655, 96.390, 2691.0, 51.8748
26.882781220, 96.390, 2811.0, 53.0189
26.909041786, 96.390, 2721.0, 52.1632
26.935302351, 96.390, 2702.0, 51.9808
26.961562916, 96.390, 2703.0, 51.9904
26.987823482, 96.390, 2744.0, 52.3832
27.014084047, 96.390, 2680.0, 51.7687
27.040344613, 96.390, 2674.0, 51.7107
27.066605178, 96.390, 2793.0, 52.8488
27.092865743, 96.390, 2755.0, 52.4881
27.119126309, 96.390, 2637.0, 51.3517
27.145386874, 96.390, 2713.0, 52.0865
27.171647439, 96.390, 2802.0, 52.9339
27.197908005, 96.390, 2694.0, 51.9038
27.224168570, 96.390, 2668.0, 51.6527
27.250429135, 96.390, 2571.0, 50.7050
27.276689701, 96.390, 2718.0, 52.1344
27.302950266, 96.390, 2610.0, 51.0882
27.329210831, 96.390, 2634.0, 51.3225
27.355471397, 96.390, 2675.0, 51.7204
27.381731962, 96.390, 2602.0, 51.0098
27.407992528, 96.390, 2607.0, 51.0588
27.434253093, 96.390, 2618.0, 51.1664
27.460513658, 96.390, 2607.0, 51.0588
27.486774224, 96.390, 2604.0, 51.0294
27.513034789, 96.390, 2644.0, 51.4198
27.539295354, 96.390, 2608.0, 51.0686
27.565555920, 96.390, 2621.0, 51.1957
27.591816485, 96.390, 2599.0, 50.9804
27.618077050, 96.390, 2624.0, 51.2250
27.644337616, 96.390, 2538.0, 50.3786
27.670598181, 96.390, 2482.0, 49.8197
27.696858746, 96.390, 2499.0, 49.9900
27.723119312, 96.390, 2601.0, 51.0000
27.749379877, 96.390, 2589.0, 50.8822
27.775640442, 96.390, 2569.0, 50.6853
27.801901008, 96.390, 2559.0, 50.5866
27.828161573, 96.390, 2569.0, 50.6853
27.854422139, 96.390, 2577.0, 50.7642
27.880682704, 96.390, 2502.0, 50.0200
27.906943269, 96.390, 2499.0, 49.9900
27.933203835, 96.390, 2562.0, 50.6162
27.959464400, 96.390, 2526.0, 50.2593
27.985724965, 96.390, 2502.0, 50.0200
28.011985531, 96.390, 2545.0, 50.4480
28.038246096, 96.390, 2603.0, 51.0196
28.064506661, 96.390, 2447.0, 49.4672
28.090767227, 96.390, 2591.0, 50.9019
28.117027792, 96.390, 2465.0, 49.6488
28.143288357, 96.390, 2606.0, 51.0490
28.169548923, 96.390, 2422.0, 49.2138
28.195809488, 96.390, 2517.0, 50.1697
28.222070054, 96.390, 2415.0, 49.1426
28.248330619, 96.390, 2514.0, 50.1398
28.274591184, 96.390, 2439.0, 49.3862
28.300851750, 96.390, 2507.0, 50.0700
28.327112315, 96.390, 2487.0, 49.8698
28.353372880, 96.390, 2443.0, 49.4267
28.379633446, 96.390, 2495.0, 49.9500
28.405894011, 96.390, 2408.0, 49.0714
28.432154576, 96.390, 2430.0, 49.2950
28.458415142, 96.390, 2470.0, 49.6991
28.484675707, 96.390, 2363.0, 48.6107
28.510936272, 96.390, 2445.0, 49.4469
28.537196838, 96.390, 2400.0, 48.9898
28.563457403, 96.390, 2374.0, 48.7237
28.589717968, 96.390, 2451.0, 49.5076
28.615978534, 96.390, 2388.0, 48.8672
28.642239099, 96.390, 2328.0, 48.2494
28.668499665, 96.390, 2373.0, 48.7134
28.694760230, 96.390, 2298.0, 47.9375
28.721020795, 96.390, 2404.0, 49.0306
28.747281361, 96.390, 2348.0, 48.4562
28.773541926, 96.390, 2393.0, 48.9183
28.799802491, 96.390, 2340.0, 48.3735
28.826063057, 96.390, 2256.0, 47.4974
28.852323622, 96.390, 2299.0, 47.9479
28.878584187, 96.390, 2268.0, 47.6235
28.904844753, 96.390, 2321.0, 48.1768
28.931105318, 96.390, 2309.0, 48.0521
28.957365883, 96.390, 2323.0, 48.1975
28.983626449, 96.390, 2370.0, 48.6826
29.009887014, 96.390, 2330.0, 48.2701
29.036147579, 96.390, 2358.0, 48.5592
29.062408145, 96.390, 2255.0, 47.4868
29.088668710, 96.390, 2285.0, 47.8017
29.114929276, 96.390, 2288.0, 47.8330
29.141189841, 96.390, 2290.0, 47.8539
29.167450406, 96.390, 2324.0, 48.2079
29.193710972, 96.390, 2277.0, 47.7179
29.219971537, 96.390, 2248.0, 47.4131
29.246232102, 96.390, 2256.0, 47.4974
29.272492668, 96.390, 2334.0, 48.3115
29.298753233, 96.390, 2328.0, 48.2494
29.325013798, 96.390, 2281.0, 47.7598
29.351274364, 96.390, 2295.0, 47.9062
29.377534929, 96.390, 2273.0, 47.6760
29.403795494, 96.390, 2195.0, 46.8508
29.430056060, 96.390, 2225.0, 47.1699
29.456316625, 96.390, 2163.0, 46.5081
29.482577191, 96.390, 2278.0, 47.7284
29.508837756, 96.390, 2186.0, 46.7547
29.535098321, 96.390, 2209.0, 47.0000
29.561358887, 96.390, 2217.0, 47.0850
29.587619452, 96.390, 2242.0, 47.3498
29.613880017, 96.390, 2193.0, 46.8295
29.640140583, 96.390, 2179.0, 46.6798
29.666401148, 96.390, 2191.0, 46.8081
29.692661713, 96.390, 2119.0, 46.0326
29.718922279, 96.390, 2170.0, 46.5833
29.745182844, 96.390, 2218.0, 47.0956
29.771443409, 96.390, 2191.0, 46.8081
29.797703975, 96.390, 2249.0, 47.4236
29.823964540, 96.390, 2229.0, 47.2123
29.850225105, 96.390, 2166.0, 46.5403
29.876485671, 96.390, 2138.0, 46.2385
29.902746236, 96.390, 2191.0, 46.8081
29.929006802, 96.390, 2107.0, 45.9021
29.955267367, 96.390, 2137.0, 46.2277
29.981527932, 96.390, 2159.0, 46.4650
30.007788498, 96.390, 2091.0, 45.7275
30.034049063, 96.390, 2139.0, 46.2493
30.060309628, 96.390, 2065.0, 45.4423
30.086570194, 96.390, 2142.0, 46.2817
30.112830759, 96.390, 2152.0, 46.3897
30.139091324, 96.390, 2045.0, 45.2217
30.165351890, 96.390, 2068.0, 45.4753
30.191612455, 96.390, 2055.0, 45.3321
30.217873020, 96.390, 2077.0, 45.5741
30.244133586, 96.390, 2172.0, 46.6047
30.270394151, 96.390, 2196.0, 46.8615
30.296654717, 96.390, 2161.0, 46.4866
30.322915282, 96.390, 2198.0, 46.8828
30.349175847, 96.390, 2109.0, 45.9239
30.375436413, 96.390, 2072.0, 45.5192
30.401696978, 96.390, 2128.0, 46.1303
30.427957543, 96.390, 2105.0, 45.8803
30.454218109, 96.390, 2084.0, 45.6508
30.480478674, 96.390, 2096.0, 45.7821
30.506739239, 96.390, 1995.0, 44.6654
30.532999805, 96.390, 2078.0, 45.5851
30.559260370, 96.390, 2127.0, 46.1194
30.585520935, 96.390, 2073.0, 45.5302
30.611781501, 96.390, 2020.0, 44.9444
30.638042066, 96.390, 2021.0, 44.9555
30.664302631, 96.390, 1994.0, 44.6542
30.690563197, 96.390, 2027.0, 45.0222
30.716823762, 96.390, 2043.0, 45.1996
30.743084328, 96.390, 2020.0, 44.9444
30.769344893, 96.390, 2000.0, 44.7214
30.795605458, 96.390, 2035.0, 45.1110
30.821866024, 96.390, 2011.0, 44.8442
30.848126589, 96.390, 1936.0, 44.0000
30.874387154, 96.390, 2025.0, 45.0000
30.900647720, 96.390, 2010.0, 44.8330
30.926908285, 96.390, 1959.0, 44.2606
30.953168850, 96.390, 2002.0, 44.7437
30.979429416, 96.390, 1980.0, 44.4972
31.005689981, 96.390, 1991.0, 44.6206
31.031950546, 96.390, 1952.0, 44.1814
31.058211112, 96.390, 1924.0, 43.8634
31.084471677, 96.390, 1901.0, 43.6005
31.110732243, 96.390, 1966.0, 44.3396
31.136992808, 96.390, 1932.0, 43.9545
31.163253373, 96.390, 1998.0, 44.6990
31.189513939, 96.390, 1890.0, 43.4741
31.215774504, 96.390, 1943.0, 44.0795
31.242035069, 96.390, 1937.0, 44.0114
31.268295635, 96.390, 1876.0, 43.3128
31.294556200, 96.390, 1875.0, 43.3013
31.320816765, 96.390, 1949.0, 44.1475
31.347077331, 96.390, 1913.0, 43.7379
31.373337896, 96.390, 1898.0, 43.5660
31.399598461, 96.390, 1920.0, 43.8178
31.425859027, 96.390, 1903.0, 43.6234
31.452119592, 96.390, 1897.0, 43.5546
31.478380157, 96.390, 1817.0, 42.6263
31.504640723, 96.390, 1861.0, 43.1393
31.530901288, 96.390, 1914.0, 43.7493
31.557161854, 96.390, 1878.0, 43.3359
31.583422419, 96.390, 1861.0, 43.1393
31.609682984, 96.390, 1909.0, 43.6921
31.635943550, 96.390, 1866.0, 43.1972
31.662204115, 96.390, 1872.0, 43.2666
31.688464680, 96.390, 1889.0, 43.4626
31.714725246, 96.390, 1888.0, 43.4511
31.740985811, 96.390, 1918.0, 43.7950
31.767246376, 96.390, 1871.0, 43.2551
31.793506942, 96.390, 1859.0, 43.1161
31.819767507, 96.390, 1825.0, 42.7200
31.846028072, 96.390, 1835.0, 42.8369
31.872288638, 96.390, 1787.0, 42.2729
31.898549203, 96.390, 1780.0, 42.1900
31.924809769, 96.390, 1886.0, 43.4281
31.951070334, 96.390, 1802.0, 42.4500
31.977330899, 96.390, 1849.0, 43.0000
32.003591465, 96.390, 1843.0, 42.9302
32.029852030, 96.390, 1778.0, 42.1663
32.056112595, 96.390, 1885.0, 43.4166
32.082373161, 96.390, 1856.0, 43.0813
32.108633726, 96.390, 1822.0, 42.6849
32.134894291, 96.390, 1722.0, 41.4970
32.161154857, 96.390, 1808.0, 42.5206
32.187415422, 96.390, 1872.0, 43.2666
32.213675987, 96.390, 1827.0, 42.7434
32.239936553, 96.390, 1737.0, 41.6773
32.266197118, 96.390, 1776.0, 42.1426
32.292457683, 96.390, 1790.0, 42.3084
32.318718249, 96.390, 1791.0, 42.3202
32.344978814, 96.390, 1754.0, 41.8808
32.371239380, 96.390, 1754.0, 41.8808
32.397499945, 96.390, 1784.0, 42.2374
32.423760510, 96.390, 1730.0, 41.5933
32.450021076, 96.390, 1746.0, 41.7852
32.476281641, 96.390, 1735.0, 41.6533
32.502542206, 96.390, 1713.0, 41.3884
32.528802772, 96.390, 1722.0, 41.4970
32.555063337, 96.390, 1693.0, 41.1461
32.581323902, 96.390, 1739.0, 41.7013
32.607584468, 96.390, 1686.0, 41.0609
32.633845033, 96.390, 1767.0, 42.0357
32.660105598, 96.390, 1699.0, 41.2189
32.686366164, 96.390, 1712.0, 41.3763
32.712626729, 96.390, 1681.0, 41.0000
32.738887295, 96.390, 1678.0, 40.9634
32.765147860, 96.390, 1676.0, 40.9390
32.791408425, 96.390, 1719.0, 41.4608
32.817668991, 96.390, 1654.0, 40.6694
32.843929556, 96.390, 1665.0, 40.8044
32.870190121, 96.390, 1799.0, 42.4146
32.896450687, 96.390, 1680.0, 40.9878
32.922711252, 96.390, 1637.0, 40.4599
32.948971817, 96.390, 1688.0, 41.0853
32.975232383, 96.390, 1653.0, 40.6571
33.001492948, 96.390, 1709.0, 41.3401
33.027753513, 96.390, 1650.0, 40.6202
33.054014079, 96.390, 1618.0, 40.2244
33.080274644, 96.390, 1650.0, 40.6202
33.106535209, 96.390, 1773.0, 42.1070
33.132795775, 96.390, 1675.0, 40.9268
33.159056340, 96.390, 1702.0, 41.2553
33.185316906, 96.390, 1684.0, 41.0366
33.211577471, 96.390, 1582.0, 39.7744
33.237838036, 96.390, 1629.0, 40.3609
33.264098602, 96.390, 1735.0, 41.6533
33.290359167, 96.390, 1677.0, 40.9512
33.316619732, 96.390, 1662.0, 40.7676
33.342880298, 96.390, 1636.0, 40.4475
33.369140863, 96.390, 1592.0, 39.8999
33.395401428, 96.390, 1621.0, 40.2616
33.421661994, 96.390, 1534.0, 39.1663
33.447922559, 96.390, 1576.0, 39.6989
33.474183124, 96.390, 1574.0, 39.6737
33.500443690, 96.390, 1646.0, 40.5709
33.526704255, 96.390, 1615.0, 40.1871
33.552964820, 96.390, 1582.0, 39.7744
33.579225386, 96.390, 1567.0, 39.5854
33.605485951, 96.390, 1525.0, 39.0512
33.631746517, 96.390, 1620.0, 40.2492
33.658007082, 96.390, 1604.0, 40.0500
33.684267647, 96.390, 1598.0, 39.9750
33.710528213, 96.390, 1616.0, 40.1995
33.736788778, 96.390, 1525.0, 39.0512
33.763049343, 96.390, 1486.0, 38.5487
33.789309909, 96.390, 1638.0, 40.4722
33.815570474, 96.390, 1595.0, 39.9375
33.841831039, 96.390, 1494.0, 38.6523
33.868091605, 96.390, 1607.0, 40.0874
33.894352170, 96.390, 1628.0, 40.3485
33.920612735, 96.390, 1538.0, 39.2173
33.946873301, 96.390, 1496.0, 38.6782
33.973133866, 96.390, 1569.0, 39.6106
33.999394432, 96.390, 1568.0, 39.5980
34.025654997, 96.390, 1520.0, 38.9872
34.051915562, 96.390, 1578.0, 39.7240
34.078176128, 96.390, 1523.0, 39.0256
34.104436693, 96.390, 1572.0, 39.6485
34.130697258, 96.390, 1583.0, 39.7869
34.156957824, 96.390, 1478.0, 38.4448
34.183218389, 96.390, 1475.0, 38.4057
34.209478954, 96.390, 1519.0, 38.9744
34.235739520, 96.390, 1500.0, 38.7298
34.262000085, 96.390, 1488.0, 38.5746
34.288260650, 96.390, 1537.0, 39.2046
34.314521216, 96.390, 1451.0, 38.0920
34.340781781, 96.390, 1490.0, 38.6005
34.367042346, 96.390, 1390.0, 37.2827
34.393302912, 96.390, 1454.0, 38.1314
34.419563477, 96.390, 1499.0, 38.7169
34.445824043, 96.390, 1469.0, 38.3275
34.472084608, 96.390, 1411.0, 37.5633
34.498345173, 96.390, 1531.0, 39.1280
34.524605739, 96.390, 1466.0, 38.2884
34.550866304, 96.390, 1444.0, 38.0000
34.577126869, 96.390, 1475.0, 38.4057
34.603387435, 96.390, 1442.0, 37.9737
34.629648000, 96.390, 1500.0, 38.7298
34.655908565, 96.390, 1426.0, 37.7624
34.682169131, 96.390, 1473.0, 38.3797
34.708429696, 96.390, 1416.0, 37.6298
34.734690261, 96.390, 1416.0, 37.6298
34.760950827, 96.390, 1436.0, 37.8946
34.787211392, 96.390, 1469.0, 38.3275
34.813471958, 96.390, 1388.0, 37.2559
34.839732523, 96.390, 1451.0, 38.0920
34.865993088, 96.390, 1385.0, 37.2156
34.892253654, 96.390, 1404.0, 37.4700
34.918514219, 96.390, 1417.0, 37.6431
34.944774784, 96.390, 1410.0, 37.5500
34.971035350, 96.390, 1400.0, 37.4166
34.997295915, 96.390, 1383.0, 37.1887
35.023556480, 96.390, 1375.0, 37.0810
35.049817046, 96.390, 1489.0, 38.5876
35.076077611, 96.390, 1324.0, 36.3868
35.102338176, 96.390, 1415.0, 37.6165
35.128598742, 96.390, 1362.0, 36.9053
35.154859307, 96.390, 1385.0, 37.2156
35.181119872, 96.390, 1413.0, 37.5899
35.207380438, 96.390, 1426.0, 37.7624
35.233641003, 96.390, 1428.0, 37.7889
35.259901569, 96.390, 1465.0, 38.2753
35.286162134, 96.390, 1356.0, 36.8239
35.312422699, 96.390, 1398.0, 37.3898
35.338683265, 96.390, 1407.0, 37.5100
35.364943830, 96.390, 1378.0, 37.1214
35.391204395, 96.390, 1356.0, 36.8239
35.417464961, 96.390, 1386.0, 37.2290
35.443725526, 96.390, 1446.0, 38.0263
35.469986091, 96.390, 1385.0, 37.2156
35.496246657, 96.390, 1333.0, 36.5103
35.522507222, 96.390, 1311.0, 36.2077
35.548767787, 96.390, 1385.0, 37.2156
35.575028353, 96.390, 1348.0, 36.7151
35.601288918, 96.390, 1389.0, 37.2693
35.627549484, 96.390, 1270.0, 35.6371
35.653810049, 96.390, 1408.0, 37.5233
35.680070614, 96.390, 1299.0, 36.0416
35.706331180, 96.390, 1322.0, 36.3593
35.732591745, 96.390, 1276.0, 35.7211
35.758852310, 96.390, 1314.0, 36.2491
35.785112876, 96.390, 1400.0, 37.4166
35.811373441, 96.390, 1352.0, 36.7696
35.837634006, 96.390, 1367.0, 36.9730
35.863894572, 96.390, 1350.0, 36.7423
35.890155137, 96.390, 1304.0, 36.1109
35.916415702, 96.390, 1332.0, 36.4966
35.942676268, 96.390, 1302.0, 36.0832
35.968936833, 96.390, 1254.0, 35.4119
35.995197398, 96.390, 1304.0, 36.1109
36.021457964, 96.390, 1346.0, 36.6879
36.047718529, 96.390, 1335.0, 36.5377
36.073979095, 96.390, 1320.0, 36.3318
36.100239660, 96.390, 1317.0, 36.2905
36.126500225, 96.390, 1271.0, 35.6511
36.152760791, 96.390, 1218.0, 34.8999
36.179021356, 96.390, 1243.0, 35.2562
36.205281921, 96.390, 1304.0, 36.1109
36.231542487, 96.390, 1289.0, 35.9026
36.257803052, 96.390, 1303.0, 36.0971
36.284063617, 96.390, 1263.0, 35.5387
36.310324183, 96.390, 1269.0, 35.6230
36.336584748, 96.390, 1238.0, 35.1852
36.362845313, 96.390, 1326.0, 36.4143
36.389105879, 96.390, 1258.0, 35.4683
36.415366444, 96.390, 1290.0, 35.9166
36.441627010, 96.390, 1187.0, 34.4529
36.467887575, 96.390, 1224.0, 34.9857
36.494148140, 96.390, 1265.0, 35.5668
36.520408706, 96.390, 1240.0, 35.2136
36.546669271, 96.390, 1233.0, 35.1141
36.572929836, 96.390, 1224.0, 34.9857
36.599190402, 96.390, 1231.0, 35.0856
36.625450967, 96.390, 1242.0, 35.2420
36.651711532, 96.390, 1248.0, 35.3270
36.677972098, 96.390, 1222.0, 34.9571
36.704232663, 96.390, 1248.0, 35.3270
36.730493228, 96.390, 1225.0, 35.0000
36.756753794, 96.390, 1207.0, 34.7419
36.783014359, 96.390, 1267.0, 35.5949
36.809274924, 96.390, 1194.0, 34.5543
36.835535490, 96.390, 1238.0, 35.1852
36.861796055, 96.390, 1232.0, 35.0999
36.888056621, 96.390, 1104.0, 33.2265
36.914317186, 96.390, 1241.0, 35.2278
36.940577751, 96.390, 1211.0, 34.7994
36.966838317, 96.390, 1200.0, 34.6410
36.993098882, 96.390, 1151.0, 33.9264
37.019359447, 96.390, 1207.0, 34.7419
37.045620013, 96.390, 1272.0, 35.6651
37.071880578, 96.390, 1229.0, 35.0571
37.098141143, 96.390, 1158.0, 34.0294
37.124401709, 96.390, 1216.0, 34.8712
37.150662274, 96.390, 1183.0, 34.3948
37.176922839, 96.390, 1260.0, 35.4965
37.203183405, 96.390, 1204.0, 34.6987
37.229443970, 96.390, 1215.0, 34.8569
37.255704535, 96.390, 1226.0, 35.0143
37.281965101, 96.390, 1191.0, 34.5109
37.308225666, 96.390, 1198.0, 34.6121
37.334486232, 96.390, 1132.0, 33.6452
37.360746797, 96.390, 1194.0, 34.5543
37.387007362, 96.390, 1136.0, 33.7046
37.413267928, 96.390, 1189.0, 34.4819
37.439528493, 96.390, 1143.0, 33.8083
37.465789058, 96.390, 1133.0, 33.6601
37.492049624, 96.390, 1192.0, 34.5254
37.518310189, 96.390, 1202.0, 34.6699
37.544570754, 96.390, 1181.0, 34.3657
37.570831320, 96.390, 1119.0, 33.4515
37.597091885, 96.390, 1151.0, 33.9264
37.623352450, 96.390, 1136.0, 33.7046
37.649613016, 96.390, 1074.0, 32.7719
37.675873581, 96.390, 1219.0, 34.9142
37.702134147, 96.390, 1148.0, 33.8821
37.728394712, 96.390, 1132.0, 33.6452
37.754655277, 96.390, 1095.0, 33.0908
37.780915843, 96.390, 1148.0, 33.8821
37.807176408, 96.390, 1141.0, 33.7787
37.833436973, 96.390, 1196.0, 34.5832
37.859697539, 96.390, 1194.0, 34.5543
37.885958104, 96.390, 1158.0, 34.0294
37.912218669, 96.390, 1115.0, 33.3916
37.938479235, 96.390, 1144.0, 33.8231
37.964739800, 96.390, 1205.0, 34.7131
37.991000365, 96.390, 1143.0, 33.8083
38.017260931, 96.390, 1148.0, 33.8821
38.043521496, 96.390, 1152.0, 33.9411
38.069782061, 96.390, 1141.0, 33.7787
38.096042627, 96.390, 1112.0, 33.3467
38.122303192, 96.390, 1090.0, 33.0151
38.148563758, 96.390, 1099.0, 33.1512
38.174824323, 96.390, 1117.0, 33.4215
38.201084888, 96.390, 1142.0, 33.7935
38.227345454, 96.390, 1099.0, 33.1512
38.253606019, 96.390, 1141.0, 33.7787
38.279866584, 96.390, 1137.0, 33.7194
38.306127150, 96.390, 1100.0, 33.1662
38.332387715, 96.390, 1090.0, 33.0151
38.358648280, 96.390, 1118.0, 33.4365
38.384908846, 96.390, 1100.0, 33.1662
38.411169411, 96.390, 1044.0, 32.3110
38.437429976, 96.390, 1116.0, 33.4066
38.463690542, 96.390, 1093.0, 33.0606
38.489951107, 96.390, 1119.0, 33.4515
38.516211673, 96.390, 1115.0, 33.3916
38.542472238, 96.390, 1092.0, 33.0454
38.568732803, 96.390, 1086.0, 32.9545
38.594993369, 96.390, 1141.0, 33.7787
38.621253934, 96.390, 1140.0, 33.7639
38.647514499, 96.390, 1064.0, 32.6190
38.673775065, 96.390, 1176.0, 34.2929
38.700035630, 96.390, 1060.0, 32.5576
38.726296195, 96.390, 1089.0, 33.0000
38.752556761, 96.390, 1101.0, 33.1813
38.778817326, 96.390, 1147.0, 33.8674
38.805077891, 96.390, 1098.0, 33.1361
38.831338457, 96.390, 1099.0, 33.1512
38.857599022, 96.390, 1110.0, 33.3167
38.883859587, 96.390, 1093.0, 33.0606
38.910120153, 96.390, 1105.0, 33.2415
38.936380718, 96.390, 1101.0, 33.1813
38.962641284, 96.390, 1071.0, 32.7261
38.988901849, 96.390, 1070.0, 32.7109
39.015162414, 96.390, 1099.0, 33.1512
39.041422980, 96.390, 1106.0, 33.2566
39.067683545, 96.390, 1037.0, 32.2025
39.093944110, 96.390, 1075.0, 32.7872
39.120204676, 96.390, 1038.0, 32.2180
39.146465241, 96.390, 1019.0, 31.9218
39.172725806, 96.390, 1080.0, 32.8634
39.198986372, 96.390, 1068.0, 32.6803
39.225246937, 96.390, 1122.0, 33.4963
39.251507502, 96.390, 1072.0, 32.7414
39.277768068, 96.390, 1090.0, 33.0151
39.304028633, 96.390, 1024.0, 32.0000
39.330289199, 96.390, 1086.0, 32.9545
39.356549764, 96.390, 1070.0, 32.7109
39.382810329, 96.390, 1075.0, 32.7872
39.409070895, 96.390, 1102.0, 33.1964
39.435331460, 96.390, 1134.0, 33.6749
39.461592025, 96.390, 1046.0, 32.3419
39.487852591, 96.390, 1076.0, 32.8024
39.514113156, 96.390, 1069.0, 32.6956
39.540373721, 96.390, 1090.0, 33.0151
39.566634287, 96.390, 1037.0, 32.2025
39.592894852, 96.390, 1082.0, 32.8938
39.619155417, 96.390, 1026.0, 32.0312
39.645415983, 96.390, 1111.0, 33.3317
39.671676548, 96.390, 1059.0, 32.5423
39.697937113, 96.390, 1013.0, 31.8277
39.724197679, 96.390, 1088.0, 32.9848
39.750458244, 96.390, 1026.0, 32.0312
39.776718810, 96.390, 1091.0, 33.0303
39.802979375, 96.390, 1011.0, 31.7962
39.829239940, 96.390, 1061.0, 32.5730
39.855500506, 96.390, 1092.0, 33.0454
39.881761071, 96.390, 1081.0, 32.8786
39.908021636, 96.390, 1039.0, 32.2335
39.934282202, 96.390, 977.0, 31.2570
39.960542767, 96.390, 1046.0, 32.3419
39.986803332, 96.390, 1025.0, 32.0156
40.013063898, 96.390, 1053.0, 32.4500
40.039324463, 96.390, 1071.0, 32.7261
40.065585028, 96.390, 1060.0, 32.5576
40.091845594, 96.390, 1007.0, 31.7333
40.118106159, 96.390, 1096.0, 33.1059
40.144366725, 96.390, 1035.0, 32.1714
40.170627290, 96.390, 1076.0, 32.8024
40.196887855, 96.390, 1081.0, 32.8786
40.223148421, 96.390, 1035.0, 32.1714
40.249408986, 96.390, 1030.0, 32.0936
40.275669551, 96.390, 1043.0, 32.2955
40.301930117, 96.390, 1054.0, 32.4654
40.328190682, 96.390, 1072.0, 32.7414
40.354451247, 96.390, 1066.0, 32.6497
40.380711813, 96.390, 1036.0, 32.1870
40.406972378, 96.390, 1019.0, 31.9218
40.433232943, 96.390, 1011.0, 31.7962
40.459493509, 96.390, 1054.0, 32.4654
40.485754074, 96.390, 1022.0, 31.9687
40.512014639, 96.390, 988.0, 31.4325
40.538275205, 96.390, 1054.0, 32.4654
40.564535770, 96.390, 1022.0, 31.9687
40.590796336, 96.390, 1008.0, 31.7490
40.617056901, 96.390, 1066.0, 32.6497
40.643317466, 96.390, 1044.0, 32.3110
40.669578032, 96.390, 989.0, 31.4484
40.695838597, 96.390, 981.0, 31.3209
40.722099162, 96.390, 1030.0, 32.0936
40.748359728, 96.390, 1085.0, 32.9393
40.774620293, 96.390, 1073.0, 32.7567
40.800880858, 96.390, 1020.0, 31.9374
40.827141424, 96.390, 1047.0, 32.3574
40.853401989, 96.390, 1029.0, 32.0780
40.879662554, 96.390, 997.0, 31.5753
40.905923120, 96.390, 1038.0, 32.2180
40.932183685, 96.390, 1022.0, 31.9687
40.958444251, 96.390, 1033.0, 32.1403
40.984704816, 96.390, 1049.0, 32.3883
41.010965381, 96.390, 1025.0, 32.0156
41.037225947, 96.390, 1060.0, 32.5576
41.063486512, 96.390, 1066.0, 32.6497
41.089747077, 96.390, 1024.0, 32.0000
41.116007643, 96.390, 992.0, 31.4960
41.142268208, 96.390, 1064.0, 32.6190
41.168528773, 96.390, 1099.0, 33.1512
41.194789339, 96.390, 1047.0, 32.3574
41.221049904, 96.390, 1022.0, 31.9687
41.247310469, 96.390, 1021.0, 31.9531
41.273571035, 96.390, 1042.0, 32.2800
41.299831600, 96.390, 1006.0, 31.7175
41.326092165, 96.390, 1081.0, 32.8786
41.352352731, 96.390, 985.0, 31.3847
41.378613296, 96.390, 977.0, 31.2570
41.404873862, 96.390, 1009.0, 31.7648
41.431134427, 96.390, 1042.0, 32.2800
41.457394992, 96.390, 1014.0, 31.8434
41.483655558, 96.390, 1049.0, 32.3883
41.509916123, 96.390, 1022.0, 31.9687
41.536176688, 96.390, 1032.0, 32.1248
41.562437254, 96.390, 973.0, 31.1929
41.588697819, 96.390, 1008.0, 31.7490
41.614958384, 96.390, 1013.0, 31.8277
41.641218950, 96.390, 1079.0, 32.8481
41.667479515, 96.390, 1017.0, 31.8904
41.693740080, 96.390, 970.0, 31.1448
41.720000646, 96.390, 991.0, 31.4802
41.746261211, 96.390, 1067.0, 32.6650
41.772521776, 96.390, 970.0, 31.1448
41.798782342, 96.390, 1063.0, 32.6037
41.825042907, 96.390, 962.0, 31.0161
41.851303473, 96.390, 1081.0, 32.8786
41.877564038, 96.390, 1019.0, 31.9218
41.903824603, 96.390, 1043.0, 32.2955
41.930085169, 96.390, 983.0, 31.3528
41.956345734, 96.390, 1018.0, 31.9061
41.982606299, 96.390, 1019.0, 31.9218
42.008866865, 96.390, 1009.0, 31.7648
42.035127430, 96.390, 1033.0, 32.1403
42.061387995, 96.390, 1065.0, 32.6343
42.087648561, 96.390, 998.0, 31.5911
42.113909126, 96.390, 1024.0, 32.0000
42.140169691, 96.390, 1075.0, 32.7872
42.166430257, 96.390, 1010.0, 31.7805
42.192690822, 96.390, 1034.0, 32.1559
42.218951388, 96.390, 975.0, 31.2250
42.245211953, 96.390, 1042.0, 32.2800
42.271472518, 96.390, 1011.0, 31.7962
42.297733084, 96.390, 1021.0, 31.9531
42.323993649, 96.390, 934.0, 30.5614
42.350254214, 96.390, 1001.0, 31.6386
42.376514780, 96.390, 1031.0, 32.1092
42.402775345, 96.390, 992.0, 31.4960
42.429035910, 96.390, 1009.0, 31.7648
42.455296476, 96.390, 1066.0, 32.6497
42.481557041, 96.390, 1063.0, 32.6037
42.507817606, 96.390, 997.0, 31.5753
42.534078172, 96.390, 986.0, 31.4006
42.560338737, 96.390, 1033.0, 32.1403
42.586599302, 96.390, 1038.0, 32.2180
42.612859868, 96.390, 954.0, 30.8869
42.639120433, 96.390, 987.0, 31.4166
42.665380999, 96.390, 1030.0, 32.0936
42.691641564, 96.390, 1047.0, 32.3574
42.717902129, 96.390, 992.0, 31.4960
42.744162695, 96.390, 995.0, 31.5436
42.770423260, 96.390, 1026.0, 32.0312
42.796683825, 96.390, 996.0, 31.5595
42.822944391, 96.390, 1029.0, 32.0780
42.849204956, 96.390, 1054.0, 32.4654
42.875465521, 96.390, 1028.0, 32.0624
42.901726087, 96.390, 975.0, 31.2250
42.927986652, 96.390, 1007.0, 31.7333
42.954247217, 96.390, 1035.0, 32.1714
42.980507783, 96.390, 1011.0, 31.7962
43.006768348, 96.390, 1021.0, 31.9531
43.033028914, 96.390, 994.0, 31.5278
43.059289479, 96.390, 946.0, 30.7571
43.085550044, 96.390, 999.0, 31.6070
43.111810610, 96.390, 975.0, 31.2250
43.138071175, 96.390, 957.0, 30.9354
43.164331740, 96.390, 1033.0, 32.1403
43.190592306, 96.390, 989.0, 31.4484
43.216852871, 96.390, 982.0, 31.3369
43.243113436, 96.390, 1013.0, 31.8277
43.269374002, 96.390, 904.0, 30.0666
43.295634567, 96.390, 1048.0, 32.3728
43.321895132, 96.390, 1034.0, 32.1559
43.348155698, 96.390, 1002.0, 31.6544
43.374416263, 96.390, 960.0, 30.9839
43.400676828, 96.390, 971.0, 31.1609
43.426937394, 96.390, 1000.0, 31.6228
43.453197959, 96.390, 1000.0, 31.6228
43.479458525, 96.390, 1004.0, 31.6860
43.505719090, 96.390, 1000.0, 31.6228
43.531979655, 96.390, 984.0, 31.3688
43.558240221, 96.390, 979.0, 31.2890
43.584500786, 96.390, 1056.0, 32.4962
43.610761351, 96.390, 984.0, 31.3688
43.637021917, 96.390, 954.0, 30.8869
43.663282482, 96.390, 1023.0, 31.9844
43.689543047, 96.390, 1018.0, 31.9061
43.715803613, 96.390, 985.0, 31.3847
43.742064178, 96.390, 939.0, 30.6431
43.768324743, 96.390, 996.0, 31.5595
43.794585309, 96.390, 987.0, 31.4166
43.820845874, 96.390, 1000.0, 31.6228
43.847106440, 96.390, 910.0, 30.1662
43.873367005, 96.390, 996.0, 31.5595
43.899627570, 96.390, 995.0, 31.5436
43.925888136, 96.390, 986.0, 31.4006
43.952148701, 96.390, 961.0, 31.0000
43.978409266, 96.390, 978.0, 31.2730
44.004669832, 96.390, 970.0, 31.1448
44.030930397, 96.390, 1007.0, 31.7333
44.057190962, 96.390, 961.0, 31.0000
44.083451528, 96.390, 988.0, 31.4325
44.109712093, 96.390, 976.0, 31.2410
44.135972658, 96.390, 956.0, 30.9192
44.162233224, 96.390, 993.0, 31.5119
44.188493789, 96.390, 959.0, 30.9677
44.214754354, 96.390, 969.0, 31.1288
44.241014920, 96.390, 1020.0, 31.9374
44.267275485, 96.390, 976.0, 31.2410
44.293536051, 96.390, 951.0, 30.8383
44.319796616, 96.390, 1021.0, 31.9531
44.346057181, 96.390, 981.0, 31.3209
44.372317747, 96.390, 1040.0, 32.2490
44.398578312, 96.390, 897.0, 29.9500
44.424838877, 96.390, 944.0, 30.7246
44.451099443, 96.390, 1026.0, 32.0312
44.477360008, 96.390, 1008.0, 31.7490
44.503620573, 96.390, 946.0, 30.7571
44.529881139, 96.390, 1006.0, 31.7175
44.556141704, 96.390, 929.0, 30.4795
44.582402269, 96.390, 1000.0, 31.6228
44.608662835, 96.390, 955.0, 30.9031
44.634923400, 96.390, 981.0, 31.3209
44.661183966, 96.390, 1001.0, 31.6386
44.687444531, 96.390, 1052.0, 32.4345
44.713705096, 96.390, 1022.0, 31.9687
44.739965662, 96.390, 1003.0, 31.6702
44.766226227, 96.390, 957.0, 30.9354
44.792486792, 96.390, 937.0, 30.6105
44.818747358, 96.390, 965.0, 31.0644
44.845007923, 96.390, 972.0, 31.1769
44.871268488, 96.390, 945.0, 30.7409
44.897529054, 96.390, 973.0, 31.1929
44.923789619, 96.390, 927.0, 30.4467
44.950050184, 96.390, 976.0, 31.2410
44.976310750, 96.390, 1007.0, 31.7333
45.002571315, 96.390, 1028.0, 32.0624
45.028831880, 96.390, 937.0, 30.6105
45.055092446, 96.390, 943.0, 30.7083
45.081353011, 96.390, 950.0, 30.8221
45.107613577, 96.390, 952.0, 30.8545
45.133874142, 96.390, 1009.0, 31.7648
45.160134707, 96.390, 980.0, 31.3050
45.186395273, 96.390, 985.0, 31.3847
45.212655838, 96.390, 994.0, 31.5278
45.238916403, 96.390, 994.0, 31.5278
45.265176969, 96.390, 985.0, 31.3847
45.291437534, 96.390, 925.0, 30.4138
45.317698099, 96.390, 954.0, 30.8869
45.343958665, 96.390, 922.0, 30.3645
45.370219230, 96.390, 914.0, 30.2324
45.396479795, 96.390, 860.0, 29.3258
45.422740361, 96.390, 900.0, 30.0000
45.449000926, 96.390, 896.0, 29.9333
45.475261492, 96.390, 907.0, 30.1164
45.501522057, 96.390, 986.0, 31.4006
45.527782622, 96.390, 992.0, 31.4960
45.554043188, 96.390, 972.0, 31.1769
45.580303753, 96.390, 936.0, 30.5941
45.606564318, 96.390, 950.0, 30.8221
45.632824884, 96.390, 917.0, 30.2820
45.659085449, 96.390, 943.0, 30.7083
45.685346014, 96.390, 963.0, 31.0322
45.711606580, 96.390, 915.0, 30.2490
45.737867145, 96.390, 941.0, 30.6757
45.764127710, 96.390, 914.0, 30.2324
45.790388276, 96.390, 935.0, 30.5778
45.816648841, 96.390, 916.0, 30.2655
45.842909406, 96.390, 906.0, 30.0998
45.869169972, 96.390, 943.0, 30.7083
45.895430537, 96.390, 946.0, 30.7571
45.921691103, 96.390, 946.0, 30.7571
45.947951668, 96.390, 936.0, 30.5941
45.974212233, 96.390, 873.0, 29.5466
46.000472799, 96.390, 944.0, 30.7246
46.026733364, 96.390, 914.0, 30.2324
46.052993929, 96.390, 943.0, 30.7083
46.079254495, 96.390, 960.0, 30.9839
46.105515060, 96.390, 961.0, 31.0000
46.131775625, 96.390, 889.0, 29.8161
46.158036191, 96.390, 923.0, 30.3809
46.184296756, 96.390, 881.0, 29.6816
46.210557321, 96.390, 939.0, 30.6431
46.236817887, 96.390, 942.0, 30.6920
46.263078452, 96.390, 954.0, 30.8869
46.289339017, 96.390, 940.0, 30.6594
46.315599583, 96.390, 939.0, 30.6431
46.341860148, 96.390, 913.0, 30.2159
46.368120714, 96.390, 924.0, 30.3974
46.394381279, 96.390, 890.0, 29.8329
46.420641844, 96.390, 929.0, 30.4795
46.446902410, 96.390, 907.0, 30.1164
46.473162975, 96.390, 905.0, 30.0832
46.499423540, 96.390, 908.0, 30.1330
46.525684106, 96.390, 906.0, 30.0998
46.551944671, 96.390, 934.0, 30.5614
46.578205236, 96.390, 881.0, 29.6816
46.604465802, 96.390, 951.0, 30.8383
46.630726367, 96.390, 951.0, 30.8383
46.656986932, 96.390, 934.0, 30.5614
46.683247498, 96.390, 873.0, 29.5466
46.709508063, 96.390, 940.0, 30.6594
46.735768629, 96.390, 896.0, 29.9333
46.762029194, 96.390, 909.0, 30.1496
46.788289759, 96.390, 924.0, 30.3974
46.814550325, 96.390, 979.0, 31.2890
46.840810890, 96.390, 898.0, 29.9666
46.867071455, 96.390, 899.0, 29.9833
46.893332021, 96.390, 918.0, 30.2985
46.919592586, 96.390, 957.0, 30.9354
46.945853151, 96.390, 929.0, 30.4795
46.972113717, 96.390, 907.0, 30.1164
46.998374282, 96.390, 925.0, 30.4138
47.024634847, 96.390, 931.0, 30.5123
47.050895413, 96.390, 934.0, 30.5614
47.077155978, 96.390, 979.0, 31.2890
47.103416543, 96.390, 1002.0, 31.6544
47.129677109, 96.390, 938.0, 30.6268
47.155937674, 96.390, 932.0, 30.5287
47.182198240, 96.390, 940.0, 30.6594
47.208458805, 96.390, 940.0, 30.6594
47.234719370, 96.390, 923.0, 30.3809
47.260979936, 96.390, 920.0, 30.3315
47.287240501, 96.390, 1012.0, 31.8119
47.313501066, 96.390, 960.0, 30.9839
47.339761632, 96.390, 962.0, 31.0161
47.366022197, 96.390, 931.0, 30.5123
47.392282762, 96.390, 919.0, 30.3150
47.418543328, 96.390, 908.0, 30.1330
47.444803893, 96.390, 874.0, 29.5635
47.471064458, 96.390, 896.0, 29.9333
47.497325024, 96.390, 936.0, 30.5941
47.523585589, 96.390, 904.0, 30.0666
47.549846155, 96.390, 890.0, 29.8329
47.576106720, 96.390, 912.0, 30.1993
47.602367285, 96.390, 950.0, 30.8221
47.628627851, 96.390, 883.0, 29.7153
47.654888416, 96.390, 948.0, 30.7896
47.681148981, 96.390, 900.0, 30.0000
47.707409547, 96.390, 860.0, 29.3258
47.733670112, 96.390, 874.0, 29.5635
47.759930677, 96.390, 859.0, 29.3087
47.786191243, 96.390, 919.0, 30.3150
47.812451808, 96.390, 878.0, 29.6311
47.838712373, 96.390, 875.0, 29.5804
47.864972939, 96.390, 903.0, 30.0500
47.891233504, 96.390, 943.0, 30.7083
47.917494069, 96.390, 895.0, 29.9166
47.943754635, 96.390, 905.0, 30.0832
47.970015200, 96.390, 912.0, 30.1993
47.996275766, 96.390, 918.0, 30.2985
48.022536331, 96.390, 846.0, 29.0861
48.048796896, 96.390, 905.0, 30.0832
48.075057462, 96.390, 873.0, 29.5466
48.101318027, 96.390, 899.0, 29.9833
48.127578592, 96.390, 899.0, 29.9833
48.153839158, 96.390, 848.0, 29.1204
48.180099723, 96.390, 940.0, 30.6594
48.206360288, 96.390, 910.0, 30.1662
48.232620854, 96.390, 847.0, 29.1033
48.258881419, 96.390, 906.0, 30.0998
48.285141984, 96.390, 917.0, 30.2820
48.311402550, 96.390, 954.0, 30.8869
48.337663115, 96.390, 933.0, 30.5450
48.363923681, 96.390, 933.0, 30.5450
48.390184246, 96.390, 906.0, 30.0998
48.416444811, 96.390, 887.0, 29.7825
48.442705377, 96.390, 932.0, 30.5287
48.468965942, 96.390, 1002.0, 31.6544
48.495226507, 96.390, 921.0, 30.3480
48.521487073, 96.390, 863.0, 29.3769
48.547747638, 96.390, 890.0, 29.8329
48.574008203, 96.390, 917.0, 30.2820
48.600268769, 96.390, 870.0, 29.4958
48.626529334, 96.390, 880.0, 29.6648
48.652789899, 96.390, 922.0, 30.3645
48.679050465, 96.390, 867.0, 29.4449
48.705311030, 96.390, 917.0, 30.2820
48.731571595, 96.390, 934.0, 30.5614
48.757832161, 96.390, 881.0, 29.6816
48.784092726, 96.390, 921.0, 30.3480
48.810353292, 96.390, 888.0, 29.7993
48.836613857, 96.390, 834.0, 28.8791
48.862874422, 96.390, 897.0, 29.9500
48.889134988, 96.390, 869.0, 29.4788
48.915395553, 96.390, 903.0, 30.0500
48.941656118, 96.390, 919.0, 30.3150
48.967916684, 96.390, 842.0, 29.0172
48.994177249, 96.390, 847.0, 29.1033
49.020437814, 96.390, 902.0, 30.0333
49.046698380, 96.390, 871.0, 29.5127
49.072958945, 96.390, 873.0, 29.5466
49.099219510, 96.390, 904.0, 30.0666
49.125480076, 96.390, 812.0, 28.4956
49.151740641, 96.390, 863.0, 29.3769
49.178001207, 96.390, 888.0, 29.7993
49.204261772, 96.390, 942.0, 30.6920
49.230522337, 96.390, 887.0, 29.7825
49.256782903, 96.390, 964.0, 31.0483
49.283043468, 96.390, 862.0, 29.3598
49.309304033, 96.390, 946.0, 30.7571
49.335564599, 96.390, 838.0, 28.9482
49.361825164, 96.390, 911.0, 30.1828
49.388085729, 96.390, 859.0, 29.3087
49.414346295, 96.390, 901.0, 30.0167
49.440606860, 96.390, 895.0, 29.9166
49.466867425, 96.390, 881.0, 29.6816
49.493127991, 96.390, 899.0, 29.9833
49.519388556, 96.390, 905.0, 30.0832
49.545649121, 96.390, 859.0, 29.3087
49.571909687, 96.390, 851.0, 29.1719
49.598170252, 96.390, 830.0, 28.8097
49.624430818, 96.390, 880.0, 29.6648
49.650691383, 96.390, 899.0, 29.9833
49.676951948, 96.390, 892.0, 29.8664
49.703212514, 96.390, 831.0, 28.8271
49.729473079, 96.390, 855.0, 29.2404
49.755733644, 96.390, 837.0, 28.9310
49.781994210, 96.390, 943.0, 30.7083
49.808254775, 96.390, 925.0, 30.4138
49.834515340, 96.390, 857.0, 29.2746
49.860775906, 96.390, 893.0, 29.8831
49.887036471, 96.390, 863.0, 29.3769
49.913297036, 96.390, 828.0, 28.7750
49.939557602, 96.390, 879.0, 29.6479
49.965818167, 96.390, 878.0, 29.6311
49.992078732, 96.390, 918.0, 30.2985
50.018339298, 96.390, 914.0, 30.2324
50.044599863, 96.390, 912.0, 30.1993
50.070860429, 96.390, 903.0, 30.0500
50.097120994, 96.390, 894.0, 29.8998
50.123381559, 96.390, 854.0, 29.2233
50.149642125, 96.390, 855.0, 29.2404
50.175902690, 96.390, 876.0, 29.5973
50.202163255, 96.390, 899.0, 29.9833
50.228423821, 96.390, 870.0, 29.4958
50.254684386, 96.390, 894.0, 29.8998
50.280944951, 96.390, 889.0, 29.8161
50.307205517, 96.390, 894.0, 29.8998
50.333466082, 96.390, 886.0, 29.7658
50.359726647, 96.390, 869.0, 29.4788
50.385987213, 96.390, 825.0, 28.7228
50.412247778, 96.390, 888.0, 29.7993
50.438508344, 96.390, 857.0, 29.2746
50.464768909, 96.390, 861.0, 29.3428
50.491029474, 96.390, 859.0, 29.3087
50.517290040, 96.390, 876.0, 29.5973
50.543550605, 96.390, 862.0, 29.3598
50.569811170, 96.390, 903.0, 30.0500
50.596071736, 96.390, 888.0, 29.7993
50.622332301, 96.390, 826.0, 28.7402
50.648592866, 96.390, 956.0, 30.9192
50.674853432, 96.390, 898.0, 29.9666
50.701113997, 96.390, 864.0, 29.3939
50.727374562, 96.390, 906.0, 30.0998
50.753635128, 96.390, 852.0, 29.1890
50.779895693, 96.390, 937.0, 30.6105
50.806156258, 96.390, 872.0, 29.5296
50.832416824, 96.390, 870.0, 29.4958
50.858677389, 96.390, 841.0, 29.0000
50.884937955, 96.390, 829.0, 28.7924
50.911198520, 96.390, 823.0, 28.6880
50.937459085, 96.390, 849.0, 29.1376
50.963719651, 96.390, 883.0, 29.7153
50.989980216, 96.390, 897.0, 29.9500
51.016240781, 96.390, 912.0, 30.1993
51.042501347, 96.390, 852.0, 29.1890
51.068761912, 96.390, 889.0, 29.8161
51.095022477, 96.390, 830.0, 28.8097
51.121283043, 96.390, 872.0, 29.5296
51.147543608, 96.390, 846.0, 29.0861
51.173804173, 96.390, 847.0, 29.1033
51.200064739, 96.390, 879.0, 29.6479
51.226325304, 96.390, 842.0, 29.0172
51.252585870, 96.390, 882.0, 29.6985
51.278846435, 96.390, 905.0, 30.0832
51.305107000, 96.390, 846.0, 29.0861
51.331367566, 96.390, 864.0, 29.3939
51.357628131, 96.390, 845.0, 29.0689
51.383888696, 96.390, 841.0, 29.0000
51.410149262, 96.390, 909.0, 30.1496
51.436409827, 96.390, 878.0, 29.6311
51.462670392, 96.390, 865.0, 29.4109
51.488930958, 96.390, 879.0, 29.6479
51.515191523, 96.390, 881.0, 29.6816
51.541452088, 96.390, 830.0, 28.8097
51.567712654, 96.390, 875.0, 29.5804
51.593973219, 96.390, 864.0, 29.3939
51.620233784, 96.390, 912.0, 30.1993
51.646494350, 96.390, 875.0, 29.5804
51.672754915, 96.390, 881.0, 29.6816
51.699015481, 96.390, 873.0, 29.5466
51.725276046, 96.390, 862.0, 29.3598
51.751536611, 96.390, 922.0, 30.3645
51.777797177, 96.390, 881.0, 29.6816
51.804057742, 96.390, 808.0, 28.4253
51.830318307, 96.390, 851.0, 29.1719
51.856578873, 96.390, 874.0, 29.5635
51.882839438, 96.390, 855.0, 29.2404
51.909100003, 96.390, 879.0, 29.6479
51.935360569, 96.390, 886.0, 29.7658
51.961621134, 96.390, 885.0, 29.7489
51.987881699, 96.390, 895.0, 29.9166
52.014142265, 96.390, 865.0, 29.4109
52.040402830, 96.390, 933.0, 30.5450
52.066663396, 96.390, 890.0, 29.8329
52.092923961, 96.390, 843.0, 29.0345
52.119184526, 96.390, 821.0, 28.6531
52.145445092, 96.390, 908.0, 30.1330
52.171705657, 96.390, 874.0, 29.5635
52.197966222, 96.390, 880.0, 29.6648
52.224226788, 96.390, 797.0, 28.2312
52.250487353, 96.390, 937.0, 30.6105
52.276747918, 96.390, 859.0, 29.3087
52.303008484, 96.390, 859.0, 29.3087
52.329269049, 96.390, 855.0, 29.2404
52.355529614, 96.390, 874.0, 29.5635
52.381790180, 96.390, 855.0, 29.2404
52.408050745, 96.390, 913.0, 30.2159
52.434311310, 96.390, 835.0, 28.8964
52.460571876, 96.390, 885.0, 29.7489
52.486832441, 96.390, 855.0, 29.2404
52.513093007, 96.390, 868.0, 29.4618
52.539353572, 96.390, 874.0, 29.5635
52.565614137, 96.390, 847.0, 29.1033
52.591874703, 96.390, 879.0, 29.6479
52.618135268, 96.390, 899.0, 29.9833
52.644395833, 96.390, 900.0, 30.0000
52.670656399, 96.390, 876.0, 29.5973
52.696916964, 96.390, 886.0, 29.7658
52.723177529, 96.390, 884.0, 29.7321
52.749438095, 96.390, 810.0, 28.4605
52.775698660, 96.390, 888.0, 29.7993
52.801959225, 96.390, 820.0, 28.6356
52.828219791, 96.390, 885.0, 29.7489
52.854480356, 96.390, 846.0, 29.0861
52.880740922, 96.390, 846.0, 29.0861
52.907001487, 96.390, 882.0, 29.6985
52.933262052, 96.390, 868.0, 29.4618
52.959522618, 96.390, 870.0, 29.4958
52.985783183, 96.390, 916.0, 30.2655
53.012043748, 96.390, 854.0, 29.2233
53.038304314, 96.390, 848.0, 29.1204
53.064564879, 96.390, 861.0, 29.3428
53.090825444, 96.390, 849.0, 29.1376
53.117086010, 96.390, 862.0, 29.3598
53.143346575, 96.390, 885.0, 29.7489
53.169607140, 96.390, 899.0, 29.9833
53.195867706, 96.390, 837.0, 28.9310
53.222128271, 96.390, 849.0, 29.1376
53.248388836, 96.390, 885.0, 29.7489
53.274649402, 96.390, 875.0, 29.5804
53.300909967, 96.390, 770.0, 27.7489
53.327170533, 96.390, 872.0, 29.5296
53.353431098, 96.390, 842.0, 29.0172
53.379691663, 96.390, 878.0, 29.6311
53.405952229, 96.390, 895.0, 29.9166
53.432212794, 96.390, 867.0, 29.4449
53.458473359, 96.390, 808.0, 28.4253
53.484733925, 96.390, 830.0, 28.8097
53.510994490, 96.390, 884.0, 29.7321
53.537255055, 96.390, 911.0, 30.1828
53.563515621, 96.390, 883.0, 29.7153
53.589776186, 96.390, 848.0, 29.1204
53.616036751, 96.390, 880.0, 29.6648
53.642297317, 96.390, 887.0, 29.7825
53.668557882, 96.390, 857.0, 29.2746
53.694818448, 96.390, 829.0, 28.7924
53.721079013, 96.390, 894.0, 29.8998
53.747339578, 96.390, 858.0, 29.2916
53.773600144, 96.390, 881.0, 29.6816
53.799860709, 96.390, 841.0, 29.0000
53.826121274, 96.390, 880.0, 29.6648
53.852381840, 96.390, 874.0, 29.5635
53.878642405, 96.390, 820.0, 28.6356
53.904902970, 96.390, 835.0, 28.8964
53.931163536, 96.390, 819.0, 28.6182
53.957424101, 96.390, 827.0, 28.7576
53.983684666, 96.390, 831.0, 28.8271
54.009945232, 96.390, 923.0, 30.3809
54.036205797, 96.390, 859.0, 29.3087
54.062466362, 96.390, 787.0, 28.0535
54.088726928, 96.390, 872.0, 29.5296
54.114987493, 96.390, 854.0, 29.2233
54.141248059, 96.390, 851.0, 29.1719
54.167508624, 96.390, 870.0, 29.4958
54.193769189, 96.390, 877.0, 29.6142
54.220029755, 96.390, 907.0, 30.1164
54.246290320, 96.390, 812.0, 28.4956
54.272550885, 96.390, 792.0, 28.1425
54.298811451, 96.390, 861.0, 29.3428
54.325072016, 96.390, 849.0, 29.1376
54.351332581, 96.390, 831.0, 28.8271
54.377593147, 96.390, 858.0, 29.2916
54.403853712, 96.390, 908.0, 30.1330
54.430114277, 96.390, 806.0, 28.3901
54.456374843, 96.390, 834.0, 28.8791
54.482635408, 96.390, 866.0, 29.4279
54.508895973, 96.390, 844.0, 29.0517
54.535156539, 96.390, 889.0, 29.8161
54.561417104, 96.390, 835.0, 28.8964
54.587677670, 96.390, 897.0, 29.9500
54.613938235, 96.390, 841.0, 29.0000
54.640198800, 96.390, 860.0, 29.3258
54.666459366, 96.390, 892.0, 29.8664
54.692719931, 96.390, 868.0, 29.4618
54.718980496, 96.390, 822.0, 28.6705
54.745241062, 96.390, 888.0, 29.7993
54.771501627, 96.390, 837.0, 28.9310
54.797762192, 96.390, 803.0, 28.3373
54.824022758, 96.390, 884.0, 29.7321
54.850283323, 96.390, 878.0, 29.6311
54.876543888, 96.390, 874.0, 29.5635
54.902804454, 96.390, 792.0, 28.1425
54.929065019, 96.390, 843.0, 29.0345
54.955325585, 96.390, 822.0, 28.6705
54.981586150, 96.390, 804.0, 28.3549
55.007846715, 96.390, 869.0, 29.4788
55.034107281, 96.390, 850.0, 29.1548
55.060367846, 96.390, 854.0, 29.2233
55.086628411, 96.390, 917.0, 30.2820
55.112888977, 96.390, 851.0, 29.1719
55.139149542, 96.390, 852.0, 29.1890
55.165410107, 96.390, 876.0, 29.5973
55.191670673, 96.390, 877.0, 29.6142
55.217931238, 96.390, 879.0, 29.6479
55.244191803, 96.390, 800.0, 28.2843
55.270452369, 96.390, 797.0, 28.2312
55.296712934, 96.390, 843.0, 29.0345
55.322973499, 96.390, 906.0, 30.0998
55.349234065, 96.390, 907.0, 30.1164
55.375494630, 96.390, 877.0, 29.6142
55.401755196, 96.390, 852.0, 29.1890
55.428015761, 96.390, 875.0, 29.5804
55.454276326, 96.390, 863.0, 29.3769
55.480536892, 96.390, 817.0, 28.5832
55.506797457, 96.390, 821.0, 28.6531
55.533058022, 96.390, 908.0, 30.1330
55.559318588, 96.390, 802.0, 28.3196
55.585579153, 96.390, 839.0, 28.9655
55.611839718, 96.390, 804.0, 28.3549
55.638100284, 96.390, 845.0, 29.0689
55.664360849, 96.390, 858.0, 29.2916
55.690621414, 96.390, 862.0, 29.3598
55.716881980, 96.390, 837.0, 28.9310
55.743142545, 96.390, 898.0, 29.9666
55.769403111, 96.390, 839.0, 28.9655
55.795663676, 96.390, 849.0, 29.1376
55.821924241, 96.390, 842.0, 29.0172
55.848184807, 96.390, 830.0, 28.8097
55.874445372, 96.390, 901.0, 30.0167
55.900705937, 96.390, 803.0, 28.3373
55.926966503, 96.390, 861.0, 29.3428
55.953227068, 96.390, 829.0, 28.7924
55.979487633, 96.390, 860.0, 29.3258
56.005748199, 96.390, 848.0, 29.1204
56.032008764, 96.390, 816.0, 28.5657
56.058269329, 96.390, 904.0, 30.0666
56.084529895, 96.390, 868.0, 29.4618
56.110790460, 96.390, 831.0, 28.8271
56.137051025, 96.390, 831.0, 28.8271
56.163311591, 96.390, 819.0, 28.6182
56.189572156, 96.390, 871.0, 29.5127
56.215832722, 96.390, 876.0, 29.5973
56.242093287, 96.390, 894.0, 29.8998
56.268353852, 96.390, 875.0, 29.5804
56.294614418, 96.390, 828.0, 28.7750
56.320874983, 96.390, 842.0, 29.0172
56.347135548, 96.390, 852.0, 29.1890
56.373396114, 96.390, 845.0, 29.0689
56.399656679, 96.390, 887.0, 29.7825
56.425917244, 96.390, 879.0, 29.6479
56.452177810, 96.390, 862.0, 29.3598
56.478438375, 96.390, 834.0, 28.8791
56.504698940, 96.390, 806.0, 28.3901
56.530959506, 96.390, 844.0, 29.0517
56.557220071, 96.390, 882.0, 29.6985
56.583480637, 96.390, 856.0, 29.2575
56.609741202, 96.390, 811.0, 28.4781
56.636001767, 96.390, 855.0, 29.2404
56.662262333, 96.390, 847.0, 29.1033
56.688522898, 96.390, 891.0, 29.8496
56.714783463, 96.390, 847.0, 29.1033
56.741044029, 96.390, 829.0, 28.7924
56.767304594, 96.390, 882.0, 29.6985
56.793565159, 96.390, 850.0, 29.1548
56.819825725, 96.390, 835.0, 28.8964
56.846086290, 96.390, 858.0, 29.2916
56.872346855, 96.390, 852.0, 29.1890
56.898607421, 96.390, 889.0, 29.8161
56.924867986, 96.390, 827.0, 28.7576
56.951128551, 96.390, 862.0, 29.3598
56.977389117, 96.390, 931.0, 30.5123
57.003649682, 96.390, 825.0, 28.7228
57.029910248, 96.390, 861.0, 29.3428
57.056170813, 96.390, 851.0, 29.1719
57.082431378, 96.390, 829.0, 28.7924
57.108691944, 96.390, 842.0, 29.0172
57.134952509, 96.390, 846.0, 29.0861
57.161213074, 96.390, 849.0, 29.1376
57.187473640, 96.390, 850.0, 29.1548
57.213734205, 96.390, 813.0, 28.5132
57.239994770, 96.390, 839.0, 28.9655
57.266255336, 96.390, 883.0, 29.7153
57.292515901, 96.390, 860.0, 29.3258
57.318776466, 96.390, 832.0, 28.8444
57.345037032, 96.390, 834.0, 28.8791
57.371297597, 96.390, 866.0, 29.4279
57.397558163, 96.390, 853.0, 29.2062
57.423818728, 96.390, 854.0, 29.2233
57.450079293, 96.390, 832.0, 28.8444
57.476339859, 96.390, 825.0, 28.7228
57.502600424, 96.390, 873.0, 29.5466
57.528860989, 96.390, 864.0, 29.3939
57.555121555, 96.390, 890.0, 29.8329
57.581382120, 96.390, 884.0, 29.7321
57.607642685, 96.390, 829.0, 28.7924
57.633903251, 96.390, 873.0, 29.5466
57.660163816, 96.390, 875.0, 29.5804
57.686424381, 96.390, 850.0, 29.1548
57.712684947, 96.390, 910.0, 30.1662
57.738945512, 96.390, 833.0, 28.8617
57.765206077, 96.390, 833.0, 28.8617
57.791466643, 96.390, 842.0, 29.0172
57.817727208, 96.390, 845.0, 29.0689
57.843987774, 96.390, 902.0, 30.0333
57.870248339, 96.390, 883.0, 29.7153
57.896508904, 96.390, 829.0, 28.7924
57.922769470, 96.390, 859.0, 29.3087
57.949030035, 96.390, 882.0, 29.6985
57.975290600, 96.390, 821.0, 28.6531
58.001551166, 96.390, 877.0, 29.6142
58.027811731, 96.390, 824.0, 28.7054
58.054072296, 96.390, 894.0, 29.8998
58.080332862, 96.390, 814.0, 28.5307
58.106593427, 96.390, 877.0, 29.6142
58.132853992, 96.390, 848.0, 29.1204
58.159114558, 96.390, 878.0, 29.6311
58.185375123, 96.390, 870.0, 29.4958
58.211635689, 96.390, 859.0, 29.3087
58.237896254, 96.390, 809.0, 28.4429
58.264156819, 96.390, 827.0, 28.7576
58.290417385, 96.390, 865.0, 29.4109
58.316677950, 96.390, 869.0, 29.4788
58.342938515, 96.390, 843.0, 29.0345
58.369199081, 96.390, 826.0, 28.7402
58.395459646, 96.390, 880.0, 29.6648
58.421720211, 96.390, 893.0, 29.8831
58.447980777, 96.390, 851.0, 29.1719
58.474241342, 96.390, 866.0, 29.4279
58.500501907, 96.390, 842.0, 29.0172
58.526762473, 96.390, 847.0, 29.1033
58.553023038, 96.390, 848.0, 29.1204
58.579283603, 96.390, 816.0, 28.5657
58.605544169, 96.390, 891.0, 29.8496
58.631804734, 96.390, 843.0, 29.0345
58.658065300, 96.390, 885.0, 29.7489
58.684325865, 96.390, 828.0, 28.7750
58.710586430, 96.390, 738.0, 27.1662
58.736846996, 96.390, 802.0, 28.3196
58.763107561, 96.390, 900.0, 30.0000
58.789368126, 96.390, 870.0, 29.4958
58.815628692, 96.390, 822.0, 28.6705
58.841889257, 96.390, 798.0, 28.2489
58.868149822, 96.390, 841.0, 29.0000
58.894410388, 96.390, 838.0, 28.9482
58.920670953, 96.390, 841.0, 29.0000
58.946931518, 96.390, 818.0, 28.6007
58.973192084, 96.390, 824.0, 28.7054
58.999452649, 96.390, 849.0, 29.1376
59.025713214, 96.390, 806.0, 28.3901
59.051973780, 96.390, 836.0, 28.9137
59.078234345, 96.390, 815.0, 28.5482
59.104494911, 96.390, 849.0, 29.1376
59.130755476, 96.390, 881.0, 29.6816
59.157016041, 96.390, 876.0, 29.5973
59.183276607, 96.390, 831.0, 28.8271
59.209537172, 96.390, 864.0, 29.3939
59.235797737, 96.390, 897.0, 29.9500
59.262058303, 96.390, 816.0, 28.5657
59.288318868, 96.390, 812.0, 28.4956
59.314579433, 96.390, 891.0, 29.8496
59.340839999, 96.390, 859.0, 29.3087
59.367100564, 96.390, 830.0, 28.8097
59.393361129, 96.390, 829.0, 28.7924
59.419621695, 96.390, 855.0, 29.2404
59.445882260, 96.390, 867.0, 29.4449
59.472142826, 96.390, 825.0, 28.7228
59.498403391, 96.390, 863.0, 29.3769
59.524663956, 96.390, 865.0, 29.4109
59.550924522, 96.390, 799.0, 28.2666
59.577185087, 96.390, 882.0, 29.6985
59.603445652, 96.390, 853.0, 29.2062
59.629706218, 96.390, 878.0, 29.6311
59.655966783, 96.390, 869.0, 29.4788
59.682227348, 96.390, 828.0, 28.7750
59.708487914, 96.390, 830.0, 28.8097
59.734748479, 96.390, 837.0, 28.9310
59.761009044, 96.390, 791.0, 28.1247
59.787269610, 96.390, 875.0, 29.5804
59.813530175, 96.390, 887.0, 29.7825
59.839790740, 96.390, 889.0, 29.8161
59.866051306, 96.390, 812.0, 28.4956
59.892311871, 96.390, 856.0, 29.2575
59.918572437, 96.390, 870.0, 29.4958
59.944833002, 96.390, 830.0, 28.8097
59.971093567, 96.390, 834.0, 28.8791
59.997354133, 96.390, 803.0, 28.3373
60.023614698, 96.390, 818.0, 28.6007
60.049875263, 96.390, 791.0, 28.1247
60.076135829, 96.390, 869.0, 29.4788
60.102396394, 96.390, 817.0, 28.5832
60.128656959, 96.390, 858.0, 29.2916
60.154917525, 96.390, 859.0, 29.3087
60.181178090, 96.390, 878.0, 29.6311
60.207438655, 96.390, 856.0, 29.2575
60.233699221, 96.390, 911.0, 30.1828
60.259959786, 96.390, 832.0, 28.8444
60.286220352, 96.390, 866.0, 29.4279
60.312480917, 96.390, 827.0, 28.7576
60.338741482, 96.390, 884.0, 29.7321
60.365002048, 96.390, 808.0, 28.4253
60.391262613, 96.390, 836.0, 28.9137
60.417523178, 96.390, 874.0, 29.5635
60.443783744, 96.390, 888.0, 29.7993
60.470044309, 96.390, 855.0, 29.2404
60.496304874, 96.390, 841.0, 29.0000
60.522565440, 96.390, 838.0, 28.9482
60.548826005, 96.390, 814.0, 28.5307
60.575086570, 96.390, 922.0, 30.3645
60.601347136, 96.390, 857.0, 29.2746
60.627607701, 96.390, 871.0, 29.5127
60.653868266, 96.390, 840.0, 28.9828
60.680128832, 96.390, 856.0, 29.2575
60.706389397, 96.390, 840.0, 28.9828
60.732649963, 96.390, 826.0, 28.7402
60.758910528, 96.390, 765.0, 27.6586
60.785171093, 96.390, 784.0, 28.0000
60.811431659, 96.390, 861.0, 29.3428
60.837692224, 96.390, 812.0, 28.4956
60.863952789, 96.390, 929.0, 30.4795
60.890213355, 96.390, 821.0, 28.6531
60.916473920, 96.390, 908.0, 30.1330
60.942734485, 96.390, 864.0, 29.3939
60.968995051, 96.390, 881.0, 29.6816
60.995255616, 96.390, 827.0, 28.7576
61.021516181, 96.390, 833.0, 28.8617
61.047776747, 96.390, 832.0, 28.8444
61.074037312, 96.390, 791.0, 28.1247
61.100297878, 96.390, 826.0, 28.7402
61.126558443, 96.390, 821.0, 28.6531
61.152819008, 96.390, 834.0, 28.8791
61.179079574, 96.390, 853.0, 29.2062
61.205340139, 96.390, 862.0, 29.3598
61.231600704, 96.390, 850.0, 29.1548
61.257861270, 96.390, 854.0, 29.2233
61.284121835, 96.390, 805.0, 28.3725
61.310382400, 96.390, 867.0, 29.4449
61.336642966, 96.390, 850.0, 29.1548
61.362903531, 96.390, 898.0, 29.9666
61.389164096, 96.390, 914.0, 30.2324
61.415424662, 96.390, 903.0, 30.0500
61.441685227, 96.390, 844.0, 29.0517
61.467945792, 96.390, 837.0, 28.9310
61.494206358, 96.390, 875.0, 29.5804
61.520466923, 96.390, 821.0, 28.6531
61.546727489, 96.390, 791.0, 28.1247
61.572988054, 96.390, 885.0, 29.7489
61.599248619, 96.390, 903.0, 30.0500
61.625509185, 96.390, 824.0, 28.7054
61.651769750, 96.390, 878.0, 29.6311
61.678030315, 96.390, 832.0, 28.8444
61.704290881, 96.390, 905.0, 30.0832
61.730551446, 96.390, 831.0, 28.8271
61.756812011, 96.390, 826.0, 28.7402
61.783072577, 96.390, 929.0, 30.4795
61.809333142, 96.390, 831.0, 28.8271
61.835593707, 96.390, 884.0, 29.7321
61.861854273, 96.390, 894.0, 29.8998
61.888114838, 96.390, 893.0, 29.8831
61.914375404, 96.390, 822.0, 28.6705
61.940635969, 96.390, 895.0, 29.9166
61.966896534, 96.390, 812.0, 28.4956
61.993157100, 96.390, 850.0, 29.1548
62.019417665, 96.390, 819.0, 28.6182
62.045678230, 96.390, 857.0, 29.2746
62.071938796, 96.390, 854.0, 29.2233
62.098199361, 96.390, 854.0, 29.2233
62.124459926, 96.390, 870.0, 29.4958
62.150720492, 96.390, 797.0, 28.2312
62.176981057, 96.390, 880.0, 29.6648
62.203241622, 96.390, 902.0, 30.0333
62.229502188, 96.390, 842.0, 29.0172
62.255762753, 96.390, 813.0, 28.5132
62.282023318, 96.390, 839.0, 28.9655
62.308283884, 96.390, 855.0, 29.2404
62.334544449, 96.390, 853.0, 29.2062
62.360805015, 96.390, 872.0, 29.5296
62.387065580, 96.390, 873.0, 29.5466
62.413326145, 96.390, 825.0, 28.7228
62.439586711, 96.390, 859.0, 29.3087
62.465847276, 96.390, 821.0, 28.6531
62.492107841, 96.390, 803.0, 28.3373
62.518368407, 96.390, 891.0, 29.8496
62.544628972, 96.390, 901.0, 30.0167
62.570889537, 96.390, 855.0, 29.2404
62.597150103, 96.390, 864.0, 29.3939
62.623410668, 96.390, 800.0, 28.2843
62.649671233, 96.390, 839.0, 28.9655
62.675931799, 96.390, 868.0, 29.4618
62.702192364, 96.390, 813.0, 28.5132
62.728452930, 96.390, 839.0, 28.9655
62.754713495, 96.390, 884.0, 29.7321
62.780974060, 96.390, 896.0, 29.9333
62.807234626, 96.390, 829.0, 28.7924
62.833495191, 96.390, 782.0, 27.9643
62.859755756, 96.390, 817.0, 28.5832
62.886016322, 96.390, 783.0, 27.9821
62.912276887, 96.390, 805.0, 28.3725
62.938537452, 96.390, 800.0, 28.2843
62.964798018, 96.390, 915.0, 30.2490
62.991058583, 96.390, 873.0, 29.5466
63.017319148, 96.390, 908.0, 30.1330
63.043579714, 96.390, 841.0, 29.0000
63.069840279, 96.390, 926.0, 30.4302
63.096100844, 96.390, 820.0, 28.6356
63.122361410, 96.390, 831.0, 28.8271
63.148621975, 96.390, 849.0, 29.1376
63.174882541, 96.390, 866.0, 29.4279
63.201143106, 96.390, 812.0, 28.4956
63.227403671, 96.390, 826.0, 28.7402
63.253664237, 96.390, 872.0, 29.5296
63.279924802, 96.390, 822.0, 28.6705
63.306185367, 96.390, 823.0, 28.6880
63.332445933, 96.390, 855.0, 29.2404
63.358706498, 96.390, 824.0, 28.7054
63.384967063, 96.390, 845.0, 29.0689
63.411227629, 96.390, 840.0, 28.9828
63.437488194, 96.390, 846.0, 29.0861
63.463748759, 96.390, 839.0, 28.9655
63.490009325, 96.390, 856.0, 29.2575
63.516269890, 96.390, 842.0, 29.0172
63.542530455, 96.390, 824.0, 28.7054
63.568791021, 96.390, 853.0, 29.2062
63.595051586, 96.390, 840.0, 28.9828
63.621312152, 96.390, 820.0, 28.6356
63.647572717, 96.390, 829.0, 28.7924
63.673833282, 96.390, 860.0, 29.3258
63.700093848, 96.390, 816.0, 28.5657
63.726354413, 96.390, 849.0, 29.1376
63.752614978, 96.390, 830.0, 28.8097
63.778875544, 96.390, 812.0, 28.4956
63.805136109, 96.390, 864.0, 29.3939
63.831396674, 96.390, 814.0, 28.5307
63.857657240, 96.390, 818.0, 28.6007
63.883917805, 96.390, 828.0, 28.7750
63.910178370, 96.390, 873.0, 29.5466
63.936438936, 96.390, 875.0, 29.5804
63.962699501, 96.390, 788.0, 28.0713
63.988960067, 96.390, 930.0, 30.4959
64.015220632, 96.390, 895.0, 29.9166
64.041481197, 96.390, 832.0, 28.8444
64.067741763, 96.390, 824.0, 28.7054
64.094002328, 96.390, 883.0, 29.7153
64.120262893, 96.390, 836.0, 28.9137
64.146523459, 96.390, 810.0, 28.4605
64.172784024, 96.390, 879.0, 29.6479
64.199044589, 96.390, 889.0, 29.8161
64.225305155, 96.390, 837.0, 28.9310
64.251565720, 96.390, 850.0, 29.1548
64.277826285, 96.390, 832.0, 28.8444
64.304086851, 96.390, 837.0, 28.9310
64.330347416, 96.390, 839.0, 28.9655
64.356607981, 96.390, 844.0, 29.0517
64.382868547, 96.390, 903.0, 30.0500
64.409129112, 96.390, 819.0, 28.6182
64.435389678, 96.390, 847.0, 29.1033
64.461650243, 96.390, 824.0, 28.7054
64.487910808, 96.390, 850.0, 29.1548
64.514171374, 96.390, 827.0, 28.7576
64.540431939, 96.390, 874.0, 29.5635
64.566692504, 96.390, 830.0, 28.8097
64.592953070, 96.390, 816.0, 28.5657
64.619213635, 96.390, 852.0, 29.1890
64.645474200, 96.390, 870.0, 29.4958
64.671734766, 96.390, 852.0, 29.1890
64.697995331, 96.390, 877.0, 29.6142
64.724255896, 96.390, 822.0, 28.6705
64.750516462, 96.390, 879.0, 29.6479
64.776777027, 96.390, 811.0, 28.4781
64.803037593, 96.390, 826.0, 28.7402
64.829298158, 96.390, 820.0, 28.6356
64.855558723, 96.390, 832.0, 28.8444
64.881819289, 96.390, 822.0, 28.6705
64.908079854, 96.390, 868.0, 29.4618
64.934340419, 96.390, 850.0, 29.1548
64.960600985, 96.390, 890.0, 29.8329
64.986861550, 96.390, 809.0, 28.4429
