[Measurement conditions]
Sample identification,MNASPH_sicornerPC03nov21
Comment - 1,"Configuration=Stage for Flat Samples/Holders, Owner=User-1, Creation date=7/1/2020 9:53:24 AM"
Comment - 2,"Goniometer=Theta/Theta; Minimum step size 2Theta:0.0001; Minimum step size Omega:0.0001"
Comment - 3,"Sample stage=Stage for flat samples/holders"
Comment - 4,"Diffractometer system=EMPYREAN"
Comment - 5,"Measurement program=C:\Users\ibo5034\OneDrive - The Pennsylvania State University\NEUP\Zerobackground scan.xrdmp, Identifier={98A3B11C-88F9-4AA6-982C-73314A311EF5}"
Anode material,Cu
K-Alpha1 wavelength,1.5405980
K-Alpha2 wavelength,1.5444260
Ratio K-Alpha2/K-Alpha1,0.500
Divergence slit,Fixed,0.25
Monochromator used,NO
Generator voltage, 45
Tube current, 40
File date and time,03/Dec/2021 10:43
Unit cell,
h k l, 0 0 0
Scan axis,Gonio
Scan range,4.994599997,64.999991833
Scan step size,0.0262606
No. of points, 2285
Scan type,CONTINUOUS
Time per step,96.390
[Scan points]
Angle, TimePerStep, Intensity, ESD
5.007730280, 96.390, 5567.0, 74.6123
5.033990845, 96.390, 5683.0, 75.3857
5.060251411, 96.390, 5614.0, 74.9266
5.086511976, 96.390, 5496.0, 74.1350
5.112772541, 96.390, 5391.0, 73.4234
5.139033107, 96.390, 5438.0, 73.7428
5.165293672, 96.390, 5335.0, 73.0411
5.191554237, 96.390, 5293.0, 72.7530
5.217814803, 96.390, 5308.0, 72.8560
5.244075368, 96.390, 5046.0, 71.0352
5.270335934, 96.390, 5185.0, 72.0069
5.296596499, 96.390, 5084.0, 71.3022
5.322857064, 96.390, 5114.0, 71.5122
5.349117630, 96.390, 4992.0, 70.6541
5.375378195, 96.390, 5004.0, 70.7390
5.401638760, 96.390, 4835.0, 69.5342
5.427899326, 96.390, 4860.0, 69.7137
5.454159891, 96.390, 4756.0, 68.9638
5.480420456, 96.390, 4874.0, 69.8140
5.506681022, 96.390, 4870.0, 69.7854
5.532941587, 96.390, 4648.0, 68.1762
5.559202152, 96.390, 4817.0, 69.4046
5.585462718, 96.390, 4752.0, 68.9348
5.611723283, 96.390, 4787.0, 69.1881
5.637983849, 96.390, 4713.0, 68.6513
5.664244414, 96.390, 4608.0, 67.8823
5.690504979, 96.390, 4606.0, 67.8675
5.716765545, 96.390, 4574.0, 67.6314
5.743026110, 96.390, 4595.0, 67.7864
5.769286675, 96.390, 4649.0, 68.1836
5.795547241, 96.390, 4533.0, 67.3276
5.821807806, 96.390, 4642.0, 68.1322
5.848068371, 96.390, 4579.0, 67.6683
5.874328937, 96.390, 4454.0, 66.7383
5.900589502, 96.390, 4381.0, 66.1891
5.926850067, 96.390, 4384.0, 66.2118
5.953110633, 96.390, 4365.0, 66.0681
5.979371198, 96.390, 4350.0, 65.9545
6.005631763, 96.390, 4298.0, 65.5591
6.031892329, 96.390, 4480.0, 66.9328
6.058152894, 96.390, 4240.0, 65.1153
6.084413460, 96.390, 4242.0, 65.1306
6.110674025, 96.390, 4339.0, 65.8711
6.136934590, 96.390, 4331.0, 65.8103
6.163195156, 96.390, 4170.0, 64.5755
6.189455721, 96.390, 4232.0, 65.0538
6.215716286, 96.390, 4251.0, 65.1997
6.241976852, 96.390, 4255.0, 65.2304
6.268237417, 96.390, 4107.0, 64.0859
6.294497982, 96.390, 4090.0, 63.9531
6.320758548, 96.390, 4185.0, 64.6916
6.347019113, 96.390, 4073.0, 63.8201
6.373279678, 96.390, 4085.0, 63.9140
6.399540244, 96.390, 4126.0, 64.2339
6.425800809, 96.390, 4131.0, 64.2729
6.452061375, 96.390, 3992.0, 63.1823
6.478321940, 96.390, 3948.0, 62.8331
6.504582505, 96.390, 4068.0, 63.7809
6.530843071, 96.390, 4062.0, 63.7338
6.557103636, 96.390, 4044.0, 63.5925
6.583364201, 96.390, 4060.0, 63.7181
6.609624767, 96.390, 3903.0, 62.4740
6.635885332, 96.390, 4032.0, 63.4980
6.662145897, 96.390, 3929.0, 62.6817
6.688406463, 96.390, 3911.0, 62.5380
6.714667028, 96.390, 3899.0, 62.4420
6.740927593, 96.390, 3875.0, 62.2495
6.767188159, 96.390, 3859.0, 62.1208
6.793448724, 96.390, 3884.0, 62.3217
6.819709289, 96.390, 3884.0, 62.3217
6.845969855, 96.390, 3812.0, 61.7414
6.872230420, 96.390, 3730.0, 61.0737
6.898490986, 96.390, 3829.0, 61.8789
6.924751551, 96.390, 3868.0, 62.1932
6.951012116, 96.390, 3787.0, 61.5386
6.977272682, 96.390, 3827.0, 61.8628
7.003533247, 96.390, 3761.0, 61.3270
7.029793812, 96.390, 3827.0, 61.8628
7.056054378, 96.390, 3640.0, 60.3324
7.082314943, 96.390, 3747.0, 61.2127
7.108575508, 96.390, 3730.0, 61.0737
7.134836074, 96.390, 3633.0, 60.2744
7.161096639, 96.390, 3604.0, 60.0333
7.187357204, 96.390, 3672.0, 60.5970
7.213617770, 96.390, 3720.0, 60.9918
7.239878335, 96.390, 3754.0, 61.2699
7.266138900, 96.390, 3715.0, 60.9508
7.292399466, 96.390, 3651.0, 60.4235
7.318660031, 96.390, 3655.0, 60.4566
7.344920597, 96.390, 3630.0, 60.2495
7.371181162, 96.390, 3748.0, 61.2209
7.397441727, 96.390, 3700.0, 60.8276
7.423702293, 96.390, 3618.0, 60.1498
7.449962858, 96.390, 3667.0, 60.5558
7.476223423, 96.390, 3675.0, 60.6218
7.502483989, 96.390, 3603.0, 60.0250
7.528744554, 96.390, 3614.0, 60.1166
7.555005119, 96.390, 3507.0, 59.2199
7.581265685, 96.390, 3469.0, 58.8982
7.607526250, 96.390, 3524.0, 59.3633
7.633786815, 96.390, 3512.0, 59.2621
7.660047381, 96.390, 3448.0, 58.7197
7.686307946, 96.390, 3558.0, 59.6490
7.712568512, 96.390, 3568.0, 59.7327
7.738829077, 96.390, 3486.0, 59.0424
7.765089642, 96.390, 3473.0, 58.9322
7.791350208, 96.390, 3546.0, 59.5483
7.817610773, 96.390, 3429.0, 58.5577
7.843871338, 96.390, 3430.0, 58.5662
7.870131904, 96.390, 3499.0, 59.1523
7.896392469, 96.390, 3450.0, 58.7367
7.922653034, 96.390, 3439.0, 58.6430
7.948913600, 96.390, 3446.0, 58.7026
7.975174165, 96.390, 3362.0, 57.9828
8.001434730, 96.390, 3453.0, 58.7622
8.027695296, 96.390, 3526.0, 59.3801
8.053955861, 96.390, 3405.0, 58.3524
8.080216426, 96.390, 3468.0, 58.8897
8.106476992, 96.390, 3426.0, 58.5320
8.132737557, 96.390, 3446.0, 58.7026
8.158998123, 96.390, 3493.0, 59.1016
8.185258688, 96.390, 3409.0, 58.3866
8.211519253, 96.390, 3442.0, 58.6686
8.237779819, 96.390, 3376.0, 58.1034
8.264040384, 96.390, 3305.0, 57.4891
8.290300949, 96.390, 3404.0, 58.3438
8.316561515, 96.390, 3303.0, 57.4717
8.342822080, 96.390, 3307.0, 57.5065
8.369082645, 96.390, 3266.0, 57.1489
8.395343211, 96.390, 3289.0, 57.3498
8.421603776, 96.390, 3242.0, 56.9386
8.447864341, 96.390, 3321.0, 57.6281
8.474124907, 96.390, 3236.0, 56.8859
8.500385472, 96.390, 3322.0, 57.6368
8.526646038, 96.390, 3237.0, 56.8946
8.552906603, 96.390, 3289.0, 57.3498
8.579167168, 96.390, 3292.0, 57.3760
8.605427734, 96.390, 3273.0, 57.2101
8.631688299, 96.390, 3357.0, 57.9396
8.657948864, 96.390, 3158.0, 56.1961
8.684209430, 96.390, 3192.0, 56.4978
8.710469995, 96.390, 3264.0, 57.1314
8.736730560, 96.390, 3174.0, 56.3383
8.762991126, 96.390, 3250.0, 57.0088
8.789251691, 96.390, 3253.0, 57.0351
8.815512256, 96.390, 3190.0, 56.4801
8.841772822, 96.390, 3218.0, 56.7274
8.868033387, 96.390, 3259.0, 57.0877
8.894293952, 96.390, 3163.0, 56.2406
8.920554518, 96.390, 3140.0, 56.0357
8.946815083, 96.390, 3077.0, 55.4707
8.973075649, 96.390, 3187.0, 56.4535
8.999336214, 96.390, 3228.0, 56.8155
9.025596779, 96.390, 3164.0, 56.2494
9.051857345, 96.390, 3132.0, 55.9643
9.078117910, 96.390, 3191.0, 56.4889
9.104378475, 96.390, 3257.0, 57.0701
9.130639041, 96.390, 3175.0, 56.3471
9.156899606, 96.390, 3043.0, 55.1634
9.183160171, 96.390, 3135.0, 55.9911
9.209420737, 96.390, 3210.0, 56.6569
9.235681302, 96.390, 3071.0, 55.4166
9.261941867, 96.390, 3140.0, 56.0357
9.288202433, 96.390, 3087.0, 55.5608
9.314462998, 96.390, 3089.0, 55.5788
9.340723564, 96.390, 3132.0, 55.9643
9.366984129, 96.390, 3113.0, 55.7943
9.393244694, 96.390, 3103.0, 55.7046
9.419505260, 96.390, 3196.0, 56.5332
9.445765825, 96.390, 2977.0, 54.5619
9.472026390, 96.390, 3084.0, 55.5338
9.498286956, 96.390, 3159.0, 56.2050
9.524547521, 96.390, 3048.0, 55.2087
9.550808086, 96.390, 3088.0, 55.5698
9.577068652, 96.390, 3120.0, 55.8570
9.603329217, 96.390, 3060.0, 55.3173
9.629589782, 96.390, 3105.0, 55.7225
9.655850348, 96.390, 3012.0, 54.8817
9.682110913, 96.390, 3146.0, 56.0892
9.708371478, 96.390, 3188.0, 56.4624
9.734632044, 96.390, 3089.0, 55.5788
9.760892609, 96.390, 3015.0, 54.9090
9.787153175, 96.390, 3012.0, 54.8817
9.813413740, 96.390, 3025.0, 55.0000
9.839674305, 96.390, 3005.0, 54.8179
9.865934871, 96.390, 3040.0, 55.1362
9.892195436, 96.390, 3042.0, 55.1543
9.918456001, 96.390, 3115.0, 55.8122
9.944716567, 96.390, 3015.0, 54.9090
9.970977132, 96.390, 3016.0, 54.9181
9.997237697, 96.390, 3057.0, 55.2901
10.023498263, 96.390, 3039.0, 55.1271
10.049758828, 96.390, 2921.0, 54.0463
10.076019393, 96.390, 2833.0, 53.2259
10.102279959, 96.390, 2966.0, 54.4610
10.128540524, 96.390, 2867.0, 53.5444
10.154801090, 96.390, 2924.0, 54.0740
10.181061655, 96.390, 2879.0, 53.6563
10.207322220, 96.390, 2883.0, 53.6936
10.233582786, 96.390, 2903.0, 53.8795
10.259843351, 96.390, 3004.0, 54.8088
10.286103916, 96.390, 2934.0, 54.1664
10.312364482, 96.390, 2897.0, 53.8238
10.338625047, 96.390, 2874.0, 53.6097
10.364885612, 96.390, 2870.0, 53.5724
10.391146178, 96.390, 2948.0, 54.2955
10.417406743, 96.390, 2926.0, 54.0925
10.443667308, 96.390, 2926.0, 54.0925
10.469927874, 96.390, 2901.0, 53.8609
10.496188439, 96.390, 2992.0, 54.6992
10.522449004, 96.390, 2906.0, 53.9073
10.548709570, 96.390, 2853.0, 53.4135
10.574970135, 96.390, 2802.0, 52.9339
10.601230701, 96.390, 2955.0, 54.3599
10.627491266, 96.390, 2851.0, 53.3948
10.653751831, 96.390, 2798.0, 52.8961
10.680012397, 96.390, 2933.0, 54.1572
10.706272962, 96.390, 2730.0, 52.2494
10.732533527, 96.390, 2799.0, 52.9056
10.758794093, 96.390, 2776.0, 52.6878
10.785054658, 96.390, 2901.0, 53.8609
10.811315223, 96.390, 2806.0, 52.9717
10.837575789, 96.390, 2869.0, 53.5630
10.863836354, 96.390, 2794.0, 52.8583
10.890096919, 96.390, 2939.0, 54.2125
10.916357485, 96.390, 2909.0, 53.9351
10.942618050, 96.390, 2721.0, 52.1632
10.968878616, 96.390, 2803.0, 52.9434
10.995139181, 96.390, 2869.0, 53.5630
11.021399746, 96.390, 2671.0, 51.6817
11.047660312, 96.390, 2744.0, 52.3832
11.073920877, 96.390, 2901.0, 53.8609
11.100181442, 96.390, 2782.0, 52.7447
11.126442008, 96.390, 2785.0, 52.7731
11.152702573, 96.390, 2672.0, 51.6914
11.178963138, 96.390, 2753.0, 52.4690
11.205223704, 96.390, 2710.0, 52.0577
11.231484269, 96.390, 2797.0, 52.8867
11.257744834, 96.390, 2779.0, 52.7162
11.284005400, 96.390, 2730.0, 52.2494
11.310265965, 96.390, 2878.0, 53.6470
11.336526530, 96.390, 2715.0, 52.1057
11.362787096, 96.390, 2679.0, 51.7591
11.389047661, 96.390, 2747.0, 52.4118
11.415308227, 96.390, 2716.0, 52.1153
11.441568792, 96.390, 2667.0, 51.6430
11.467829357, 96.390, 2717.0, 52.1249
11.494089923, 96.390, 2662.0, 51.5946
11.520350488, 96.390, 2747.0, 52.4118
11.546611053, 96.390, 2718.0, 52.1344
11.572871619, 96.390, 2664.0, 51.6140
11.599132184, 96.390, 2676.0, 51.7301
11.625392749, 96.390, 2551.0, 50.5074
11.651653315, 96.390, 2667.0, 51.6430
11.677913880, 96.390, 2661.0, 51.5849
11.704174445, 96.390, 2745.0, 52.3927
11.730435011, 96.390, 2651.0, 51.4879
11.756695576, 96.390, 2666.0, 51.6333
11.782956141, 96.390, 2691.0, 51.8748
11.809216707, 96.390, 2686.0, 51.8266
11.835477272, 96.390, 2660.0, 51.5752
11.861737838, 96.390, 2757.0, 52.5071
11.887998403, 96.390, 2606.0, 51.0490
11.914258968, 96.390, 2608.0, 51.0686
11.940519534, 96.390, 2588.0, 50.8724
11.966780099, 96.390, 2644.0, 51.4198
11.993040664, 96.390, 2695.0, 51.9134
12.019301230, 96.390, 2685.0, 51.8170
12.045561795, 96.390, 2650.0, 51.4782
12.071822360, 96.390, 2676.0, 51.7301
12.098082926, 96.390, 2533.0, 50.3289
12.124343491, 96.390, 2661.0, 51.5849
12.150604056, 96.390, 2647.0, 51.4490
12.176864622, 96.390, 2586.0, 50.8527
12.203125187, 96.390, 2637.0, 51.3517
12.229385753, 96.390, 2588.0, 50.8724
12.255646318, 96.390, 2624.0, 51.2250
12.281906883, 96.390, 2574.0, 50.7346
12.308167449, 96.390, 2523.0, 50.2295
12.334428014, 96.390, 2530.0, 50.2991
12.360688579, 96.390, 2616.0, 51.1468
12.386949145, 96.390, 2591.0, 50.9019
12.413209710, 96.390, 2461.0, 49.6085
12.439470275, 96.390, 2593.0, 50.9215
12.465730841, 96.390, 2554.0, 50.5371
12.491991406, 96.390, 2507.0, 50.0700
12.518251971, 96.390, 2549.0, 50.4876
12.544512537, 96.390, 2598.0, 50.9706
12.570773102, 96.390, 2553.0, 50.5272
12.597033667, 96.390, 2573.0, 50.7247
12.623294233, 96.390, 2563.0, 50.6261
12.649554798, 96.390, 2540.0, 50.3984
12.675815364, 96.390, 2570.0, 50.6952
12.702075929, 96.390, 2547.0, 50.4678
12.728336494, 96.390, 2529.0, 50.2892
12.754597060, 96.390, 2560.0, 50.5964
12.780857625, 96.390, 2461.0, 49.6085
12.807118190, 96.390, 2453.0, 49.5278
12.833378756, 96.390, 2493.0, 49.9300
12.859639321, 96.390, 2395.0, 48.9387
12.885899886, 96.390, 2386.0, 48.8467
12.912160452, 96.390, 2424.0, 49.2341
12.938421017, 96.390, 2396.0, 48.9490
12.964681582, 96.390, 2416.0, 49.1528
12.990942148, 96.390, 2489.0, 49.8899
13.017202713, 96.390, 2545.0, 50.4480
13.043463279, 96.390, 2452.0, 49.5177
13.069723844, 96.390, 2518.0, 50.1797
13.095984409, 96.390, 2517.0, 50.1697
13.122244975, 96.390, 2508.0, 50.0799
13.148505540, 96.390, 2520.0, 50.1996
13.174766105, 96.390, 2584.0, 50.8331
13.201026671, 96.390, 2483.0, 49.8297
13.227287236, 96.390, 2562.0, 50.6162
13.253547801, 96.390, 2505.0, 50.0500
13.279808367, 96.390, 2489.0, 49.8899
13.306068932, 96.390, 2354.0, 48.5180
13.332329497, 96.390, 2458.0, 49.5782
13.358590063, 96.390, 2412.0, 49.1121
13.384850628, 96.390, 2424.0, 49.2341
13.411111193, 96.390, 2466.0, 49.6588
13.437371759, 96.390, 2484.0, 49.8397
13.463632324, 96.390, 2390.0, 48.8876
13.489892890, 96.390, 2453.0, 49.5278
13.516153455, 96.390, 2460.0, 49.5984
13.542414020, 96.390, 2398.0, 48.9694
13.568674586, 96.390, 2421.0, 49.2037
13.594935151, 96.390, 2391.0, 48.8979
13.621195716, 96.390, 2378.0, 48.7647
13.647456282, 96.390, 2420.0, 49.1935
13.673716847, 96.390, 2430.0, 49.2950
13.699977412, 96.390, 2360.0, 48.5798
13.726237978, 96.390, 2493.0, 49.9300
13.752498543, 96.390, 2375.0, 48.7340
13.778759108, 96.390, 2281.0, 47.7598
13.805019674, 96.390, 2402.0, 49.0102
13.831280239, 96.390, 2384.0, 48.8262
13.857540805, 96.390, 2461.0, 49.6085
13.883801370, 96.390, 2393.0, 48.9183
13.910061935, 96.390, 2423.0, 49.2240
13.936322501, 96.390, 2522.0, 50.2195
13.962583066, 96.390, 2436.0, 49.3559
13.988843631, 96.390, 2416.0, 49.1528
14.015104197, 96.390, 2357.0, 48.5489
14.041364762, 96.390, 2416.0, 49.1528
14.067625327, 96.390, 2528.0, 50.2792
14.093885893, 96.390, 2443.0, 49.4267
14.120146458, 96.390, 2376.0, 48.7442
14.146407023, 96.390, 2391.0, 48.8979
14.172667589, 96.390, 2391.0, 48.8979
14.198928154, 96.390, 2337.0, 48.3425
14.225188719, 96.390, 2278.0, 47.7284
14.251449285, 96.390, 2286.0, 47.8121
14.277709850, 96.390, 2433.0, 49.3254
14.303970416, 96.390, 2362.0, 48.6004
14.330230981, 96.390, 2496.0, 49.9600
14.356491546, 96.390, 2452.0, 49.5177
14.382752112, 96.390, 2378.0, 48.7647
14.409012677, 96.390, 2493.0, 49.9300
14.435273242, 96.390, 2375.0, 48.7340
14.461533808, 96.390, 2288.0, 47.8330
14.487794373, 96.390, 2389.0, 48.8774
14.514054938, 96.390, 2320.0, 48.1664
14.540315504, 96.390, 2369.0, 48.6724
14.566576069, 96.390, 2353.0, 48.5077
14.592836634, 96.390, 2319.0, 48.1560
14.619097200, 96.390, 2410.0, 49.0918
14.645357765, 96.390, 2354.0, 48.5180
14.671618331, 96.390, 2421.0, 49.2037
14.697878896, 96.390, 2338.0, 48.3529
14.724139461, 96.390, 2398.0, 48.9694
14.750400027, 96.390, 2389.0, 48.8774
14.776660592, 96.390, 2417.0, 49.1630
14.802921157, 96.390, 2296.0, 47.9166
14.829181723, 96.390, 2322.0, 48.1871
14.855442288, 96.390, 2290.0, 47.8539
14.881702853, 96.390, 2293.0, 47.8853
14.907963419, 96.390, 2347.0, 48.4458
14.934223984, 96.390, 2421.0, 49.2037
14.960484549, 96.390, 2403.0, 49.0204
14.986745115, 96.390, 2358.0, 48.5592
15.013005680, 96.390, 2391.0, 48.8979
15.039266245, 96.390, 2480.0, 49.7996
15.065526811, 96.390, 2238.0, 47.3075
15.091787376, 96.390, 2346.0, 48.4355
15.118047942, 96.390, 2355.0, 48.5283
15.144308507, 96.390, 2394.0, 48.9285
15.170569072, 96.390, 2423.0, 49.2240
15.196829638, 96.390, 2333.0, 48.3011
15.223090203, 96.390, 2357.0, 48.5489
15.249350768, 96.390, 2426.0, 49.2544
15.275611334, 96.390, 2388.0, 48.8672
15.301871899, 96.390, 2468.0, 49.6790
15.328132464, 96.390, 2383.0, 48.8160
15.354393030, 96.390, 2440.0, 49.3964
15.380653595, 96.390, 2483.0, 49.8297
15.406914160, 96.390, 2273.0, 47.6760
15.433174726, 96.390, 2406.0, 49.0510
15.459435291, 96.390, 2394.0, 48.9285
15.485695857, 96.390, 2336.0, 48.3322
15.511956422, 96.390, 2418.0, 49.1732
15.538216987, 96.390, 2298.0, 47.9375
15.564477553, 96.390, 2445.0, 49.4469
15.590738118, 96.390, 2367.0, 48.6518
15.616998683, 96.390, 2421.0, 49.2037
15.643259249, 96.390, 2376.0, 48.7442
15.669519814, 96.390, 2385.0, 48.8365
15.695780379, 96.390, 2452.0, 49.5177
15.722040945, 96.390, 2463.0, 49.6286
15.748301510, 96.390, 2456.0, 49.5580
15.774562075, 96.390, 2373.0, 48.7134
15.800822641, 96.390, 2492.0, 49.9199
15.827083206, 96.390, 2419.0, 49.1833
15.853343771, 96.390, 2358.0, 48.5592
15.879604337, 96.390, 2362.0, 48.6004
15.905864902, 96.390, 2434.0, 49.3356
15.932125468, 96.390, 2372.0, 48.7032
15.958386033, 96.390, 2472.0, 49.7192
15.984646598, 96.390, 2403.0, 49.0204
16.010907164, 96.390, 2428.0, 49.2747
16.037167729, 96.390, 2376.0, 48.7442
16.063428294, 96.390, 2409.0, 49.0816
16.089688860, 96.390, 2482.0, 49.8197
16.115949425, 96.390, 2413.0, 49.1223
16.142209990, 96.390, 2419.0, 49.1833
16.168470556, 96.390, 2454.0, 49.5379
16.194731121, 96.390, 2408.0, 49.0714
16.220991686, 96.390, 2441.0, 49.4065
16.247252252, 96.390, 2452.0, 49.5177
16.273512817, 96.390, 2440.0, 49.3964
16.299773382, 96.390, 2454.0, 49.5379
16.326033948, 96.390, 2486.0, 49.8598
16.352294513, 96.390, 2452.0, 49.5177
16.378555079, 96.390, 2403.0, 49.0204
16.404815644, 96.390, 2545.0, 50.4480
16.431076209, 96.390, 2439.0, 49.3862
16.457336775, 96.390, 2436.0, 49.3559
16.483597340, 96.390, 2375.0, 48.7340
16.509857905, 96.390, 2468.0, 49.6790
16.536118471, 96.390, 2532.0, 50.3190
16.562379036, 96.390, 2460.0, 49.5984
16.588639601, 96.390, 2403.0, 49.0204
16.614900167, 96.390, 2410.0, 49.0918
16.641160732, 96.390, 2461.0, 49.6085
16.667421297, 96.390, 2540.0, 50.3984
16.693681863, 96.390, 2439.0, 49.3862
16.719942428, 96.390, 2491.0, 49.9099
16.746202994, 96.390, 2481.0, 49.8096
16.772463559, 96.390, 2431.0, 49.3052
16.798724124, 96.390, 2500.0, 50.0000
16.824984690, 96.390, 2534.0, 50.3389
16.851245255, 96.390, 2517.0, 50.1697
16.877505820, 96.390, 2496.0, 49.9600
16.903766386, 96.390, 2547.0, 50.4678
16.930026951, 96.390, 2502.0, 50.0200
16.956287516, 96.390, 2549.0, 50.4876
16.982548082, 96.390, 2573.0, 50.7247
17.008808647, 96.390, 2531.0, 50.3090
17.035069212, 96.390, 2509.0, 50.0899
17.061329778, 96.390, 2630.0, 51.2835
17.087590343, 96.390, 2575.0, 50.7445
17.113850908, 96.390, 2516.0, 50.1597
17.140111474, 96.390, 2566.0, 50.6557
17.166372039, 96.390, 2738.0, 52.3259
17.192632605, 96.390, 2628.0, 51.2640
17.218893170, 96.390, 2572.0, 50.7149
17.245153735, 96.390, 2579.0, 50.7839
17.271414301, 96.390, 2623.0, 51.2152
17.297674866, 96.390, 2633.0, 51.3128
17.323935431, 96.390, 2561.0, 50.6063
17.350195997, 96.390, 2531.0, 50.3090
17.376456562, 96.390, 2611.0, 51.0979
17.402717127, 96.390, 2615.0, 51.1371
17.428977693, 96.390, 2619.0, 51.1762
17.455238258, 96.390, 2705.0, 52.0096
17.481498823, 96.390, 2686.0, 51.8266
17.507759389, 96.390, 2731.0, 52.2590
17.534019954, 96.390, 2613.0, 51.1175
17.560280520, 96.390, 2644.0, 51.4198
17.586541085, 96.390, 2663.0, 51.6043
17.612801650, 96.390, 2664.0, 51.6140
17.639062216, 96.390, 2708.0, 52.0384
17.665322781, 96.390, 2763.0, 52.5642
17.691583346, 96.390, 2735.0, 52.2972
17.717843912, 96.390, 2735.0, 52.2972
17.744104477, 96.390, 2720.0, 52.1536
17.770365042, 96.390, 2759.0, 52.5262
17.796625608, 96.390, 2744.0, 52.3832
17.822886173, 96.390, 2796.0, 52.8772
17.849146738, 96.390, 2822.0, 53.1225
17.875407304, 96.390, 2675.0, 51.7204
17.901667869, 96.390, 2720.0, 52.1536
17.927928434, 96.390, 2788.0, 52.8015
17.954189000, 96.390, 2823.0, 53.1319
17.980449565, 96.390, 2781.0, 52.7352
18.006710131, 96.390, 2844.0, 53.3292
18.032970696, 96.390, 2789.0, 52.8110
18.059231261, 96.390, 2708.0, 52.0384
18.085491827, 96.390, 2876.0, 53.6284
18.111752392, 96.390, 2827.0, 53.1695
18.138012957, 96.390, 2812.0, 53.0283
18.164273523, 96.390, 2894.0, 53.7959
18.190534088, 96.390, 2857.0, 53.4509
18.216794653, 96.390, 2804.0, 52.9528
18.243055219, 96.390, 2911.0, 53.9537
18.269315784, 96.390, 2906.0, 53.9073
18.295576349, 96.390, 2966.0, 54.4610
18.321836915, 96.390, 2855.0, 53.4322
18.348097480, 96.390, 2927.0, 54.1018
18.374358046, 96.390, 2923.0, 54.0648
18.400618611, 96.390, 3043.0, 55.1634
18.426879176, 96.390, 2951.0, 54.3231
18.453139742, 96.390, 2894.0, 53.7959
18.479400307, 96.390, 2937.0, 54.1941
18.505660872, 96.390, 3023.0, 54.9818
18.531921438, 96.390, 2961.0, 54.4151
18.558182003, 96.390, 3033.0, 55.0727
18.584442568, 96.390, 3002.0, 54.7905
18.610703134, 96.390, 3027.0, 55.0182
18.636963699, 96.390, 3002.0, 54.7905
18.663224264, 96.390, 2993.0, 54.7083
18.689484830, 96.390, 3158.0, 56.1961
18.715745395, 96.390, 3194.0, 56.5155
18.742005960, 96.390, 3124.0, 55.8928
18.768266526, 96.390, 3073.0, 55.4346
18.794527091, 96.390, 3120.0, 55.8570
18.820787657, 96.390, 2999.0, 54.7631
18.847048222, 96.390, 3167.0, 56.2761
18.873308787, 96.390, 3054.0, 55.2630
18.899569353, 96.390, 3078.0, 55.4797
18.925829918, 96.390, 3168.0, 56.2850
18.952090483, 96.390, 3182.0, 56.4092
18.978351049, 96.390, 3131.0, 55.9553
19.004611614, 96.390, 3055.0, 55.2721
19.030872179, 96.390, 3191.0, 56.4889
19.057132745, 96.390, 3186.0, 56.4447
19.083393310, 96.390, 3167.0, 56.2761
19.109653875, 96.390, 3269.0, 57.1752
19.135914441, 96.390, 3210.0, 56.6569
19.162175006, 96.390, 3314.0, 57.5674
19.188435572, 96.390, 3195.0, 56.5243
19.214696137, 96.390, 3174.0, 56.3383
19.240956702, 96.390, 3222.0, 56.7627
19.267217268, 96.390, 3391.0, 58.2323
19.293477833, 96.390, 3285.0, 57.3149
19.319738398, 96.390, 3380.0, 58.1378
19.345998964, 96.390, 3387.0, 58.1979
19.372259529, 96.390, 3248.0, 56.9912
19.398520094, 96.390, 3363.0, 57.9914
19.424780660, 96.390, 3391.0, 58.2323
19.451041225, 96.390, 3433.0, 58.5918
19.477301790, 96.390, 3445.0, 58.6941
19.503562356, 96.390, 3420.0, 58.4808
19.529822921, 96.390, 3432.0, 58.5833
19.556083486, 96.390, 3340.0, 57.7927
19.582344052, 96.390, 3414.0, 58.4294
19.608604617, 96.390, 3402.0, 58.3267
19.634865183, 96.390, 3341.0, 57.8014
19.661125748, 96.390, 3478.0, 58.9746
19.687386313, 96.390, 3522.0, 59.3464
19.713646879, 96.390, 3536.0, 59.4643
19.739907444, 96.390, 3507.0, 59.2199
19.766168009, 96.390, 3536.0, 59.4643
19.792428575, 96.390, 3516.0, 59.2959
19.818689140, 96.390, 3496.0, 59.1270
19.844949705, 96.390, 3574.0, 59.7829
19.871210271, 96.390, 3592.0, 59.9333
19.897470836, 96.390, 3561.0, 59.6741
19.923731401, 96.390, 3531.0, 59.4222
19.949991967, 96.390, 3550.0, 59.5819
19.976252532, 96.390, 3657.0, 60.4731
20.002513097, 96.390, 3591.0, 59.9250
20.028773663, 96.390, 3711.0, 60.9180
20.055034228, 96.390, 3610.0, 60.0833
20.081294794, 96.390, 3728.0, 61.0574
20.107555359, 96.390, 3666.0, 60.5475
20.133815924, 96.390, 3721.0, 61.0000
20.160076490, 96.390, 3796.0, 61.6117
20.186337055, 96.390, 3680.0, 60.6630
20.212597620, 96.390, 3716.0, 60.9590
20.238858186, 96.390, 3662.0, 60.5145
20.265118751, 96.390, 3737.0, 61.1310
20.291379316, 96.390, 3781.0, 61.4898
20.317639882, 96.390, 3813.0, 61.7495
20.343900447, 96.390, 3852.0, 62.0645
20.370161012, 96.390, 3805.0, 61.6847
20.396421578, 96.390, 3838.0, 61.9516
20.422682143, 96.390, 3695.0, 60.7865
20.448942709, 96.390, 3952.0, 62.8649
20.475203274, 96.390, 3902.0, 62.4660
20.501463839, 96.390, 3782.0, 61.4980
20.527724405, 96.390, 3882.0, 62.3057
20.553984970, 96.390, 3863.0, 62.1530
20.580245535, 96.390, 3778.0, 61.4654
20.606506101, 96.390, 3964.0, 62.9603
20.632766666, 96.390, 3894.0, 62.4019
20.659027231, 96.390, 3892.0, 62.3859
20.685287797, 96.390, 3992.0, 63.1823
20.711548362, 96.390, 3954.0, 62.8808
20.737808927, 96.390, 4021.0, 63.4114
20.764069493, 96.390, 4089.0, 63.9453
20.790330058, 96.390, 4021.0, 63.4114
20.816590623, 96.390, 3860.0, 62.1289
20.842851189, 96.390, 3981.0, 63.0952
20.869111754, 96.390, 4081.0, 63.8827
20.895372320, 96.390, 4088.0, 63.9375
20.921632885, 96.390, 4087.0, 63.9296
20.947893450, 96.390, 4100.0, 64.0312
20.974154016, 96.390, 4138.0, 64.3273
21.000414581, 96.390, 4031.0, 63.4902
21.026675146, 96.390, 4015.0, 63.3640
21.052935712, 96.390, 4172.0, 64.5910
21.079196277, 96.390, 4144.0, 64.3739
21.105456842, 96.390, 4262.0, 65.2840
21.131717408, 96.390, 4140.0, 64.3428
21.157977973, 96.390, 4113.0, 64.1327
21.184238538, 96.390, 4134.0, 64.2962
21.210499104, 96.390, 4127.0, 64.2417
21.236759669, 96.390, 4178.0, 64.6375
21.263020235, 96.390, 4111.0, 64.1171
21.289280800, 96.390, 4204.0, 64.8383
21.315541365, 96.390, 4195.0, 64.7688
21.341801931, 96.390, 4165.0, 64.5368
21.368062496, 96.390, 4146.0, 64.3894
21.394323061, 96.390, 4192.0, 64.7457
21.420583627, 96.390, 4236.0, 65.0846
21.446844192, 96.390, 4216.0, 64.9307
21.473104757, 96.390, 4330.0, 65.8027
21.499365323, 96.390, 4103.0, 64.0547
21.525625888, 96.390, 4223.0, 64.9846
21.551886453, 96.390, 4248.0, 65.1767
21.578147019, 96.390, 4236.0, 65.0846
21.604407584, 96.390, 4335.0, 65.8407
21.630668149, 96.390, 4300.0, 65.5744
21.656928715, 96.390, 4243.0, 65.1383
21.683189280, 96.390, 4237.0, 65.0922
21.709449846, 96.390, 4217.0, 64.9384
21.735710411, 96.390, 4308.0, 65.6354
21.761970976, 96.390, 4249.0, 65.1844
21.788231542, 96.390, 4165.0, 64.5368
21.814492107, 96.390, 4321.0, 65.7343
21.840752672, 96.390, 4235.0, 65.0769
21.867013238, 96.390, 4296.0, 65.5439
21.893273803, 96.390, 4213.0, 64.9076
21.919534368, 96.390, 4292.0, 65.5134
21.945794934, 96.390, 4385.0, 66.2193
21.972055499, 96.390, 4269.0, 65.3376
21.998316064, 96.390, 4229.0, 65.0308
22.024576630, 96.390, 4392.0, 66.2722
22.050837195, 96.390, 4322.0, 65.7419
22.077097761, 96.390, 4144.0, 64.3739
22.103358326, 96.390, 4235.0, 65.0769
22.129618891, 96.390, 4311.0, 65.6582
22.155879457, 96.390, 4236.0, 65.0846
22.182140022, 96.390, 4301.0, 65.5820
22.208400587, 96.390, 4283.0, 65.4446
22.234661153, 96.390, 4220.0, 64.9615
22.260921718, 96.390, 4234.0, 65.0692
22.287182283, 96.390, 4242.0, 65.1306
22.313442849, 96.390, 4304.0, 65.6049
22.339703414, 96.390, 4371.0, 66.1135
22.365963979, 96.390, 4313.0, 65.6734
22.392224545, 96.390, 4362.0, 66.0454
22.418485110, 96.390, 4297.0, 65.5515
22.444745675, 96.390, 4212.0, 64.8999
22.471006241, 96.390, 4176.0, 64.6220
22.497266806, 96.390, 4131.0, 64.2729
22.523527372, 96.390, 4262.0, 65.2840
22.549787937, 96.390, 4269.0, 65.3376
22.576048502, 96.390, 4183.0, 64.6761
22.602309068, 96.390, 4275.0, 65.3835
22.628569633, 96.390, 4265.0, 65.3070
22.654830198, 96.390, 4267.0, 65.3223
22.681090764, 96.390, 4144.0, 64.3739
22.707351329, 96.390, 4274.0, 65.3758
22.733611894, 96.390, 4156.0, 64.4670
22.759872460, 96.390, 4251.0, 65.1997
22.786133025, 96.390, 4257.0, 65.2457
22.812393590, 96.390, 4151.0, 64.4283
22.838654156, 96.390, 4444.0, 66.6633
22.864914721, 96.390, 4148.0, 64.4050
22.891175287, 96.390, 4125.0, 64.2262
22.917435852, 96.390, 4182.0, 64.6684
22.943696417, 96.390, 4198.0, 64.7920
22.969956983, 96.390, 4088.0, 63.9375
22.996217548, 96.390, 4059.0, 63.7103
23.022478113, 96.390, 4215.0, 64.9230
23.048738679, 96.390, 4071.0, 63.8044
23.074999244, 96.390, 4222.0, 64.9769
23.101259809, 96.390, 4213.0, 64.9076
23.127520375, 96.390, 4006.0, 63.2930
23.153780940, 96.390, 4173.0, 64.5988
23.180041505, 96.390, 4062.0, 63.7338
23.206302071, 96.390, 3951.0, 62.8570
23.232562636, 96.390, 4186.0, 64.6993
23.258823201, 96.390, 4035.0, 63.5216
23.285083767, 96.390, 4143.0, 64.3661
23.311344332, 96.390, 4143.0, 64.3661
23.337604898, 96.390, 4052.0, 63.6553
23.363865463, 96.390, 4059.0, 63.7103
23.390126028, 96.390, 4081.0, 63.8827
23.416386594, 96.390, 4055.0, 63.6789
23.442647159, 96.390, 3945.0, 62.8092
23.468907724, 96.390, 3944.0, 62.8013
23.495168290, 96.390, 4057.0, 63.6946
23.521428855, 96.390, 4037.0, 63.5374
23.547689420, 96.390, 4036.0, 63.5295
23.573949986, 96.390, 3995.0, 63.2060
23.600210551, 96.390, 4041.0, 63.5689
23.626471116, 96.390, 3944.0, 62.8013
23.652731682, 96.390, 3887.0, 62.3458
23.678992247, 96.390, 4029.0, 63.4744
23.705252813, 96.390, 3993.0, 63.1902
23.731513378, 96.390, 3898.0, 62.4340
23.757773943, 96.390, 4083.0, 63.8984
23.784034509, 96.390, 3847.0, 62.0242
23.810295074, 96.390, 3882.0, 62.3057
23.836555639, 96.390, 3830.0, 61.8870
23.862816205, 96.390, 3899.0, 62.4420
23.889076770, 96.390, 3838.0, 61.9516
23.915337335, 96.390, 3739.0, 61.1474
23.941597901, 96.390, 3904.0, 62.4820
23.967858466, 96.390, 3906.0, 62.4980
23.994119031, 96.390, 3885.0, 62.3298
24.020379597, 96.390, 3830.0, 61.8870
24.046640162, 96.390, 3694.0, 60.7783
24.072900727, 96.390, 3735.0, 61.1146
24.099161293, 96.390, 3853.0, 62.0725
24.125421858, 96.390, 3862.0, 62.1450
24.151682424, 96.390, 3756.0, 61.2862
24.177942989, 96.390, 3848.0, 62.0322
24.204203554, 96.390, 3705.0, 60.8687
24.230464120, 96.390, 3753.0, 61.2617
24.256724685, 96.390, 3608.0, 60.0666
24.282985250, 96.390, 3841.0, 61.9758
24.309245816, 96.390, 3731.0, 61.0819
24.335506381, 96.390, 3643.0, 60.3573
24.361766946, 96.390, 3653.0, 60.4401
24.388027512, 96.390, 3679.0, 60.6548
24.414288077, 96.390, 3586.0, 59.8832
24.440548642, 96.390, 3617.0, 60.1415
24.466809208, 96.390, 3671.0, 60.5888
24.493069773, 96.390, 3634.0, 60.2827
24.519330338, 96.390, 3627.0, 60.2246
24.545590904, 96.390, 3645.0, 60.3738
24.571851469, 96.390, 3545.0, 59.5399
24.598112035, 96.390, 3566.0, 59.7160
24.624372600, 96.390, 3545.0, 59.5399
24.650633165, 96.390, 3644.0, 60.3656
24.676893731, 96.390, 3637.0, 60.3075
24.703154296, 96.390, 3636.0, 60.2993
24.729414861, 96.390, 3404.0, 58.3438
24.755675427, 96.390, 3553.0, 59.6070
24.781935992, 96.390, 3576.0, 59.7997
24.808196557, 96.390, 3492.0, 59.0931
24.834457123, 96.390, 3593.0, 59.9416
24.860717688, 96.390, 3650.0, 60.4152
24.886978253, 96.390, 3472.0, 58.9237
24.913238819, 96.390, 3481.0, 59.0000
24.939499384, 96.390, 3469.0, 58.8982
24.965759950, 96.390, 3523.0, 59.3549
24.992020515, 96.390, 3492.0, 59.0931
25.018281080, 96.390, 3519.0, 59.3212
25.044541646, 96.390, 3508.0, 59.2284
25.070802211, 96.390, 3406.0, 58.3609
25.097062776, 96.390, 3446.0, 58.7026
25.123323342, 96.390, 3344.0, 57.8273
25.149583907, 96.390, 3413.0, 58.4209
25.175844472, 96.390, 3381.0, 58.1464
25.202105038, 96.390, 3357.0, 57.9396
25.228365603, 96.390, 3378.0, 58.1206
25.254626168, 96.390, 3320.0, 57.6194
25.280886734, 96.390, 3371.0, 58.0603
25.307147299, 96.390, 3284.0, 57.3062
25.333407864, 96.390, 3321.0, 57.6281
25.359668430, 96.390, 3392.0, 58.2409
25.385928995, 96.390, 3262.0, 57.1139
25.412189561, 96.390, 3315.0, 57.5760
25.438450126, 96.390, 3269.0, 57.1752
25.464710691, 96.390, 3336.0, 57.7581
25.490971257, 96.390, 3251.0, 57.0175
25.517231822, 96.390, 3146.0, 56.0892
25.543492387, 96.390, 3202.0, 56.5862
25.569752953, 96.390, 3253.0, 57.0351
25.596013518, 96.390, 3304.0, 57.4804
25.622274083, 96.390, 3184.0, 56.4269
25.648534649, 96.390, 3159.0, 56.2050
25.674795214, 96.390, 3146.0, 56.0892
25.701055779, 96.390, 3217.0, 56.7186
25.727316345, 96.390, 3190.0, 56.4801
25.753576910, 96.390, 3190.0, 56.4801
25.779837476, 96.390, 3199.0, 56.5597
25.806098041, 96.390, 3146.0, 56.0892
25.832358606, 96.390, 3124.0, 55.8928
25.858619172, 96.390, 3171.0, 56.3116
25.884879737, 96.390, 3090.0, 55.5878
25.911140302, 96.390, 3187.0, 56.4535
25.937400868, 96.390, 3137.0, 56.0089
25.963661433, 96.390, 3130.0, 55.9464
25.989921998, 96.390, 3121.0, 55.8659
26.016182564, 96.390, 3115.0, 55.8122
26.042443129, 96.390, 3101.0, 55.6866
26.068703694, 96.390, 3008.0, 54.8452
26.094964260, 96.390, 3060.0, 55.3173
26.121224825, 96.390, 3107.0, 55.7405
26.147485390, 96.390, 2898.0, 53.8331
26.173745956, 96.390, 2970.0, 54.4977
26.200006521, 96.390, 3022.0, 54.9727
26.226267087, 96.390, 3051.0, 55.2359
26.252527652, 96.390, 2985.0, 54.6352
26.278788217, 96.390, 3009.0, 54.8544
26.305048783, 96.390, 2952.0, 54.3323
26.331309348, 96.390, 2962.0, 54.4243
26.357569913, 96.390, 3017.0, 54.9272
26.383830479, 96.390, 2942.0, 54.2402
26.410091044, 96.390, 2880.0, 53.6656
26.436351609, 96.390, 2934.0, 54.1664
26.462612175, 96.390, 2929.0, 54.1202
26.488872740, 96.390, 3051.0, 55.2359
26.515133305, 96.390, 2943.0, 54.2494
26.541393871, 96.390, 2893.0, 53.7866
26.567654436, 96.390, 2948.0, 54.2955
26.593915002, 96.390, 2884.0, 53.7029
26.620175567, 96.390, 3008.0, 54.8452
26.646436132, 96.390, 2887.0, 53.7308
26.672696698, 96.390, 2903.0, 53.8795
26.698957263, 96.390, 2913.0, 53.9722
26.725217828, 96.390, 2878.0, 53.6470
26.751478394, 96.390, 2868.0, 53.5537
26.777738959, 96.390, 2855.0, 53.4322
26.803999524, 96.390, 2903.0, 53.8795
26.830260090, 96.390, 2863.0, 53.5070
26.856520655, 96.390, 2954.0, 54.3507
26.882781220, 96.390, 2843.0, 53.3198
26.909041786, 96.390, 2843.0, 53.3198
26.935302351, 96.390, 2788.0, 52.8015
26.961562916, 96.390, 2744.0, 52.3832
26.987823482, 96.390, 2831.0, 53.2071
27.014084047, 96.390, 2744.0, 52.3832
27.040344613, 96.390, 2816.0, 53.0660
27.066605178, 96.390, 2700.0, 51.9615
27.092865743, 96.390, 2745.0, 52.3927
27.119126309, 96.390, 2813.0, 53.0377
27.145386874, 96.390, 2750.0, 52.4404
27.171647439, 96.390, 2741.0, 52.3546
27.197908005, 96.390, 2675.0, 51.7204
27.224168570, 96.390, 2674.0, 51.7107
27.250429135, 96.390, 2694.0, 51.9038
27.276689701, 96.390, 2722.0, 52.1728
27.302950266, 96.390, 2697.0, 51.9326
27.329210831, 96.390, 2652.0, 51.4976
27.355471397, 96.390, 2815.0, 53.0566
27.381731962, 96.390, 2724.0, 52.1920
27.407992528, 96.390, 2695.0, 51.9134
27.434253093, 96.390, 2552.0, 50.5173
27.460513658, 96.390, 2610.0, 51.0882
27.486774224, 96.390, 2653.0, 51.5073
27.513034789, 96.390, 2612.0, 51.1077
27.539295354, 96.390, 2647.0, 51.4490
27.565555920, 96.390, 2591.0, 50.9019
27.591816485, 96.390, 2712.0, 52.0769
27.618077050, 96.390, 2640.0, 51.3809
27.644337616, 96.390, 2463.0, 49.6286
27.670598181, 96.390, 2608.0, 51.0686
27.696858746, 96.390, 2608.0, 51.0686
27.723119312, 96.390, 2616.0, 51.1468
27.749379877, 96.390, 2527.0, 50.2693
27.775640442, 96.390, 2559.0, 50.5866
27.801901008, 96.390, 2546.0, 50.4579
27.828161573, 96.390, 2548.0, 50.4777
27.854422139, 96.390, 2494.0, 49.9400
27.880682704, 96.390, 2540.0, 50.3984
27.906943269, 96.390, 2560.0, 50.5964
27.933203835, 96.390, 2522.0, 50.2195
27.959464400, 96.390, 2608.0, 51.0686
27.985724965, 96.390, 2569.0, 50.6853
28.011985531, 96.390, 2541.0, 50.4083
28.038246096, 96.390, 2486.0, 49.8598
28.064506661, 96.390, 2532.0, 50.3190
28.090767227, 96.390, 2521.0, 50.2096
28.117027792, 96.390, 2518.0, 50.1797
28.143288357, 96.390, 2392.0, 48.9081
28.169548923, 96.390, 2550.0, 50.4975
28.195809488, 96.390, 2509.0, 50.0899
28.222070054, 96.390, 2455.0, 49.5480
28.248330619, 96.390, 2444.0, 49.4368
28.274591184, 96.390, 2494.0, 49.9400
28.300851750, 96.390, 2483.0, 49.8297
28.327112315, 96.390, 2432.0, 49.3153
28.353372880, 96.390, 2481.0, 49.8096
28.379633446, 96.390, 2430.0, 49.2950
28.405894011, 96.390, 2357.0, 48.5489
28.432154576, 96.390, 2457.0, 49.5681
28.458415142, 96.390, 2431.0, 49.3052
28.484675707, 96.390, 2367.0, 48.6518
28.510936272, 96.390, 2318.0, 48.1456
28.537196838, 96.390, 2372.0, 48.7032
28.563457403, 96.390, 2405.0, 49.0408
28.589717968, 96.390, 2365.0, 48.6313
28.615978534, 96.390, 2409.0, 49.0816
28.642239099, 96.390, 2321.0, 48.1768
28.668499665, 96.390, 2335.0, 48.3218
28.694760230, 96.390, 2396.0, 48.9490
28.721020795, 96.390, 2363.0, 48.6107
28.747281361, 96.390, 2409.0, 49.0816
28.773541926, 96.390, 2378.0, 48.7647
28.799802491, 96.390, 2296.0, 47.9166
28.826063057, 96.390, 2391.0, 48.8979
28.852323622, 96.390, 2343.0, 48.4045
28.878584187, 96.390, 2322.0, 48.1871
28.904844753, 96.390, 2419.0, 49.1833
28.931105318, 96.390, 2352.0, 48.4974
28.957365883, 96.390, 2252.0, 47.4552
28.983626449, 96.390, 2216.0, 47.0744
29.009887014, 96.390, 2259.0, 47.5289
29.036147579, 96.390, 2333.0, 48.3011
29.062408145, 96.390, 2343.0, 48.4045
29.088668710, 96.390, 2295.0, 47.9062
29.114929276, 96.390, 2267.0, 47.6130
29.141189841, 96.390, 2347.0, 48.4458
29.167450406, 96.390, 2206.0, 46.9681
29.193710972, 96.390, 2223.0, 47.1487
29.219971537, 96.390, 2161.0, 46.4866
29.246232102, 96.390, 2283.0, 47.7807
29.272492668, 96.390, 2208.0, 46.9894
29.298753233, 96.390, 2257.0, 47.5079
29.325013798, 96.390, 2196.0, 46.8615
29.351274364, 96.390, 2249.0, 47.4236
29.377534929, 96.390, 2134.0, 46.1952
29.403795494, 96.390, 2184.0, 46.7333
29.430056060, 96.390, 2227.0, 47.1911
29.456316625, 96.390, 2186.0, 46.7547
29.482577191, 96.390, 2129.0, 46.1411
29.508837756, 96.390, 2150.0, 46.3681
29.535098321, 96.390, 2243.0, 47.3603
29.561358887, 96.390, 2075.0, 45.5522
29.587619452, 96.390, 2147.0, 46.3357
29.613880017, 96.390, 2231.0, 47.2335
29.640140583, 96.390, 2170.0, 46.5833
29.666401148, 96.390, 2166.0, 46.5403
29.692661713, 96.390, 2118.0, 46.0217
29.718922279, 96.390, 2104.0, 45.8694
29.745182844, 96.390, 2214.0, 47.0532
29.771443409, 96.390, 2163.0, 46.5081
29.797703975, 96.390, 2162.0, 46.4973
29.823964540, 96.390, 2083.0, 45.6399
29.850225105, 96.390, 2180.0, 46.6905
29.876485671, 96.390, 2037.0, 45.1331
29.902746236, 96.390, 2089.0, 45.7056
29.929006802, 96.390, 2097.0, 45.7930
29.955267367, 96.390, 2097.0, 45.7930
29.981527932, 96.390, 2103.0, 45.8585
30.007788498, 96.390, 2064.0, 45.4313
30.034049063, 96.390, 2044.0, 45.2106
30.060309628, 96.390, 2106.0, 45.8912
30.086570194, 96.390, 2121.0, 46.0543
30.112830759, 96.390, 2104.0, 45.8694
30.139091324, 96.390, 2092.0, 45.7384
30.165351890, 96.390, 2038.0, 45.1442
30.191612455, 96.390, 2038.0, 45.1442
30.217873020, 96.390, 2017.0, 44.9110
30.244133586, 96.390, 1986.0, 44.5646
30.270394151, 96.390, 2084.0, 45.6508
30.296654717, 96.390, 2040.0, 45.1664
30.322915282, 96.390, 2041.0, 45.1774
30.349175847, 96.390, 1988.0, 44.5870
30.375436413, 96.390, 2073.0, 45.5302
30.401696978, 96.390, 2029.0, 45.0444
30.427957543, 96.390, 2076.0, 45.5631
30.454218109, 96.390, 2087.0, 45.6837
30.480478674, 96.390, 2051.0, 45.2880
30.506739239, 96.390, 2094.0, 45.7602
30.532999805, 96.390, 2036.0, 45.1221
30.559260370, 96.390, 2059.0, 45.3762
30.585520935, 96.390, 2051.0, 45.2880
30.611781501, 96.390, 2021.0, 44.9555
30.638042066, 96.390, 1967.0, 44.3509
30.664302631, 96.390, 2024.0, 44.9889
30.690563197, 96.390, 1969.0, 44.3734
30.716823762, 96.390, 1984.0, 44.5421
30.743084328, 96.390, 2005.0, 44.7772
30.769344893, 96.390, 2000.0, 44.7214
30.795605458, 96.390, 1857.0, 43.0929
30.821866024, 96.390, 2003.0, 44.7549
30.848126589, 96.390, 2011.0, 44.8442
30.874387154, 96.390, 2021.0, 44.9555
30.900647720, 96.390, 1888.0, 43.4511
30.926908285, 96.390, 1896.0, 43.5431
30.953168850, 96.390, 1909.0, 43.6921
30.979429416, 96.390, 1955.0, 44.2154
31.005689981, 96.390, 1918.0, 43.7950
31.031950546, 96.390, 1904.0, 43.6348
31.058211112, 96.390, 1945.0, 44.1022
31.084471677, 96.390, 1951.0, 44.1701
31.110732243, 96.390, 2026.0, 45.0111
31.136992808, 96.390, 1919.0, 43.8064
31.163253373, 96.390, 1887.0, 43.4396
31.189513939, 96.390, 1886.0, 43.4281
31.215774504, 96.390, 1887.0, 43.4396
31.242035069, 96.390, 1826.0, 42.7317
31.268295635, 96.390, 1952.0, 44.1814
31.294556200, 96.390, 1922.0, 43.8406
31.320816765, 96.390, 1973.0, 44.4185
31.347077331, 96.390, 1843.0, 42.9302
31.373337896, 96.390, 1883.0, 43.3935
31.399598461, 96.390, 1827.0, 42.7434
31.425859027, 96.390, 1864.0, 43.1741
31.452119592, 96.390, 1814.0, 42.5911
31.478380157, 96.390, 1866.0, 43.1972
31.504640723, 96.390, 1864.0, 43.1741
31.530901288, 96.390, 1841.0, 42.9069
31.557161854, 96.390, 1837.0, 42.8602
31.583422419, 96.390, 1854.0, 43.0581
31.609682984, 96.390, 1873.0, 43.2782
31.635943550, 96.390, 1968.0, 44.3621
31.662204115, 96.390, 1875.0, 43.3013
31.688464680, 96.390, 1822.0, 42.6849
31.714725246, 96.390, 1840.0, 42.8952
31.740985811, 96.390, 1848.0, 42.9884
31.767246376, 96.390, 1806.0, 42.4971
31.793506942, 96.390, 1904.0, 43.6348
31.819767507, 96.390, 1763.0, 41.9881
31.846028072, 96.390, 1724.0, 41.5211
31.872288638, 96.390, 1805.0, 42.4853
31.898549203, 96.390, 1774.0, 42.1189
31.924809769, 96.390, 1837.0, 42.8602
31.951070334, 96.390, 1813.0, 42.5793
31.977330899, 96.390, 1796.0, 42.3792
32.003591465, 96.390, 1857.0, 43.0929
32.029852030, 96.390, 1736.0, 41.6653
32.056112595, 96.390, 1791.0, 42.3202
32.082373161, 96.390, 1737.0, 41.6773
32.108633726, 96.390, 1743.0, 41.7493
32.134894291, 96.390, 1708.0, 41.3280
32.161154857, 96.390, 1767.0, 42.0357
32.187415422, 96.390, 1754.0, 41.8808
32.213675987, 96.390, 1686.0, 41.0609
32.239936553, 96.390, 1780.0, 42.1900
32.266197118, 96.390, 1718.0, 41.4488
32.292457683, 96.390, 1757.0, 41.9166
32.318718249, 96.390, 1705.0, 41.2916
32.344978814, 96.390, 1802.0, 42.4500
32.371239380, 96.390, 1788.0, 42.2847
32.397499945, 96.390, 1742.0, 41.7373
32.423760510, 96.390, 1724.0, 41.5211
32.450021076, 96.390, 1700.0, 41.2311
32.476281641, 96.390, 1721.0, 41.4849
32.502542206, 96.390, 1692.0, 41.1339
32.528802772, 96.390, 1781.0, 42.2019
32.555063337, 96.390, 1763.0, 41.9881
32.581323902, 96.390, 1698.0, 41.2068
32.607584468, 96.390, 1810.0, 42.5441
32.633845033, 96.390, 1672.0, 40.8901
32.660105598, 96.390, 1716.0, 41.4246
32.686366164, 96.390, 1663.0, 40.7799
32.712626729, 96.390, 1696.0, 41.1825
32.738887295, 96.390, 1637.0, 40.4599
32.765147860, 96.390, 1644.0, 40.5463
32.791408425, 96.390, 1632.0, 40.3980
32.817668991, 96.390, 1656.0, 40.6940
32.843929556, 96.390, 1704.0, 41.2795
32.870190121, 96.390, 1658.0, 40.7185
32.896450687, 96.390, 1631.0, 40.3856
32.922711252, 96.390, 1521.0, 39.0000
32.948971817, 96.390, 1691.0, 41.1218
32.975232383, 96.390, 1694.0, 41.1582
33.001492948, 96.390, 1675.0, 40.9268
33.027753513, 96.390, 1678.0, 40.9634
33.054014079, 96.390, 1640.0, 40.4969
33.080274644, 96.390, 1664.0, 40.7922
33.106535209, 96.390, 1632.0, 40.3980
33.132795775, 96.390, 1683.0, 41.0244
33.159056340, 96.390, 1627.0, 40.3361
33.185316906, 96.390, 1630.0, 40.3733
33.211577471, 96.390, 1671.0, 40.8779
33.237838036, 96.390, 1633.0, 40.4104
33.264098602, 96.390, 1592.0, 39.8999
33.290359167, 96.390, 1722.0, 41.4970
33.316619732, 96.390, 1696.0, 41.1825
33.342880298, 96.390, 1678.0, 40.9634
33.369140863, 96.390, 1595.0, 39.9375
33.395401428, 96.390, 1637.0, 40.4599
33.421661994, 96.390, 1586.0, 39.8246
33.447922559, 96.390, 1617.0, 40.2119
33.474183124, 96.390, 1586.0, 39.8246
33.500443690, 96.390, 1622.0, 40.2741
33.526704255, 96.390, 1590.0, 39.8748
33.552964820, 96.390, 1544.0, 39.2938
33.579225386, 96.390, 1606.0, 40.0749
33.605485951, 96.390, 1583.0, 39.7869
33.631746517, 96.390, 1603.0, 40.0375
33.658007082, 96.390, 1576.0, 39.6989
33.684267647, 96.390, 1519.0, 38.9744
33.710528213, 96.390, 1518.0, 38.9615
33.736788778, 96.390, 1542.0, 39.2683
33.763049343, 96.390, 1621.0, 40.2616
33.789309909, 96.390, 1639.0, 40.4846
33.815570474, 96.390, 1596.0, 39.9500
33.841831039, 96.390, 1550.0, 39.3700
33.868091605, 96.390, 1589.0, 39.8623
33.894352170, 96.390, 1543.0, 39.2810
33.920612735, 96.390, 1527.0, 39.0768
33.946873301, 96.390, 1551.0, 39.3827
33.973133866, 96.390, 1549.0, 39.3573
33.999394432, 96.390, 1504.0, 38.7814
34.025654997, 96.390, 1473.0, 38.3797
34.051915562, 96.390, 1517.0, 38.9487
34.078176128, 96.390, 1484.0, 38.5227
34.104436693, 96.390, 1608.0, 40.0999
34.130697258, 96.390, 1547.0, 39.3319
34.156957824, 96.390, 1505.0, 38.7943
34.183218389, 96.390, 1482.0, 38.4968
34.209478954, 96.390, 1527.0, 39.0768
34.235739520, 96.390, 1598.0, 39.9750
34.262000085, 96.390, 1593.0, 39.9124
34.288260650, 96.390, 1504.0, 38.7814
34.314521216, 96.390, 1467.0, 38.3014
34.340781781, 96.390, 1482.0, 38.4968
34.367042346, 96.390, 1517.0, 38.9487
34.393302912, 96.390, 1513.0, 38.8973
34.419563477, 96.390, 1438.0, 37.9210
34.445824043, 96.390, 1546.0, 39.3192
34.472084608, 96.390, 1506.0, 38.8072
34.498345173, 96.390, 1493.0, 38.6394
34.524605739, 96.390, 1489.0, 38.5876
34.550866304, 96.390, 1477.0, 38.4318
34.577126869, 96.390, 1513.0, 38.8973
34.603387435, 96.390, 1502.0, 38.7556
34.629648000, 96.390, 1468.0, 38.3145
34.655908565, 96.390, 1473.0, 38.3797
34.682169131, 96.390, 1478.0, 38.4448
34.708429696, 96.390, 1436.0, 37.8946
34.734690261, 96.390, 1435.0, 37.8814
34.760950827, 96.390, 1431.0, 37.8286
34.787211392, 96.390, 1412.0, 37.5766
34.813471958, 96.390, 1456.0, 38.1576
34.839732523, 96.390, 1414.0, 37.6032
34.865993088, 96.390, 1458.0, 38.1838
34.892253654, 96.390, 1408.0, 37.5233
34.918514219, 96.390, 1531.0, 39.1280
34.944774784, 96.390, 1428.0, 37.7889
34.971035350, 96.390, 1399.0, 37.4032
34.997295915, 96.390, 1384.0, 37.2022
35.023556480, 96.390, 1375.0, 37.0810
35.049817046, 96.390, 1460.0, 38.2099
35.076077611, 96.390, 1370.0, 37.0135
35.102338176, 96.390, 1429.0, 37.8021
35.128598742, 96.390, 1441.0, 37.9605
35.154859307, 96.390, 1418.0, 37.6563
35.181119872, 96.390, 1411.0, 37.5633
35.207380438, 96.390, 1386.0, 37.2290
35.233641003, 96.390, 1458.0, 38.1838
35.259901569, 96.390, 1431.0, 37.8286
35.286162134, 96.390, 1405.0, 37.4833
35.312422699, 96.390, 1401.0, 37.4299
35.338683265, 96.390, 1429.0, 37.8021
35.364943830, 96.390, 1350.0, 36.7423
35.391204395, 96.390, 1439.0, 37.9342
35.417464961, 96.390, 1400.0, 37.4166
35.443725526, 96.390, 1329.0, 36.4555
35.469986091, 96.390, 1406.0, 37.4967
35.496246657, 96.390, 1386.0, 37.2290
35.522507222, 96.390, 1403.0, 37.4566
35.548767787, 96.390, 1390.0, 37.2827
35.575028353, 96.390, 1328.0, 36.4417
35.601288918, 96.390, 1331.0, 36.4829
35.627549484, 96.390, 1360.0, 36.8782
35.653810049, 96.390, 1361.0, 36.8917
35.680070614, 96.390, 1291.0, 35.9305
35.706331180, 96.390, 1357.0, 36.8375
35.732591745, 96.390, 1342.0, 36.6333
35.758852310, 96.390, 1373.0, 37.0540
35.785112876, 96.390, 1325.0, 36.4005
35.811373441, 96.390, 1292.0, 35.9444
35.837634006, 96.390, 1399.0, 37.4032
35.863894572, 96.390, 1351.0, 36.7560
35.890155137, 96.390, 1375.0, 37.0810
35.916415702, 96.390, 1353.0, 36.7831
35.942676268, 96.390, 1340.0, 36.6060
35.968936833, 96.390, 1338.0, 36.5787
35.995197398, 96.390, 1353.0, 36.7831
36.021457964, 96.390, 1378.0, 37.1214
36.047718529, 96.390, 1351.0, 36.7560
36.073979095, 96.390, 1271.0, 35.6511
36.100239660, 96.390, 1311.0, 36.2077
36.126500225, 96.390, 1288.0, 35.8887
36.152760791, 96.390, 1259.0, 35.4824
36.179021356, 96.390, 1337.0, 36.5650
36.205281921, 96.390, 1318.0, 36.3043
36.231542487, 96.390, 1326.0, 36.4143
36.257803052, 96.390, 1286.0, 35.8608
36.284063617, 96.390, 1286.0, 35.8608
36.310324183, 96.390, 1274.0, 35.6931
36.336584748, 96.390, 1214.0, 34.8425
36.362845313, 96.390, 1279.0, 35.7631
36.389105879, 96.390, 1347.0, 36.7015
36.415366444, 96.390, 1232.0, 35.0999
36.441627010, 96.390, 1238.0, 35.1852
36.467887575, 96.390, 1242.0, 35.2420
36.494148140, 96.390, 1281.0, 35.7911
36.520408706, 96.390, 1251.0, 35.3695
36.546669271, 96.390, 1261.0, 35.5106
36.572929836, 96.390, 1309.0, 36.1801
36.599190402, 96.390, 1249.0, 35.3412
36.625450967, 96.390, 1277.0, 35.7351
36.651711532, 96.390, 1250.0, 35.3553
36.677972098, 96.390, 1273.0, 35.6791
36.704232663, 96.390, 1239.0, 35.1994
36.730493228, 96.390, 1318.0, 36.3043
36.756753794, 96.390, 1302.0, 36.0832
36.783014359, 96.390, 1304.0, 36.1109
36.809274924, 96.390, 1256.0, 35.4401
36.835535490, 96.390, 1196.0, 34.5832
36.861796055, 96.390, 1236.0, 35.1568
36.888056621, 96.390, 1203.0, 34.6843
36.914317186, 96.390, 1199.0, 34.6266
36.940577751, 96.390, 1272.0, 35.6651
36.966838317, 96.390, 1205.0, 34.7131
36.993098882, 96.390, 1288.0, 35.8887
37.019359447, 96.390, 1244.0, 35.2704
37.045620013, 96.390, 1182.0, 34.3802
37.071880578, 96.390, 1207.0, 34.7419
37.098141143, 96.390, 1278.0, 35.7491
37.124401709, 96.390, 1198.0, 34.6121
37.150662274, 96.390, 1177.0, 34.3074
37.176922839, 96.390, 1199.0, 34.6266
37.203183405, 96.390, 1246.0, 35.2987
37.229443970, 96.390, 1258.0, 35.4683
37.255704535, 96.390, 1251.0, 35.3695
37.281965101, 96.390, 1282.0, 35.8050
37.308225666, 96.390, 1212.0, 34.8138
37.334486232, 96.390, 1176.0, 34.2929
37.360746797, 96.390, 1212.0, 34.8138
37.387007362, 96.390, 1199.0, 34.6266
37.413267928, 96.390, 1224.0, 34.9857
37.439528493, 96.390, 1216.0, 34.8712
37.465789058, 96.390, 1205.0, 34.7131
37.492049624, 96.390, 1151.0, 33.9264
37.518310189, 96.390, 1226.0, 35.0143
37.544570754, 96.390, 1224.0, 34.9857
37.570831320, 96.390, 1229.0, 35.0571
37.597091885, 96.390, 1198.0, 34.6121
37.623352450, 96.390, 1164.0, 34.1174
37.649613016, 96.390, 1145.0, 33.8378
37.675873581, 96.390, 1140.0, 33.7639
37.702134147, 96.390, 1147.0, 33.8674
37.728394712, 96.390, 1238.0, 35.1852
37.754655277, 96.390, 1178.0, 34.3220
37.780915843, 96.390, 1165.0, 34.1321
37.807176408, 96.390, 1163.0, 34.1028
37.833436973, 96.390, 1219.0, 34.9142
37.859697539, 96.390, 1170.0, 34.2053
37.885958104, 96.390, 1182.0, 34.3802
37.912218669, 96.390, 1169.0, 34.1906
37.938479235, 96.390, 1193.0, 34.5398
37.964739800, 96.390, 1192.0, 34.5254
37.991000365, 96.390, 1139.0, 33.7491
38.017260931, 96.390, 1123.0, 33.5112
38.043521496, 96.390, 1183.0, 34.3948
38.069782061, 96.390, 1211.0, 34.7994
38.096042627, 96.390, 1182.0, 34.3802
38.122303192, 96.390, 1107.0, 33.2716
38.148563758, 96.390, 1195.0, 34.5688
38.174824323, 96.390, 1142.0, 33.7935
38.201084888, 96.390, 1149.0, 33.8969
38.227345454, 96.390, 1168.0, 34.1760
38.253606019, 96.390, 1095.0, 33.0908
38.279866584, 96.390, 1151.0, 33.9264
38.306127150, 96.390, 1139.0, 33.7491
38.332387715, 96.390, 1142.0, 33.7935
38.358648280, 96.390, 1209.0, 34.7707
38.384908846, 96.390, 1182.0, 34.3802
38.411169411, 96.390, 1127.0, 33.5708
38.437429976, 96.390, 1210.0, 34.7851
38.463690542, 96.390, 1165.0, 34.1321
38.489951107, 96.390, 1119.0, 33.4515
38.516211673, 96.390, 1113.0, 33.3617
38.542472238, 96.390, 1101.0, 33.1813
38.568732803, 96.390, 1060.0, 32.5576
38.594993369, 96.390, 1148.0, 33.8821
38.621253934, 96.390, 1141.0, 33.7787
38.647514499, 96.390, 1152.0, 33.9411
38.673775065, 96.390, 1158.0, 34.0294
38.700035630, 96.390, 1130.0, 33.6155
38.726296195, 96.390, 1153.0, 33.9559
38.752556761, 96.390, 1128.0, 33.5857
38.778817326, 96.390, 1121.0, 33.4813
38.805077891, 96.390, 1101.0, 33.1813
38.831338457, 96.390, 1110.0, 33.3167
38.857599022, 96.390, 1099.0, 33.1512
38.883859587, 96.390, 1141.0, 33.7787
38.910120153, 96.390, 1073.0, 32.7567
38.936380718, 96.390, 1092.0, 33.0454
38.962641284, 96.390, 1158.0, 34.0294
38.988901849, 96.390, 1070.0, 32.7109
39.015162414, 96.390, 1109.0, 33.3017
39.041422980, 96.390, 1070.0, 32.7109
39.067683545, 96.390, 1041.0, 32.2645
39.093944110, 96.390, 1110.0, 33.3167
39.120204676, 96.390, 1112.0, 33.3467
39.146465241, 96.390, 1141.0, 33.7787
39.172725806, 96.390, 1074.0, 32.7719
39.198986372, 96.390, 1071.0, 32.7261
39.225246937, 96.390, 1048.0, 32.3728
39.251507502, 96.390, 1072.0, 32.7414
39.277768068, 96.390, 1118.0, 33.4365
39.304028633, 96.390, 1115.0, 33.3916
39.330289199, 96.390, 1075.0, 32.7872
39.356549764, 96.390, 1044.0, 32.3110
39.382810329, 96.390, 1098.0, 33.1361
39.409070895, 96.390, 1062.0, 32.5883
39.435331460, 96.390, 1080.0, 32.8634
39.461592025, 96.390, 1076.0, 32.8024
39.487852591, 96.390, 1091.0, 33.0303
39.514113156, 96.390, 1104.0, 33.2265
39.540373721, 96.390, 1050.0, 32.4037
39.566634287, 96.390, 1050.0, 32.4037
39.592894852, 96.390, 1052.0, 32.4345
39.619155417, 96.390, 1048.0, 32.3728
39.645415983, 96.390, 1045.0, 32.3265
39.671676548, 96.390, 1040.0, 32.2490
39.697937113, 96.390, 1069.0, 32.6956
39.724197679, 96.390, 1084.0, 32.9242
39.750458244, 96.390, 1107.0, 33.2716
39.776718810, 96.390, 1009.0, 31.7648
39.802979375, 96.390, 1035.0, 32.1714
39.829239940, 96.390, 1082.0, 32.8938
39.855500506, 96.390, 1053.0, 32.4500
39.881761071, 96.390, 1064.0, 32.6190
39.908021636, 96.390, 1127.0, 33.5708
39.934282202, 96.390, 1035.0, 32.1714
39.960542767, 96.390, 1025.0, 32.0156
39.986803332, 96.390, 1073.0, 32.7567
40.013063898, 96.390, 1097.0, 33.1210
40.039324463, 96.390, 1058.0, 32.5269
40.065585028, 96.390, 1081.0, 32.8786
40.091845594, 96.390, 1018.0, 31.9061
40.118106159, 96.390, 1087.0, 32.9697
40.144366725, 96.390, 1030.0, 32.0936
40.170627290, 96.390, 1042.0, 32.2800
40.196887855, 96.390, 1128.0, 33.5857
40.223148421, 96.390, 1087.0, 32.9697
40.249408986, 96.390, 1118.0, 33.4365
40.275669551, 96.390, 1021.0, 31.9531
40.301930117, 96.390, 1031.0, 32.1092
40.328190682, 96.390, 1062.0, 32.5883
40.354451247, 96.390, 1091.0, 33.0303
40.380711813, 96.390, 993.0, 31.5119
40.406972378, 96.390, 1053.0, 32.4500
40.433232943, 96.390, 1010.0, 31.7805
40.459493509, 96.390, 1135.0, 33.6898
40.485754074, 96.390, 1095.0, 33.0908
40.512014639, 96.390, 1019.0, 31.9218
40.538275205, 96.390, 1035.0, 32.1714
40.564535770, 96.390, 1078.0, 32.8329
40.590796336, 96.390, 1115.0, 33.3916
40.617056901, 96.390, 1103.0, 33.2114
40.643317466, 96.390, 1080.0, 32.8634
40.669578032, 96.390, 1011.0, 31.7962
40.695838597, 96.390, 1117.0, 33.4215
40.722099162, 96.390, 1025.0, 32.0156
40.748359728, 96.390, 1036.0, 32.1870
40.774620293, 96.390, 1038.0, 32.2180
40.800880858, 96.390, 1052.0, 32.4345
40.827141424, 96.390, 1047.0, 32.3574
40.853401989, 96.390, 1084.0, 32.9242
40.879662554, 96.390, 1056.0, 32.4962
40.905923120, 96.390, 1040.0, 32.2490
40.932183685, 96.390, 1036.0, 32.1870
40.958444251, 96.390, 1057.0, 32.5115
40.984704816, 96.390, 1078.0, 32.8329
41.010965381, 96.390, 1037.0, 32.2025
41.037225947, 96.390, 1015.0, 31.8591
41.063486512, 96.390, 976.0, 31.2410
41.089747077, 96.390, 1041.0, 32.2645
41.116007643, 96.390, 1070.0, 32.7109
41.142268208, 96.390, 1030.0, 32.0936
41.168528773, 96.390, 1051.0, 32.4191
41.194789339, 96.390, 1059.0, 32.5423
41.221049904, 96.390, 1028.0, 32.0624
41.247310469, 96.390, 1072.0, 32.7414
41.273571035, 96.390, 1029.0, 32.0780
41.299831600, 96.390, 1000.0, 31.6228
41.326092165, 96.390, 964.0, 31.0483
41.352352731, 96.390, 987.0, 31.4166
41.378613296, 96.390, 1011.0, 31.7962
41.404873862, 96.390, 1040.0, 32.2490
41.431134427, 96.390, 1006.0, 31.7175
41.457394992, 96.390, 1006.0, 31.7175
41.483655558, 96.390, 1001.0, 31.6386
41.509916123, 96.390, 1062.0, 32.5883
41.536176688, 96.390, 1062.0, 32.5883
41.562437254, 96.390, 1018.0, 31.9061
41.588697819, 96.390, 1033.0, 32.1403
41.614958384, 96.390, 1002.0, 31.6544
41.641218950, 96.390, 1013.0, 31.8277
41.667479515, 96.390, 1032.0, 32.1248
41.693740080, 96.390, 1009.0, 31.7648
41.720000646, 96.390, 1016.0, 31.8748
41.746261211, 96.390, 1006.0, 31.7175
41.772521776, 96.390, 993.0, 31.5119
41.798782342, 96.390, 1007.0, 31.7333
41.825042907, 96.390, 989.0, 31.4484
41.851303473, 96.390, 1038.0, 32.2180
41.877564038, 96.390, 1029.0, 32.0780
41.903824603, 96.390, 1065.0, 32.6343
41.930085169, 96.390, 1018.0, 31.9061
41.956345734, 96.390, 1059.0, 32.5423
41.982606299, 96.390, 1082.0, 32.8938
42.008866865, 96.390, 995.0, 31.5436
42.035127430, 96.390, 1021.0, 31.9531
42.061387995, 96.390, 1042.0, 32.2800
42.087648561, 96.390, 1000.0, 31.6228
42.113909126, 96.390, 1026.0, 32.0312
42.140169691, 96.390, 999.0, 31.6070
42.166430257, 96.390, 1024.0, 32.0000
42.192690822, 96.390, 974.0, 31.2090
42.218951388, 96.390, 1039.0, 32.2335
42.245211953, 96.390, 1043.0, 32.2955
42.271472518, 96.390, 987.0, 31.4166
42.297733084, 96.390, 1012.0, 31.8119
42.323993649, 96.390, 1042.0, 32.2800
42.350254214, 96.390, 960.0, 30.9839
42.376514780, 96.390, 1016.0, 31.8748
42.402775345, 96.390, 1053.0, 32.4500
42.429035910, 96.390, 1007.0, 31.7333
42.455296476, 96.390, 962.0, 31.0161
42.481557041, 96.390, 1078.0, 32.8329
42.507817606, 96.390, 1009.0, 31.7648
42.534078172, 96.390, 1027.0, 32.0468
42.560338737, 96.390, 977.0, 31.2570
42.586599302, 96.390, 1011.0, 31.7962
42.612859868, 96.390, 956.0, 30.9192
42.639120433, 96.390, 984.0, 31.3688
42.665380999, 96.390, 1037.0, 32.2025
42.691641564, 96.390, 1024.0, 32.0000
42.717902129, 96.390, 1054.0, 32.4654
42.744162695, 96.390, 1011.0, 31.7962
42.770423260, 96.390, 1031.0, 32.1092
42.796683825, 96.390, 995.0, 31.5436
42.822944391, 96.390, 1022.0, 31.9687
42.849204956, 96.390, 994.0, 31.5278
42.875465521, 96.390, 986.0, 31.4006
42.901726087, 96.390, 1039.0, 32.2335
42.927986652, 96.390, 1026.0, 32.0312
42.954247217, 96.390, 942.0, 30.6920
42.980507783, 96.390, 1009.0, 31.7648
43.006768348, 96.390, 1084.0, 32.9242
43.033028914, 96.390, 993.0, 31.5119
43.059289479, 96.390, 1065.0, 32.6343
43.085550044, 96.390, 1011.0, 31.7962
43.111810610, 96.390, 1046.0, 32.3419
43.138071175, 96.390, 1054.0, 32.4654
43.164331740, 96.390, 975.0, 31.2250
43.190592306, 96.390, 1040.0, 32.2490
43.216852871, 96.390, 993.0, 31.5119
43.243113436, 96.390, 1028.0, 32.0624
43.269374002, 96.390, 997.0, 31.5753
43.295634567, 96.390, 1040.0, 32.2490
43.321895132, 96.390, 988.0, 31.4325
43.348155698, 96.390, 1007.0, 31.7333
43.374416263, 96.390, 972.0, 31.1769
43.400676828, 96.390, 1010.0, 31.7805
43.426937394, 96.390, 1011.0, 31.7962
43.453197959, 96.390, 1029.0, 32.0780
43.479458525, 96.390, 1015.0, 31.8591
43.505719090, 96.390, 1019.0, 31.9218
43.531979655, 96.390, 991.0, 31.4802
43.558240221, 96.390, 1033.0, 32.1403
43.584500786, 96.390, 999.0, 31.6070
43.610761351, 96.390, 942.0, 30.6920
43.637021917, 96.390, 981.0, 31.3209
43.663282482, 96.390, 974.0, 31.2090
43.689543047, 96.390, 999.0, 31.6070
43.715803613, 96.390, 959.0, 30.9677
43.742064178, 96.390, 1046.0, 32.3419
43.768324743, 96.390, 1013.0, 31.8277
43.794585309, 96.390, 1024.0, 32.0000
43.820845874, 96.390, 994.0, 31.5278
43.847106440, 96.390, 1024.0, 32.0000
43.873367005, 96.390, 1090.0, 33.0151
43.899627570, 96.390, 996.0, 31.5595
43.925888136, 96.390, 998.0, 31.5911
43.952148701, 96.390, 1044.0, 32.3110
43.978409266, 96.390, 975.0, 31.2250
44.004669832, 96.390, 981.0, 31.3209
44.030930397, 96.390, 960.0, 30.9839
44.057190962, 96.390, 1096.0, 33.1059
44.083451528, 96.390, 962.0, 31.0161
44.109712093, 96.390, 978.0, 31.2730
44.135972658, 96.390, 1003.0, 31.6702
44.162233224, 96.390, 999.0, 31.6070
44.188493789, 96.390, 955.0, 30.9031
44.214754354, 96.390, 988.0, 31.4325
44.241014920, 96.390, 982.0, 31.3369
44.267275485, 96.390, 975.0, 31.2250
44.293536051, 96.390, 983.0, 31.3528
44.319796616, 96.390, 945.0, 30.7409
44.346057181, 96.390, 959.0, 30.9677
44.372317747, 96.390, 985.0, 31.3847
44.398578312, 96.390, 979.0, 31.2890
44.424838877, 96.390, 982.0, 31.3369
44.451099443, 96.390, 973.0, 31.1929
44.477360008, 96.390, 963.0, 31.0322
44.503620573, 96.390, 999.0, 31.6070
44.529881139, 96.390, 963.0, 31.0322
44.556141704, 96.390, 1005.0, 31.7017
44.582402269, 96.390, 958.0, 30.9516
44.608662835, 96.390, 983.0, 31.3528
44.634923400, 96.390, 967.0, 31.0966
44.661183966, 96.390, 966.0, 31.0805
44.687444531, 96.390, 948.0, 30.7896
44.713705096, 96.390, 1000.0, 31.6228
44.739965662, 96.390, 993.0, 31.5119
44.766226227, 96.390, 1022.0, 31.9687
44.792486792, 96.390, 939.0, 30.6431
44.818747358, 96.390, 1015.0, 31.8591
44.845007923, 96.390, 896.0, 29.9333
44.871268488, 96.390, 1025.0, 32.0156
44.897529054, 96.390, 1028.0, 32.0624
44.923789619, 96.390, 980.0, 31.3050
44.950050184, 96.390, 973.0, 31.1929
44.976310750, 96.390, 999.0, 31.6070
45.002571315, 96.390, 966.0, 31.0805
45.028831880, 96.390, 995.0, 31.5436
45.055092446, 96.390, 1045.0, 32.3265
45.081353011, 96.390, 962.0, 31.0161
45.107613577, 96.390, 968.0, 31.1127
45.133874142, 96.390, 910.0, 30.1662
45.160134707, 96.390, 976.0, 31.2410
45.186395273, 96.390, 923.0, 30.3809
45.212655838, 96.390, 940.0, 30.6594
45.238916403, 96.390, 991.0, 31.4802
45.265176969, 96.390, 960.0, 30.9839
45.291437534, 96.390, 960.0, 30.9839
45.317698099, 96.390, 988.0, 31.4325
45.343958665, 96.390, 1028.0, 32.0624
45.370219230, 96.390, 964.0, 31.0483
45.396479795, 96.390, 967.0, 31.0966
45.422740361, 96.390, 974.0, 31.2090
45.449000926, 96.390, 1027.0, 32.0468
45.475261492, 96.390, 999.0, 31.6070
45.501522057, 96.390, 935.0, 30.5778
45.527782622, 96.390, 946.0, 30.7571
45.554043188, 96.390, 974.0, 31.2090
45.580303753, 96.390, 984.0, 31.3688
45.606564318, 96.390, 1082.0, 32.8938
45.632824884, 96.390, 982.0, 31.3369
45.659085449, 96.390, 991.0, 31.4802
45.685346014, 96.390, 976.0, 31.2410
45.711606580, 96.390, 983.0, 31.3528
45.737867145, 96.390, 1023.0, 31.9844
45.764127710, 96.390, 946.0, 30.7571
45.790388276, 96.390, 1006.0, 31.7175
45.816648841, 96.390, 966.0, 31.0805
45.842909406, 96.390, 962.0, 31.0161
45.869169972, 96.390, 983.0, 31.3528
45.895430537, 96.390, 919.0, 30.3150
45.921691103, 96.390, 1017.0, 31.8904
45.947951668, 96.390, 998.0, 31.5911
45.974212233, 96.390, 965.0, 31.0644
46.000472799, 96.390, 940.0, 30.6594
46.026733364, 96.390, 880.0, 29.6648
46.052993929, 96.390, 968.0, 31.1127
46.079254495, 96.390, 905.0, 30.0832
46.105515060, 96.390, 959.0, 30.9677
46.131775625, 96.390, 914.0, 30.2324
46.158036191, 96.390, 978.0, 31.2730
46.184296756, 96.390, 912.0, 30.1993
46.210557321, 96.390, 948.0, 30.7896
46.236817887, 96.390, 973.0, 31.1929
46.263078452, 96.390, 978.0, 31.2730
46.289339017, 96.390, 897.0, 29.9500
46.315599583, 96.390, 1000.0, 31.6228
46.341860148, 96.390, 953.0, 30.8707
46.368120714, 96.390, 949.0, 30.8058
46.394381279, 96.390, 950.0, 30.8221
46.420641844, 96.390, 913.0, 30.2159
46.446902410, 96.390, 937.0, 30.6105
46.473162975, 96.390, 973.0, 31.1929
46.499423540, 96.390, 962.0, 31.0161
46.525684106, 96.390, 1001.0, 31.6386
46.551944671, 96.390, 955.0, 30.9031
46.578205236, 96.390, 979.0, 31.2890
46.604465802, 96.390, 937.0, 30.6105
46.630726367, 96.390, 967.0, 31.0966
46.656986932, 96.390, 1030.0, 32.0936
46.683247498, 96.390, 1011.0, 31.7962
46.709508063, 96.390, 934.0, 30.5614
46.735768629, 96.390, 952.0, 30.8545
46.762029194, 96.390, 986.0, 31.4006
46.788289759, 96.390, 1004.0, 31.6860
46.814550325, 96.390, 963.0, 31.0322
46.840810890, 96.390, 987.0, 31.4166
46.867071455, 96.390, 933.0, 30.5450
46.893332021, 96.390, 947.0, 30.7734
46.919592586, 96.390, 945.0, 30.7409
46.945853151, 96.390, 931.0, 30.5123
46.972113717, 96.390, 1015.0, 31.8591
46.998374282, 96.390, 954.0, 30.8869
47.024634847, 96.390, 1007.0, 31.7333
47.050895413, 96.390, 932.0, 30.5287
47.077155978, 96.390, 927.0, 30.4467
47.103416543, 96.390, 932.0, 30.5287
47.129677109, 96.390, 978.0, 31.2730
47.155937674, 96.390, 1014.0, 31.8434
47.182198240, 96.390, 935.0, 30.5778
47.208458805, 96.390, 937.0, 30.6105
47.234719370, 96.390, 929.0, 30.4795
47.260979936, 96.390, 943.0, 30.7083
47.287240501, 96.390, 971.0, 31.1609
47.313501066, 96.390, 934.0, 30.5614
47.339761632, 96.390, 953.0, 30.8707
47.366022197, 96.390, 968.0, 31.1127
47.392282762, 96.390, 887.0, 29.7825
47.418543328, 96.390, 925.0, 30.4138
47.444803893, 96.390, 934.0, 30.5614
47.471064458, 96.390, 961.0, 31.0000
47.497325024, 96.390, 963.0, 31.0322
47.523585589, 96.390, 939.0, 30.6431
47.549846155, 96.390, 907.0, 30.1164
47.576106720, 96.390, 931.0, 30.5123
47.602367285, 96.390, 925.0, 30.4138
47.628627851, 96.390, 969.0, 31.1288
47.654888416, 96.390, 874.0, 29.5635
47.681148981, 96.390, 908.0, 30.1330
47.707409547, 96.390, 922.0, 30.3645
47.733670112, 96.390, 927.0, 30.4467
47.759930677, 96.390, 976.0, 31.2410
47.786191243, 96.390, 869.0, 29.4788
47.812451808, 96.390, 908.0, 30.1330
47.838712373, 96.390, 874.0, 29.5635
47.864972939, 96.390, 894.0, 29.8998
47.891233504, 96.390, 931.0, 30.5123
47.917494069, 96.390, 926.0, 30.4302
47.943754635, 96.390, 925.0, 30.4138
47.970015200, 96.390, 897.0, 29.9500
47.996275766, 96.390, 924.0, 30.3974
48.022536331, 96.390, 1008.0, 31.7490
48.048796896, 96.390, 899.0, 29.9833
48.075057462, 96.390, 935.0, 30.5778
48.101318027, 96.390, 868.0, 29.4618
48.127578592, 96.390, 899.0, 29.9833
48.153839158, 96.390, 914.0, 30.2324
48.180099723, 96.390, 955.0, 30.9031
48.206360288, 96.390, 927.0, 30.4467
48.232620854, 96.390, 957.0, 30.9354
48.258881419, 96.390, 968.0, 31.1127
48.285141984, 96.390, 895.0, 29.9166
48.311402550, 96.390, 923.0, 30.3809
48.337663115, 96.390, 929.0, 30.4795
48.363923681, 96.390, 936.0, 30.5941
48.390184246, 96.390, 952.0, 30.8545
48.416444811, 96.390, 920.0, 30.3315
48.442705377, 96.390, 962.0, 31.0161
48.468965942, 96.390, 904.0, 30.0666
48.495226507, 96.390, 861.0, 29.3428
48.521487073, 96.390, 898.0, 29.9666
48.547747638, 96.390, 897.0, 29.9500
48.574008203, 96.390, 903.0, 30.0500
48.600268769, 96.390, 911.0, 30.1828
48.626529334, 96.390, 935.0, 30.5778
48.652789899, 96.390, 922.0, 30.3645
48.679050465, 96.390, 878.0, 29.6311
48.705311030, 96.390, 915.0, 30.2490
48.731571595, 96.390, 944.0, 30.7246
48.757832161, 96.390, 943.0, 30.7083
48.784092726, 96.390, 916.0, 30.2655
48.810353292, 96.390, 918.0, 30.2985
48.836613857, 96.390, 830.0, 28.8097
48.862874422, 96.390, 832.0, 28.8444
48.889134988, 96.390, 914.0, 30.2324
48.915395553, 96.390, 951.0, 30.8383
48.941656118, 96.390, 884.0, 29.7321
48.967916684, 96.390, 917.0, 30.2820
48.994177249, 96.390, 925.0, 30.4138
49.020437814, 96.390, 900.0, 30.0000
49.046698380, 96.390, 897.0, 29.9500
49.072958945, 96.390, 892.0, 29.8664
49.099219510, 96.390, 898.0, 29.9666
49.125480076, 96.390, 898.0, 29.9666
49.151740641, 96.390, 894.0, 29.8998
49.178001207, 96.390, 895.0, 29.9166
49.204261772, 96.390, 932.0, 30.5287
49.230522337, 96.390, 892.0, 29.8664
49.256782903, 96.390, 865.0, 29.4109
49.283043468, 96.390, 898.0, 29.9666
49.309304033, 96.390, 907.0, 30.1164
49.335564599, 96.390, 915.0, 30.2490
49.361825164, 96.390, 889.0, 29.8161
49.388085729, 96.390, 960.0, 30.9839
49.414346295, 96.390, 853.0, 29.2062
49.440606860, 96.390, 923.0, 30.3809
49.466867425, 96.390, 946.0, 30.7571
49.493127991, 96.390, 912.0, 30.1993
49.519388556, 96.390, 911.0, 30.1828
49.545649121, 96.390, 881.0, 29.6816
49.571909687, 96.390, 901.0, 30.0167
49.598170252, 96.390, 893.0, 29.8831
49.624430818, 96.390, 827.0, 28.7576
49.650691383, 96.390, 899.0, 29.9833
49.676951948, 96.390, 841.0, 29.0000
49.703212514, 96.390, 899.0, 29.9833
49.729473079, 96.390, 874.0, 29.5635
49.755733644, 96.390, 920.0, 30.3315
49.781994210, 96.390, 898.0, 29.9666
49.808254775, 96.390, 933.0, 30.5450
49.834515340, 96.390, 888.0, 29.7993
49.860775906, 96.390, 873.0, 29.5466
49.887036471, 96.390, 814.0, 28.5307
49.913297036, 96.390, 893.0, 29.8831
49.939557602, 96.390, 905.0, 30.0832
49.965818167, 96.390, 860.0, 29.3258
49.992078732, 96.390, 882.0, 29.6985
50.018339298, 96.390, 871.0, 29.5127
50.044599863, 96.390, 934.0, 30.5614
50.070860429, 96.390, 899.0, 29.9833
50.097120994, 96.390, 864.0, 29.3939
50.123381559, 96.390, 875.0, 29.5804
50.149642125, 96.390, 863.0, 29.3769
50.175902690, 96.390, 869.0, 29.4788
50.202163255, 96.390, 882.0, 29.6985
50.228423821, 96.390, 887.0, 29.7825
50.254684386, 96.390, 887.0, 29.7825
50.280944951, 96.390, 889.0, 29.8161
50.307205517, 96.390, 854.0, 29.2233
50.333466082, 96.390, 845.0, 29.0689
50.359726647, 96.390, 938.0, 30.6268
50.385987213, 96.390, 845.0, 29.0689
50.412247778, 96.390, 842.0, 29.0172
50.438508344, 96.390, 896.0, 29.9333
50.464768909, 96.390, 898.0, 29.9666
50.491029474, 96.390, 915.0, 30.2490
50.517290040, 96.390, 865.0, 29.4109
50.543550605, 96.390, 890.0, 29.8329
50.569811170, 96.390, 900.0, 30.0000
50.596071736, 96.390, 878.0, 29.6311
50.622332301, 96.390, 913.0, 30.2159
50.648592866, 96.390, 946.0, 30.7571
50.674853432, 96.390, 791.0, 28.1247
50.701113997, 96.390, 855.0, 29.2404
50.727374562, 96.390, 865.0, 29.4109
50.753635128, 96.390, 880.0, 29.6648
50.779895693, 96.390, 893.0, 29.8831
50.806156258, 96.390, 861.0, 29.3428
50.832416824, 96.390, 851.0, 29.1719
50.858677389, 96.390, 908.0, 30.1330
50.884937955, 96.390, 897.0, 29.9500
50.911198520, 96.390, 895.0, 29.9166
50.937459085, 96.390, 866.0, 29.4279
50.963719651, 96.390, 883.0, 29.7153
50.989980216, 96.390, 867.0, 29.4449
51.016240781, 96.390, 894.0, 29.8998
51.042501347, 96.390, 834.0, 28.8791
51.068761912, 96.390, 832.0, 28.8444
51.095022477, 96.390, 892.0, 29.8664
51.121283043, 96.390, 874.0, 29.5635
51.147543608, 96.390, 920.0, 30.3315
51.173804173, 96.390, 869.0, 29.4788
51.200064739, 96.390, 843.0, 29.0345
51.226325304, 96.390, 885.0, 29.7489
51.252585870, 96.390, 925.0, 30.4138
51.278846435, 96.390, 897.0, 29.9500
51.305107000, 96.390, 831.0, 28.8271
51.331367566, 96.390, 861.0, 29.3428
51.357628131, 96.390, 873.0, 29.5466
51.383888696, 96.390, 844.0, 29.0517
51.410149262, 96.390, 885.0, 29.7489
51.436409827, 96.390, 834.0, 28.8791
51.462670392, 96.390, 840.0, 28.9828
51.488930958, 96.390, 893.0, 29.8831
51.515191523, 96.390, 861.0, 29.3428
51.541452088, 96.390, 881.0, 29.6816
51.567712654, 96.390, 842.0, 29.0172
51.593973219, 96.390, 825.0, 28.7228
51.620233784, 96.390, 869.0, 29.4788
51.646494350, 96.390, 806.0, 28.3901
51.672754915, 96.390, 876.0, 29.5973
51.699015481, 96.390, 823.0, 28.6880
51.725276046, 96.390, 814.0, 28.5307
51.751536611, 96.390, 884.0, 29.7321
51.777797177, 96.390, 872.0, 29.5296
51.804057742, 96.390, 887.0, 29.7825
51.830318307, 96.390, 850.0, 29.1548
51.856578873, 96.390, 930.0, 30.4959
51.882839438, 96.390, 863.0, 29.3769
51.909100003, 96.390, 883.0, 29.7153
51.935360569, 96.390, 859.0, 29.3087
51.961621134, 96.390, 832.0, 28.8444
51.987881699, 96.390, 851.0, 29.1719
52.014142265, 96.390, 864.0, 29.3939
52.040402830, 96.390, 884.0, 29.7321
52.066663396, 96.390, 880.0, 29.6648
52.092923961, 96.390, 879.0, 29.6479
52.119184526, 96.390, 867.0, 29.4449
52.145445092, 96.390, 841.0, 29.0000
52.171705657, 96.390, 841.0, 29.0000
52.197966222, 96.390, 892.0, 29.8664
52.224226788, 96.390, 858.0, 29.2916
52.250487353, 96.390, 905.0, 30.0832
52.276747918, 96.390, 850.0, 29.1548
52.303008484, 96.390, 934.0, 30.5614
52.329269049, 96.390, 834.0, 28.8791
52.355529614, 96.390, 774.0, 27.8209
52.381790180, 96.390, 859.0, 29.3087
52.408050745, 96.390, 896.0, 29.9333
52.434311310, 96.390, 850.0, 29.1548
52.460571876, 96.390, 821.0, 28.6531
52.486832441, 96.390, 848.0, 29.1204
52.513093007, 96.390, 846.0, 29.0861
52.539353572, 96.390, 919.0, 30.3150
52.565614137, 96.390, 872.0, 29.5296
52.591874703, 96.390, 890.0, 29.8329
52.618135268, 96.390, 865.0, 29.4109
52.644395833, 96.390, 867.0, 29.4449
52.670656399, 96.390, 897.0, 29.9500
52.696916964, 96.390, 843.0, 29.0345
52.723177529, 96.390, 891.0, 29.8496
52.749438095, 96.390, 837.0, 28.9310
52.775698660, 96.390, 870.0, 29.4958
52.801959225, 96.390, 812.0, 28.4956
52.828219791, 96.390, 867.0, 29.4449
52.854480356, 96.390, 864.0, 29.3939
52.880740922, 96.390, 838.0, 28.9482
52.907001487, 96.390, 821.0, 28.6531
52.933262052, 96.390, 841.0, 29.0000
52.959522618, 96.390, 851.0, 29.1719
52.985783183, 96.390, 891.0, 29.8496
53.012043748, 96.390, 845.0, 29.0689
53.038304314, 96.390, 875.0, 29.5804
53.064564879, 96.390, 878.0, 29.6311
53.090825444, 96.390, 885.0, 29.7489
53.117086010, 96.390, 810.0, 28.4605
53.143346575, 96.390, 846.0, 29.0861
53.169607140, 96.390, 866.0, 29.4279
53.195867706, 96.390, 843.0, 29.0345
53.222128271, 96.390, 852.0, 29.1890
53.248388836, 96.390, 838.0, 28.9482
53.274649402, 96.390, 885.0, 29.7489
53.300909967, 96.390, 897.0, 29.9500
53.327170533, 96.390, 835.0, 28.8964
53.353431098, 96.390, 834.0, 28.8791
53.379691663, 96.390, 849.0, 29.1376
53.405952229, 96.390, 852.0, 29.1890
53.432212794, 96.390, 865.0, 29.4109
53.458473359, 96.390, 843.0, 29.0345
53.484733925, 96.390, 835.0, 28.8964
53.510994490, 96.390, 828.0, 28.7750
53.537255055, 96.390, 830.0, 28.8097
53.563515621, 96.390, 876.0, 29.5973
53.589776186, 96.390, 825.0, 28.7228
53.616036751, 96.390, 843.0, 29.0345
53.642297317, 96.390, 803.0, 28.3373
53.668557882, 96.390, 851.0, 29.1719
53.694818448, 96.390, 852.0, 29.1890
53.721079013, 96.390, 867.0, 29.4449
53.747339578, 96.390, 793.0, 28.1603
53.773600144, 96.390, 888.0, 29.7993
53.799860709, 96.390, 863.0, 29.3769
53.826121274, 96.390, 864.0, 29.3939
53.852381840, 96.390, 846.0, 29.0861
53.878642405, 96.390, 815.0, 28.5482
53.904902970, 96.390, 875.0, 29.5804
53.931163536, 96.390, 832.0, 28.8444
53.957424101, 96.390, 880.0, 29.6648
53.983684666, 96.390, 856.0, 29.2575
54.009945232, 96.390, 815.0, 28.5482
54.036205797, 96.390, 831.0, 28.8271
54.062466362, 96.390, 848.0, 29.1204
54.088726928, 96.390, 833.0, 28.8617
54.114987493, 96.390, 812.0, 28.4956
54.141248059, 96.390, 849.0, 29.1376
54.167508624, 96.390, 863.0, 29.3769
54.193769189, 96.390, 853.0, 29.2062
54.220029755, 96.390, 866.0, 29.4279
54.246290320, 96.390, 841.0, 29.0000
54.272550885, 96.390, 881.0, 29.6816
54.298811451, 96.390, 837.0, 28.9310
54.325072016, 96.390, 855.0, 29.2404
54.351332581, 96.390, 815.0, 28.5482
54.377593147, 96.390, 843.0, 29.0345
54.403853712, 96.390, 846.0, 29.0861
54.430114277, 96.390, 826.0, 28.7402
54.456374843, 96.390, 845.0, 29.0689
54.482635408, 96.390, 879.0, 29.6479
54.508895973, 96.390, 845.0, 29.0689
54.535156539, 96.390, 817.0, 28.5832
54.561417104, 96.390, 872.0, 29.5296
54.587677670, 96.390, 914.0, 30.2324
54.613938235, 96.390, 836.0, 28.9137
54.640198800, 96.390, 796.0, 28.2135
54.666459366, 96.390, 776.0, 27.8568
54.692719931, 96.390, 816.0, 28.5657
54.718980496, 96.390, 808.0, 28.4253
54.745241062, 96.390, 911.0, 30.1828
54.771501627, 96.390, 842.0, 29.0172
54.797762192, 96.390, 865.0, 29.4109
54.824022758, 96.390, 898.0, 29.9666
54.850283323, 96.390, 764.0, 27.6405
54.876543888, 96.390, 850.0, 29.1548
54.902804454, 96.390, 892.0, 29.8664
54.929065019, 96.390, 827.0, 28.7576
54.955325585, 96.390, 865.0, 29.4109
54.981586150, 96.390, 838.0, 28.9482
55.007846715, 96.390, 793.0, 28.1603
55.034107281, 96.390, 854.0, 29.2233
55.060367846, 96.390, 820.0, 28.6356
55.086628411, 96.390, 851.0, 29.1719
55.112888977, 96.390, 840.0, 28.9828
55.139149542, 96.390, 834.0, 28.8791
55.165410107, 96.390, 855.0, 29.2404
55.191670673, 96.390, 843.0, 29.0345
55.217931238, 96.390, 886.0, 29.7658
55.244191803, 96.390, 861.0, 29.3428
55.270452369, 96.390, 907.0, 30.1164
55.296712934, 96.390, 865.0, 29.4109
55.322973499, 96.390, 838.0, 28.9482
55.349234065, 96.390, 802.0, 28.3196
55.375494630, 96.390, 809.0, 28.4429
55.401755196, 96.390, 839.0, 28.9655
55.428015761, 96.390, 882.0, 29.6985
55.454276326, 96.390, 874.0, 29.5635
55.480536892, 96.390, 850.0, 29.1548
55.506797457, 96.390, 800.0, 28.2843
55.533058022, 96.390, 847.0, 29.1033
55.559318588, 96.390, 867.0, 29.4449
55.585579153, 96.390, 848.0, 29.1204
55.611839718, 96.390, 822.0, 28.6705
55.638100284, 96.390, 823.0, 28.6880
55.664360849, 96.390, 793.0, 28.1603
55.690621414, 96.390, 872.0, 29.5296
55.716881980, 96.390, 878.0, 29.6311
55.743142545, 96.390, 812.0, 28.4956
55.769403111, 96.390, 806.0, 28.3901
55.795663676, 96.390, 898.0, 29.9666
55.821924241, 96.390, 841.0, 29.0000
55.848184807, 96.390, 777.0, 27.8747
55.874445372, 96.390, 850.0, 29.1548
55.900705937, 96.390, 820.0, 28.6356
55.926966503, 96.390, 914.0, 30.2324
55.953227068, 96.390, 831.0, 28.8271
55.979487633, 96.390, 858.0, 29.2916
56.005748199, 96.390, 831.0, 28.8271
56.032008764, 96.390, 812.0, 28.4956
56.058269329, 96.390, 875.0, 29.5804
56.084529895, 96.390, 865.0, 29.4109
56.110790460, 96.390, 883.0, 29.7153
56.137051025, 96.390, 847.0, 29.1033
56.163311591, 96.390, 897.0, 29.9500
56.189572156, 96.390, 890.0, 29.8329
56.215832722, 96.390, 865.0, 29.4109
56.242093287, 96.390, 872.0, 29.5296
56.268353852, 96.390, 797.0, 28.2312
56.294614418, 96.390, 841.0, 29.0000
56.320874983, 96.390, 820.0, 28.6356
56.347135548, 96.390, 883.0, 29.7153
56.373396114, 96.390, 870.0, 29.4958
56.399656679, 96.390, 847.0, 29.1033
56.425917244, 96.390, 870.0, 29.4958
56.452177810, 96.390, 799.0, 28.2666
56.478438375, 96.390, 832.0, 28.8444
56.504698940, 96.390, 834.0, 28.8791
56.530959506, 96.390, 846.0, 29.0861
56.557220071, 96.390, 847.0, 29.1033
56.583480637, 96.390, 798.0, 28.2489
56.609741202, 96.390, 797.0, 28.2312
56.636001767, 96.390, 835.0, 28.8964
56.662262333, 96.390, 831.0, 28.8271
56.688522898, 96.390, 844.0, 29.0517
56.714783463, 96.390, 784.0, 28.0000
56.741044029, 96.390, 844.0, 29.0517
56.767304594, 96.390, 834.0, 28.8791
56.793565159, 96.390, 849.0, 29.1376
56.819825725, 96.390, 874.0, 29.5635
56.846086290, 96.390, 785.0, 28.0179
56.872346855, 96.390, 795.0, 28.1957
56.898607421, 96.390, 826.0, 28.7402
56.924867986, 96.390, 862.0, 29.3598
56.951128551, 96.390, 845.0, 29.0689
56.977389117, 96.390, 847.0, 29.1033
57.003649682, 96.390, 819.0, 28.6182
57.029910248, 96.390, 857.0, 29.2746
57.056170813, 96.390, 878.0, 29.6311
57.082431378, 96.390, 842.0, 29.0172
57.108691944, 96.390, 824.0, 28.7054
57.134952509, 96.390, 842.0, 29.0172
57.161213074, 96.390, 907.0, 30.1164
57.187473640, 96.390, 821.0, 28.6531
57.213734205, 96.390, 801.0, 28.3019
57.239994770, 96.390, 839.0, 28.9655
57.266255336, 96.390, 770.0, 27.7489
57.292515901, 96.390, 811.0, 28.4781
57.318776466, 96.390, 876.0, 29.5973
57.345037032, 96.390, 837.0, 28.9310
57.371297597, 96.390, 880.0, 29.6648
57.397558163, 96.390, 874.0, 29.5635
57.423818728, 96.390, 791.0, 28.1247
57.450079293, 96.390, 894.0, 29.8998
57.476339859, 96.390, 867.0, 29.4449
57.502600424, 96.390, 861.0, 29.3428
57.528860989, 96.390, 854.0, 29.2233
57.555121555, 96.390, 896.0, 29.9333
57.581382120, 96.390, 795.0, 28.1957
57.607642685, 96.390, 851.0, 29.1719
57.633903251, 96.390, 838.0, 28.9482
57.660163816, 96.390, 836.0, 28.9137
57.686424381, 96.390, 814.0, 28.5307
57.712684947, 96.390, 872.0, 29.5296
57.738945512, 96.390, 890.0, 29.8329
57.765206077, 96.390, 847.0, 29.1033
57.791466643, 96.390, 846.0, 29.0861
57.817727208, 96.390, 869.0, 29.4788
57.843987774, 96.390, 841.0, 29.0000
57.870248339, 96.390, 850.0, 29.1548
57.896508904, 96.390, 891.0, 29.8496
57.922769470, 96.390, 813.0, 28.5132
57.949030035, 96.390, 880.0, 29.6648
57.975290600, 96.390, 837.0, 28.9310
58.001551166, 96.390, 822.0, 28.6705
58.027811731, 96.390, 873.0, 29.5466
58.054072296, 96.390, 856.0, 29.2575
58.080332862, 96.390, 828.0, 28.7750
58.106593427, 96.390, 882.0, 29.6985
58.132853992, 96.390, 868.0, 29.4618
58.159114558, 96.390, 851.0, 29.1719
58.185375123, 96.390, 820.0, 28.6356
58.211635689, 96.390, 890.0, 29.8329
58.237896254, 96.390, 848.0, 29.1204
58.264156819, 96.390, 882.0, 29.6985
58.290417385, 96.390, 858.0, 29.2916
58.316677950, 96.390, 844.0, 29.0517
58.342938515, 96.390, 796.0, 28.2135
58.369199081, 96.390, 819.0, 28.6182
58.395459646, 96.390, 850.0, 29.1548
58.421720211, 96.390, 756.0, 27.4955
58.447980777, 96.390, 835.0, 28.8964
58.474241342, 96.390, 825.0, 28.7228
58.500501907, 96.390, 884.0, 29.7321
58.526762473, 96.390, 840.0, 28.9828
58.553023038, 96.390, 848.0, 29.1204
58.579283603, 96.390, 853.0, 29.2062
58.605544169, 96.390, 794.0, 28.1780
58.631804734, 96.390, 855.0, 29.2404
58.658065300, 96.390, 856.0, 29.2575
58.684325865, 96.390, 793.0, 28.1603
58.710586430, 96.390, 837.0, 28.9310
58.736846996, 96.390, 868.0, 29.4618
58.763107561, 96.390, 784.0, 28.0000
58.789368126, 96.390, 870.0, 29.4958
58.815628692, 96.390, 831.0, 28.8271
58.841889257, 96.390, 799.0, 28.2666
58.868149822, 96.390, 867.0, 29.4449
58.894410388, 96.390, 818.0, 28.6007
58.920670953, 96.390, 836.0, 28.9137
58.946931518, 96.390, 821.0, 28.6531
58.973192084, 96.390, 851.0, 29.1719
58.999452649, 96.390, 814.0, 28.5307
59.025713214, 96.390, 811.0, 28.4781
59.051973780, 96.390, 897.0, 29.9500
59.078234345, 96.390, 873.0, 29.5466
59.104494911, 96.390, 845.0, 29.0689
59.130755476, 96.390, 835.0, 28.8964
59.157016041, 96.390, 835.0, 28.8964
59.183276607, 96.390, 842.0, 29.0172
59.209537172, 96.390, 902.0, 30.0333
59.235797737, 96.390, 858.0, 29.2916
59.262058303, 96.390, 880.0, 29.6648
59.288318868, 96.390, 811.0, 28.4781
59.314579433, 96.390, 865.0, 29.4109
59.340839999, 96.390, 845.0, 29.0689
59.367100564, 96.390, 893.0, 29.8831
59.393361129, 96.390, 878.0, 29.6311
59.419621695, 96.390, 870.0, 29.4958
59.445882260, 96.390, 876.0, 29.5973
59.472142826, 96.390, 802.0, 28.3196
59.498403391, 96.390, 939.0, 30.6431
59.524663956, 96.390, 861.0, 29.3428
59.550924522, 96.390, 855.0, 29.2404
59.577185087, 96.390, 852.0, 29.1890
59.603445652, 96.390, 856.0, 29.2575
59.629706218, 96.390, 881.0, 29.6816
59.655966783, 96.390, 913.0, 30.2159
59.682227348, 96.390, 921.0, 30.3480
59.708487914, 96.390, 900.0, 30.0000
59.734748479, 96.390, 849.0, 29.1376
59.761009044, 96.390, 857.0, 29.2746
59.787269610, 96.390, 898.0, 29.9666
59.813530175, 96.390, 846.0, 29.0861
59.839790740, 96.390, 876.0, 29.5973
59.866051306, 96.390, 847.0, 29.1033
59.892311871, 96.390, 841.0, 29.0000
59.918572437, 96.390, 817.0, 28.5832
59.944833002, 96.390, 819.0, 28.6182
59.971093567, 96.390, 826.0, 28.7402
59.997354133, 96.390, 906.0, 30.0998
60.023614698, 96.390, 880.0, 29.6648
60.049875263, 96.390, 842.0, 29.0172
60.076135829, 96.390, 910.0, 30.1662
60.102396394, 96.390, 852.0, 29.1890
60.128656959, 96.390, 884.0, 29.7321
60.154917525, 96.390, 821.0, 28.6531
60.181178090, 96.390, 880.0, 29.6648
60.207438655, 96.390, 874.0, 29.5635
60.233699221, 96.390, 839.0, 28.9655
60.259959786, 96.390, 850.0, 29.1548
60.286220352, 96.390, 840.0, 28.9828
60.312480917, 96.390, 885.0, 29.7489
60.338741482, 96.390, 851.0, 29.1719
60.365002048, 96.390, 841.0, 29.0000
60.391262613, 96.390, 909.0, 30.1496
60.417523178, 96.390, 844.0, 29.0517
60.443783744, 96.390, 873.0, 29.5466
60.470044309, 96.390, 869.0, 29.4788
60.496304874, 96.390, 846.0, 29.0861
60.522565440, 96.390, 846.0, 29.0861
60.548826005, 96.390, 858.0, 29.2916
60.575086570, 96.390, 823.0, 28.6880
60.601347136, 96.390, 908.0, 30.1330
60.627607701, 96.390, 829.0, 28.7924
60.653868266, 96.390, 887.0, 29.7825
60.680128832, 96.390, 848.0, 29.1204
60.706389397, 96.390, 820.0, 28.6356
60.732649963, 96.390, 812.0, 28.4956
60.758910528, 96.390, 824.0, 28.7054
60.785171093, 96.390, 854.0, 29.2233
60.811431659, 96.390, 878.0, 29.6311
60.837692224, 96.390, 832.0, 28.8444
60.863952789, 96.390, 841.0, 29.0000
60.890213355, 96.390, 856.0, 29.2575
60.916473920, 96.390, 878.0, 29.6311
60.942734485, 96.390, 830.0, 28.8097
60.968995051, 96.390, 854.0, 29.2233
60.995255616, 96.390, 853.0, 29.2062
61.021516181, 96.390, 914.0, 30.2324
61.047776747, 96.390, 862.0, 29.3598
61.074037312, 96.390, 886.0, 29.7658
61.100297878, 96.390, 864.0, 29.3939
61.126558443, 96.390, 873.0, 29.5466
61.152819008, 96.390, 846.0, 29.0861
61.179079574, 96.390, 906.0, 30.0998
61.205340139, 96.390, 788.0, 28.0713
61.231600704, 96.390, 877.0, 29.6142
61.257861270, 96.390, 880.0, 29.6648
61.284121835, 96.390, 812.0, 28.4956
61.310382400, 96.390, 816.0, 28.5657
61.336642966, 96.390, 904.0, 30.0666
61.362903531, 96.390, 849.0, 29.1376
61.389164096, 96.390, 766.0, 27.6767
61.415424662, 96.390, 844.0, 29.0517
61.441685227, 96.390, 886.0, 29.7658
61.467945792, 96.390, 931.0, 30.5123
61.494206358, 96.390, 874.0, 29.5635
61.520466923, 96.390, 868.0, 29.4618
61.546727489, 96.390, 857.0, 29.2746
61.572988054, 96.390, 856.0, 29.2575
61.599248619, 96.390, 843.0, 29.0345
61.625509185, 96.390, 835.0, 28.8964
61.651769750, 96.390, 883.0, 29.7153
61.678030315, 96.390, 870.0, 29.4958
61.704290881, 96.390, 829.0, 28.7924
61.730551446, 96.390, 832.0, 28.8444
61.756812011, 96.390, 815.0, 28.5482
61.783072577, 96.390, 860.0, 29.3258
61.809333142, 96.390, 881.0, 29.6816
61.835593707, 96.390, 865.0, 29.4109
61.861854273, 96.390, 823.0, 28.6880
61.888114838, 96.390, 847.0, 29.1033
61.914375404, 96.390, 816.0, 28.5657
61.940635969, 96.390, 860.0, 29.3258
61.966896534, 96.390, 892.0, 29.8664
61.993157100, 96.390, 823.0, 28.6880
62.019417665, 96.390, 895.0, 29.9166
62.045678230, 96.390, 833.0, 28.8617
62.071938796, 96.390, 842.0, 29.0172
62.098199361, 96.390, 853.0, 29.2062
62.124459926, 96.390, 862.0, 29.3598
62.150720492, 96.390, 816.0, 28.5657
62.176981057, 96.390, 859.0, 29.3087
62.203241622, 96.390, 881.0, 29.6816
62.229502188, 96.390, 865.0, 29.4109
62.255762753, 96.390, 837.0, 28.9310
62.282023318, 96.390, 860.0, 29.3258
62.308283884, 96.390, 877.0, 29.6142
62.334544449, 96.390, 883.0, 29.7153
62.360805015, 96.390, 874.0, 29.5635
62.387065580, 96.390, 848.0, 29.1204
62.413326145, 96.390, 895.0, 29.9166
62.439586711, 96.390, 878.0, 29.6311
62.465847276, 96.390, 849.0, 29.1376
62.492107841, 96.390, 844.0, 29.0517
62.518368407, 96.390, 906.0, 30.0998
62.544628972, 96.390, 904.0, 30.0666
62.570889537, 96.390, 875.0, 29.5804
62.597150103, 96.390, 883.0, 29.7153
62.623410668, 96.390, 872.0, 29.5296
62.649671233, 96.390, 892.0, 29.8664
62.675931799, 96.390, 886.0, 29.7658
62.702192364, 96.390, 863.0, 29.3769
62.728452930, 96.390, 860.0, 29.3258
62.754713495, 96.390, 867.0, 29.4449
62.780974060, 96.390, 864.0, 29.3939
62.807234626, 96.390, 866.0, 29.4279
62.833495191, 96.390, 811.0, 28.4781
62.859755756, 96.390, 872.0, 29.5296
62.886016322, 96.390, 805.0, 28.3725
62.912276887, 96.390, 878.0, 29.6311
62.938537452, 96.390, 935.0, 30.5778
62.964798018, 96.390, 811.0, 28.4781
62.991058583, 96.390, 833.0, 28.8617
63.017319148, 96.390, 855.0, 29.2404
63.043579714, 96.390, 854.0, 29.2233
63.069840279, 96.390, 858.0, 29.2916
63.096100844, 96.390, 825.0, 28.7228
63.122361410, 96.390, 883.0, 29.7153
63.148621975, 96.390, 853.0, 29.2062
63.174882541, 96.390, 857.0, 29.2746
63.201143106, 96.390, 891.0, 29.8496
63.227403671, 96.390, 881.0, 29.6816
63.253664237, 96.390, 865.0, 29.4109
63.279924802, 96.390, 872.0, 29.5296
63.306185367, 96.390, 867.0, 29.4449
63.332445933, 96.390, 840.0, 28.9828
63.358706498, 96.390, 865.0, 29.4109
63.384967063, 96.390, 860.0, 29.3258
63.411227629, 96.390, 818.0, 28.6007
63.437488194, 96.390, 886.0, 29.7658
63.463748759, 96.390, 858.0, 29.2916
63.490009325, 96.390, 864.0, 29.3939
63.516269890, 96.390, 804.0, 28.3549
63.542530455, 96.390, 811.0, 28.4781
63.568791021, 96.390, 862.0, 29.3598
63.595051586, 96.390, 828.0, 28.7750
63.621312152, 96.390, 859.0, 29.3087
63.647572717, 96.390, 884.0, 29.7321
63.673833282, 96.390, 821.0, 28.6531
63.700093848, 96.390, 881.0, 29.6816
63.726354413, 96.390, 833.0, 28.8617
63.752614978, 96.390, 851.0, 29.1719
63.778875544, 96.390, 893.0, 29.8831
63.805136109, 96.390, 858.0, 29.2916
63.831396674, 96.390, 794.0, 28.1780
63.857657240, 96.390, 831.0, 28.8271
63.883917805, 96.390, 849.0, 29.1376
63.910178370, 96.390, 810.0, 28.4605
63.936438936, 96.390, 856.0, 29.2575
63.962699501, 96.390, 905.0, 30.0832
63.988960067, 96.390, 801.0, 28.3019
64.015220632, 96.390, 908.0, 30.1330
64.041481197, 96.390, 847.0, 29.1033
64.067741763, 96.390, 867.0, 29.4449
64.094002328, 96.390, 812.0, 28.4956
64.120262893, 96.390, 845.0, 29.0689
64.146523459, 96.390, 875.0, 29.5804
64.172784024, 96.390, 851.0, 29.1719
64.199044589, 96.390, 905.0, 30.0832
64.225305155, 96.390, 843.0, 29.0345
64.251565720, 96.390, 848.0, 29.1204
64.277826285, 96.390, 893.0, 29.8831
64.304086851, 96.390, 878.0, 29.6311
64.330347416, 96.390, 825.0, 28.7228
64.356607981, 96.390, 898.0, 29.9666
64.382868547, 96.390, 915.0, 30.2490
64.409129112, 96.390, 911.0, 30.1828
64.435389678, 96.390, 824.0, 28.7054
64.461650243, 96.390, 884.0, 29.7321
64.487910808, 96.390, 872.0, 29.5296
64.514171374, 96.390, 860.0, 29.3258
64.540431939, 96.390, 893.0, 29.8831
64.566692504, 96.390, 819.0, 28.6182
64.592953070, 96.390, 880.0, 29.6648
64.619213635, 96.390, 836.0, 28.9137
64.645474200, 96.390, 860.0, 29.3258
64.671734766, 96.390, 831.0, 28.8271
64.697995331, 96.390, 910.0, 30.1662
64.724255896, 96.390, 851.0, 29.1719
64.750516462, 96.390, 866.0, 29.4279
64.776777027, 96.390, 872.0, 29.5296
64.803037593, 96.390, 864.0, 29.3939
64.829298158, 96.390, 833.0, 28.8617
64.855558723, 96.390, 827.0, 28.7576
64.881819289, 96.390, 815.0, 28.5482
64.908079854, 96.390, 884.0, 29.7321
64.934340419, 96.390, 806.0, 28.3901
64.960600985, 96.390, 882.0, 29.6985
64.986861550, 96.390, 852.0, 29.1890
