5.007730280 4779.0
5.033990845 4690.0
5.060251411 4754.0
5.086511976 4706.0
5.112772541 4627.0
5.139033107 4441.0
5.165293672 4579.0
5.191554237 4431.0
5.217814803 4454.0
5.244075368 4318.0
5.270335934 4349.0
5.296596499 4320.0
5.322857064 4402.0
5.349117630 4321.0
5.375378195 4362.0
5.401638760 4326.0
5.427899326 4282.0
5.454159891 4258.0
5.480420456 4382.0
5.506681022 4201.0
5.532941587 4123.0
5.559202152 4179.0
5.585462718 4165.0
5.611723283 4103.0
5.637983849 4155.0
5.664244414 4250.0
5.690504979 4032.0
5.716765545 4018.0
5.743026110 3933.0
5.769286675 4126.0
5.795547241 4026.0
5.821807806 3991.0
5.848068371 4051.0
5.874328937 3965.0
5.900589502 4004.0
5.926850067 3953.0
5.953110633 3971.0
5.979371198 3904.0
6.005631763 3923.0
6.031892329 3798.0
6.058152894 3959.0
6.084413460 3788.0
6.110674025 3967.0
6.136934590 3752.0
6.163195156 3895.0
6.189455721 3922.0
6.215716286 3739.0
6.241976852 3760.0
6.268237417 3920.0
6.294497982 3914.0
6.320758548 3790.0
6.347019113 3763.0
6.373279678 3817.0
6.399540244 3890.0
6.425800809 3776.0
6.452061375 3772.0
6.478321940 3873.0
6.504582505 3669.0
6.530843071 3675.0
6.557103636 3733.0
6.583364201 3654.0
6.609624767 3795.0
6.635885332 3780.0
6.662145897 3798.0
6.688406463 3710.0
6.714667028 3644.0
6.740927593 3683.0
6.767188159 3609.0
6.793448724 3645.0
6.819709289 3724.0
6.845969855 3615.0
6.872230420 3713.0
6.898490986 3631.0
6.924751551 3610.0
6.951012116 3685.0
6.977272682 3608.0
7.003533247 3641.0
7.029793812 3563.0
7.056054378 3540.0
7.082314943 3588.0
7.108575508 3643.0
7.134836074 3591.0
7.161096639 3624.0
7.187357204 3615.0
7.213617770 3540.0
7.239878335 3630.0
7.266138900 3599.0
7.292399466 3511.0
7.318660031 3656.0
7.344920597 3637.0
7.371181162 3540.0
7.397441727 3674.0
7.423702293 3635.0
7.449962858 3682.0
7.476223423 3435.0
7.502483989 3553.0
7.528744554 3581.0
7.555005119 3489.0
7.581265685 3557.0
7.607526250 3555.0
7.633786815 3610.0
7.660047381 3622.0
7.686307946 3534.0
7.712568512 3458.0
7.738829077 3657.0
7.765089642 3518.0
7.791350208 3444.0
7.817610773 3440.0
7.843871338 3508.0
7.870131904 3585.0
7.896392469 3656.0
7.922653034 3437.0
7.948913600 3486.0
7.975174165 3574.0
8.001434730 3474.0
8.027695296 3534.0
8.053955861 3558.0
8.080216426 3436.0
8.106476992 3475.0
8.132737557 3479.0
8.158998123 3537.0
8.185258688 3435.0
8.211519253 3502.0
8.237779819 3621.0
8.264040384 3577.0
8.290300949 3537.0
8.316561515 3518.0
8.342822080 3497.0
8.369082645 3541.0
8.395343211 3423.0
8.421603776 3608.0
8.447864341 3557.0
8.474124907 3646.0
8.500385472 3606.0
8.526646038 3500.0
8.552906603 3539.0
8.579167168 3565.0
8.605427734 3593.0
8.631688299 3653.0
8.657948864 3510.0
8.684209430 3554.0
8.710469995 3569.0
8.736730560 3595.0
8.762991126 3595.0
8.789251691 3589.0
8.815512256 3627.0
8.841772822 3654.0
8.868033387 3629.0
8.894293952 3684.0
8.920554518 3673.0
8.946815083 3617.0
8.973075649 3534.0
8.999336214 3534.0
9.025596779 3663.0
9.051857345 3753.0
9.078117910 3525.0
9.104378475 3655.0
9.130639041 3587.0
9.156899606 3472.0
9.183160171 3567.0
9.209420737 3577.0
9.235681302 3615.0
9.261941867 3619.0
9.288202433 3500.0
9.314462998 3583.0
9.340723564 3679.0
9.366984129 3619.0
9.393244694 3749.0
9.419505260 3584.0
9.445765825 3585.0
9.472026390 3706.0
9.498286956 3669.0
9.524547521 3674.0
9.550808086 3599.0
9.577068652 3628.0
9.603329217 3574.0
9.629589782 3674.0
9.655850348 3519.0
9.682110913 3694.0
9.708371478 3625.0
9.734632044 3576.0
9.760892609 3561.0
9.787153175 3658.0
9.813413740 3694.0
9.839674305 3576.0
9.865934871 3596.0
9.892195436 3674.0
9.918456001 3646.0
9.944716567 3501.0
9.970977132 3606.0
9.997237697 3508.0
10.023498263 3734.0
10.049758828 3609.0
10.076019393 3640.0
10.102279959 3571.0
10.128540524 3680.0
10.154801090 3696.0
10.181061655 3684.0
10.207322220 3544.0
10.233582786 3625.0
10.259843351 3540.0
10.286103916 3555.0
10.312364482 3728.0
10.338625047 3603.0
10.364885612 3581.0
10.391146178 3554.0
10.417406743 3556.0
10.443667308 3575.0
10.469927874 3614.0
10.496188439 3638.0
10.522449004 3567.0
10.548709570 3654.0
10.574970135 3689.0
10.601230701 3818.0
10.627491266 3648.0
10.653751831 3690.0
10.680012397 3579.0
10.706272962 3732.0
10.732533527 3650.0
10.758794093 3572.0
10.785054658 3677.0
10.811315223 3671.0
10.837575789 3697.0
10.863836354 3611.0
10.890096919 3593.0
10.916357485 3742.0
10.942618050 3633.0
10.968878616 3703.0
10.995139181 3599.0
11.021399746 3639.0
11.047660312 3685.0
11.073920877 3476.0
11.100181442 3575.0
11.126442008 3647.0
11.152702573 3628.0
11.178963138 3572.0
11.205223704 3609.0
11.231484269 3640.0
11.257744834 3564.0
11.284005400 3669.0
11.310265965 3483.0
11.336526530 3593.0
11.362787096 3602.0
11.389047661 3522.0
11.415308227 3614.0
11.441568792 3497.0
11.467829357 3507.0
11.494089923 3545.0
11.520350488 3462.0
11.546611053 3504.0
11.572871619 3530.0
11.599132184 3519.0
11.625392749 3547.0
11.651653315 3486.0
11.677913880 3572.0
11.704174445 3431.0
11.730435011 3565.0
11.756695576 3405.0
11.782956141 3383.0
11.809216707 3435.0
11.835477272 3362.0
11.861737838 3452.0
11.887998403 3389.0
11.914258968 3422.0
11.940519534 3161.0
11.966780099 3298.0
11.993040664 3271.0
12.019301230 3295.0
12.045561795 3235.0
12.071822360 3311.0
12.098082926 3262.0
12.124343491 3295.0
12.150604056 3192.0
12.176864622 3140.0
12.203125187 3112.0
12.229385753 3283.0
12.255646318 3150.0
12.281906883 3112.0
12.308167449 3080.0
12.334428014 3141.0
12.360688579 3058.0
12.386949145 3092.0
12.413209710 3111.0
12.439470275 2928.0
12.465730841 2999.0
12.491991406 3051.0
12.518251971 3031.0
12.544512537 2868.0
12.570773102 3021.0
12.597033667 2902.0
12.623294233 2922.0
12.649554798 2933.0
12.675815364 2874.0
12.702075929 3009.0
12.728336494 2758.0
12.754597060 2910.0
12.780857625 2823.0
12.807118190 2886.0
12.833378756 2775.0
12.859639321 2771.0
12.885899886 2812.0
12.912160452 2797.0
12.938421017 2796.0
12.964681582 2729.0
12.990942148 2803.0
13.017202713 2740.0
13.043463279 2742.0
13.069723844 2686.0
13.095984409 2659.0
13.122244975 2717.0
13.148505540 2737.0
13.174766105 2631.0
13.201026671 2619.0
13.227287236 2704.0
13.253547801 2674.0
13.279808367 2643.0
13.306068932 2518.0
13.332329497 2615.0
13.358590063 2527.0
13.384850628 2547.0
13.411111193 2529.0
13.437371759 2575.0
13.463632324 2442.0
13.489892890 2501.0
13.516153455 2514.0
13.542414020 2541.0
13.568674586 2415.0
13.594935151 2409.0
13.621195716 2499.0
13.647456282 2482.0
13.673716847 2546.0
13.699977412 2485.0
13.726237978 2399.0
13.752498543 2413.0
13.778759108 2427.0
13.805019674 2356.0
13.831280239 2395.0
13.857540805 2389.0
13.883801370 2428.0
13.910061935 2410.0
13.936322501 2301.0
13.962583066 2350.0
13.988843631 2388.0
14.015104197 2334.0
14.041364762 2319.0
14.067625327 2343.0
14.093885893 2292.0
14.120146458 2289.0
14.146407023 2277.0
14.172667589 2388.0
14.198928154 2258.0
14.225188719 2257.0
14.251449285 2296.0
14.277709850 2284.0
14.303970416 2184.0
14.330230981 2174.0
14.356491546 2156.0
14.382752112 2188.0
14.409012677 2196.0
14.435273242 2236.0
14.461533808 2228.0
14.487794373 2261.0
14.514054938 2272.0
14.540315504 2172.0
14.566576069 2100.0
14.592836634 2153.0
14.619097200 2141.0
14.645357765 2138.0
14.671618331 2154.0
14.697878896 2139.0
14.724139461 2219.0
14.750400027 2131.0
14.776660592 2196.0
14.802921157 2180.0
14.829181723 2109.0
14.855442288 2199.0
14.881702853 2142.0
14.907963419 2007.0
14.934223984 2189.0
14.960484549 2158.0
14.986745115 2130.0
15.013005680 2030.0
15.039266245 2128.0
15.065526811 2120.0
15.091787376 2099.0
15.118047942 2126.0
15.144308507 2158.0
15.170569072 2139.0
15.196829638 2158.0
15.223090203 2113.0
15.249350768 2094.0
15.275611334 2065.0
15.301871899 2056.0
15.328132464 2047.0
15.354393030 2068.0
15.380653595 1997.0
15.406914160 2076.0
15.433174726 2072.0
15.459435291 2075.0
15.485695857 2145.0
15.511956422 2105.0
15.538216987 2024.0
15.564477553 2103.0
15.590738118 2021.0
15.616998683 2091.0
15.643259249 2004.0
15.669519814 2035.0
15.695780379 2000.0
15.722040945 2081.0
15.748301510 2082.0
15.774562075 2055.0
15.800822641 1967.0
15.827083206 2082.0
15.853343771 1979.0
15.879604337 2056.0
15.905864902 2047.0
15.932125468 1956.0
15.958386033 2039.0
15.984646598 2001.0
16.010907164 1981.0
16.037167729 1990.0
16.063428294 2066.0
16.089688860 1966.0
16.115949425 2043.0
16.142209990 1951.0
16.168470556 1905.0
16.194731121 2016.0
16.220991686 2062.0
16.247252252 2027.0
16.273512817 2023.0
16.299773382 2018.0
16.326033948 1979.0
16.352294513 1981.0
16.378555079 1972.0
16.404815644 1979.0
16.431076209 2050.0
16.457336775 1945.0
16.483597340 2046.0
16.509857905 1924.0
16.536118471 2043.0
16.562379036 1928.0
16.588639601 1959.0
16.614900167 1955.0
16.641160732 1985.0
16.667421297 2013.0
16.693681863 1965.0
16.719942428 1926.0
16.746202994 2051.0
16.772463559 1957.0
16.798724124 1965.0
16.824984690 1974.0
16.851245255 2016.0
16.877505820 2015.0
16.903766386 2031.0
16.930026951 2024.0
16.956287516 1952.0
16.982548082 1989.0
17.008808647 2047.0
17.035069212 1948.0
17.061329778 2010.0
17.087590343 1994.0
17.113850908 1983.0
17.140111474 2015.0
17.166372039 2079.0
17.192632605 2064.0
17.218893170 1945.0
17.245153735 1973.0
17.271414301 2007.0
17.297674866 2000.0
17.323935431 2018.0
17.350195997 1900.0
17.376456562 2002.0
17.402717127 2034.0
17.428977693 2057.0
17.455238258 2018.0
17.481498823 2024.0
17.507759389 2016.0
17.534019954 2044.0
17.560280520 2041.0
17.586541085 2054.0
17.612801650 2018.0
17.639062216 2061.0
17.665322781 2075.0
17.691583346 2039.0
17.717843912 2042.0
17.744104477 2055.0
17.770365042 2019.0
17.796625608 2119.0
17.822886173 2027.0
17.849146738 2135.0
17.875407304 2084.0
17.901667869 2047.0
17.927928434 2138.0
17.954189000 2064.0
17.980449565 2122.0
18.006710131 1985.0
18.032970696 2140.0
18.059231261 2090.0
18.085491827 2209.0
18.111752392 2070.0
18.138012957 2055.0
18.164273523 2100.0
18.190534088 2115.0
18.216794653 2091.0
18.243055219 2186.0
18.269315784 2090.0
18.295576349 2174.0
18.321836915 2197.0
18.348097480 2076.0
18.374358046 2154.0
18.400618611 2083.0
18.426879176 2112.0
18.453139742 2099.0
18.479400307 2056.0
18.505660872 2170.0
18.531921438 2033.0
18.558182003 2160.0
18.584442568 2197.0
18.610703134 2073.0
18.636963699 2177.0
18.663224264 2141.0
18.689484830 2153.0
18.715745395 2219.0
18.742005960 2195.0
18.768266526 2103.0
18.794527091 2158.0
18.820787657 2219.0
18.847048222 2171.0
18.873308787 2180.0
18.899569353 2173.0
18.925829918 2290.0
18.952090483 2180.0
18.978351049 2226.0
19.004611614 2241.0
19.030872179 2239.0
19.057132745 2275.0
19.083393310 2291.0
19.109653875 2330.0
19.135914441 2341.0
19.162175006 2282.0
19.188435572 2258.0
19.214696137 2347.0
19.240956702 2274.0
19.267217268 2270.0
19.293477833 2345.0
19.319738398 2292.0
19.345998964 2335.0
19.372259529 2466.0
19.398520094 2374.0
19.424780660 2413.0
19.451041225 2342.0
19.477301790 2416.0
19.503562356 2251.0
19.529822921 2394.0
19.556083486 2373.0
19.582344052 2450.0
19.608604617 2390.0
19.634865183 2442.0
19.661125748 2390.0
19.687386313 2562.0
19.713646879 2442.0
19.739907444 2384.0
19.766168009 2351.0
19.792428575 2552.0
19.818689140 2302.0
19.844949705 2573.0
19.871210271 2420.0
19.897470836 2467.0
19.923731401 2473.0
19.949991967 2470.0
19.976252532 2437.0
20.002513097 2450.0
20.028773663 2456.0
20.055034228 2469.0
20.081294794 2527.0
20.107555359 2467.0
20.133815924 2537.0
20.160076490 2578.0
20.186337055 2477.0
20.212597620 2534.0
20.238858186 2551.0
20.265118751 2653.0
20.291379316 2583.0
20.317639882 2516.0
20.343900447 2500.0
20.370161012 2542.0
20.396421578 2660.0
20.422682143 2541.0
20.448942709 2610.0
20.475203274 2530.0
20.501463839 2672.0
20.527724405 2580.0
20.553984970 2547.0
20.580245535 2611.0
20.606506101 2624.0
20.632766666 2733.0
20.659027231 2710.0
20.685287797 2604.0
20.711548362 2599.0
20.737808927 2702.0
20.764069493 2640.0
20.790330058 2663.0
20.816590623 2698.0
20.842851189 2650.0
20.869111754 2743.0
20.895372320 2685.0
20.921632885 2756.0
20.947893450 2805.0
20.974154016 2713.0
21.000414581 2673.0
21.026675146 2745.0
21.052935712 2766.0
21.079196277 2765.0
21.105456842 2761.0
21.131717408 2746.0
21.157977973 2917.0
21.184238538 2834.0
21.210499104 2781.0
21.236759669 2783.0
21.263020235 2869.0
21.289280800 2729.0
21.315541365 2783.0
21.341801931 2702.0
21.368062496 2761.0
21.394323061 2719.0
21.420583627 2782.0
21.446844192 2792.0
21.473104757 2826.0
21.499365323 2853.0
21.525625888 2811.0
21.551886453 2882.0
21.578147019 2968.0
21.604407584 2813.0
21.630668149 2837.0
21.656928715 2878.0
21.683189280 2969.0
21.709449846 2931.0
21.735710411 2967.0
21.761970976 2948.0
21.788231542 2902.0
21.814492107 2894.0
21.840752672 2890.0
21.867013238 2943.0
21.893273803 2897.0
21.919534368 3003.0
21.945794934 3039.0
21.972055499 2991.0
21.998316064 2943.0
22.024576630 3059.0
22.050837195 3044.0
22.077097761 2992.0
22.103358326 2908.0
22.129618891 2927.0
22.155879457 2967.0
22.182140022 2999.0
22.208400587 3029.0
22.234661153 3042.0
22.260921718 2939.0
22.287182283 3011.0
22.313442849 2951.0
22.339703414 3059.0
22.365963979 2967.0
22.392224545 2991.0
22.418485110 2971.0
22.444745675 3045.0
22.471006241 2891.0
22.497266806 3065.0
22.523527372 3034.0
22.549787937 3137.0
22.576048502 3117.0
22.602309068 2942.0
22.628569633 2999.0
22.654830198 2976.0
22.681090764 3099.0
22.707351329 3129.0
22.733611894 2985.0
22.759872460 2956.0
22.786133025 3087.0
22.812393590 2975.0
22.838654156 3011.0
22.864914721 2960.0
22.891175287 3018.0
22.917435852 3007.0
22.943696417 3014.0
22.969956983 2987.0
22.996217548 3032.0
23.022478113 3032.0
23.048738679 2992.0
23.074999244 3040.0
23.101259809 3014.0
23.127520375 3014.0
23.153780940 2945.0
23.180041505 2967.0
23.206302071 2989.0
23.232562636 2988.0
23.258823201 2926.0
23.285083767 2928.0
23.311344332 2958.0
23.337604898 2998.0
23.363865463 2986.0
23.390126028 2833.0
23.416386594 2812.0
23.442647159 2809.0
23.468907724 2966.0
23.495168290 2917.0
23.521428855 2712.0
23.547689420 2902.0
23.573949986 2728.0
23.600210551 2928.0
23.626471116 2816.0
23.652731682 2921.0
23.678992247 2758.0
23.705252813 2837.0
23.731513378 2809.0
23.757773943 2787.0
23.784034509 2798.0
23.810295074 2708.0
23.836555639 2814.0
23.862816205 2645.0
23.889076770 2767.0
23.915337335 2751.0
23.941597901 2645.0
23.967858466 2650.0
23.994119031 2605.0
24.020379597 2774.0
24.046640162 2642.0
24.072900727 2712.0
24.099161293 2573.0
24.125421858 2579.0
24.151682424 2605.0
24.177942989 2679.0
24.204203554 2590.0
24.230464120 2660.0
24.256724685 2636.0
24.282985250 2610.0
24.309245816 2632.0
24.335506381 2550.0
24.361766946 2590.0
24.388027512 2570.0
24.414288077 2478.0
24.440548642 2570.0
24.466809208 2477.0
24.493069773 2550.0
24.519330338 2449.0
24.545590904 2505.0
24.571851469 2441.0
24.598112035 2412.0
24.624372600 2489.0
24.650633165 2388.0
24.676893731 2403.0
24.703154296 2477.0
24.729414861 2365.0
24.755675427 2395.0
24.781935992 2408.0
24.808196557 2353.0
24.834457123 2401.0
24.860717688 2335.0
24.886978253 2347.0
24.913238819 2321.0
24.939499384 2340.0
24.965759950 2285.0
24.992020515 2345.0
25.018281080 2326.0
25.044541646 2281.0
25.070802211 2230.0
25.097062776 2207.0
25.123323342 2248.0
25.149583907 2205.0
25.175844472 2186.0
25.202105038 2256.0
25.228365603 2168.0
25.254626168 2183.0
25.280886734 2189.0
25.307147299 2255.0
25.333407864 2232.0
25.359668430 2107.0
25.385928995 2219.0
25.412189561 2178.0
25.438450126 2149.0
25.464710691 2164.0
25.490971257 2154.0
25.517231822 2173.0
25.543492387 2114.0
25.569752953 2106.0
25.596013518 2173.0
25.622274083 2075.0
25.648534649 2124.0
25.674795214 2148.0
25.701055779 2158.0
25.727316345 2077.0
25.753576910 1994.0
25.779837476 2041.0
25.806098041 2079.0
25.832358606 1982.0
25.858619172 2109.0
25.884879737 2074.0
25.911140302 2070.0
25.937400868 2133.0
25.963661433 2108.0
25.989921998 2008.0
26.016182564 2021.0
26.042443129 2127.0
26.068703694 2007.0
26.094964260 2026.0
26.121224825 2095.0
26.147485390 2076.0
26.173745956 2058.0
26.200006521 2053.0
26.226267087 2041.0
26.252527652 2005.0
26.278788217 2025.0
26.305048783 1997.0
26.331309348 2032.0
26.357569913 1917.0
26.383830479 1971.0
26.410091044 2047.0
26.436351609 2028.0
26.462612175 1997.0
26.488872740 1966.0
26.515133305 1955.0
26.541393871 1974.0
26.567654436 1987.0
26.593915002 2032.0
26.620175567 1974.0
26.646436132 2045.0
26.672696698 1849.0
26.698957263 2069.0
26.725217828 1887.0
26.751478394 1965.0
26.777738959 1976.0
26.803999524 1942.0
26.830260090 2065.0
26.856520655 1888.0
26.882781220 1905.0
26.909041786 1912.0
26.935302351 1952.0
26.961562916 1946.0
26.987823482 1955.0
27.014084047 1889.0
27.040344613 1942.0
27.066605178 1935.0
27.092865743 1903.0
27.119126309 2033.0
27.145386874 1912.0
27.171647439 1886.0
27.197908005 1865.0
27.224168570 1857.0
27.250429135 1876.0
27.276689701 1941.0
27.302950266 1875.0
27.329210831 1851.0
27.355471397 1909.0
27.381731962 1956.0
27.407992528 1853.0
27.434253093 1957.0
27.460513658 1996.0
27.486774224 1903.0
27.513034789 1876.0
27.539295354 1816.0
27.565555920 1900.0
27.591816485 1908.0
27.618077050 1861.0
27.644337616 1910.0
27.670598181 1927.0
27.696858746 1931.0
27.723119312 1912.0
27.749379877 1889.0
27.775640442 1931.0
27.801901008 1838.0
27.828161573 1796.0
27.854422139 1866.0
27.880682704 1808.0
27.906943269 1765.0
27.933203835 1822.0
27.959464400 1878.0
27.985724965 1820.0
28.011985531 1813.0
28.038246096 1825.0
28.064506661 1776.0
28.090767227 1811.0
28.117027792 1905.0
28.143288357 1833.0
28.169548923 1869.0
28.195809488 1815.0
28.222070054 1926.0
28.248330619 1792.0
28.274591184 1826.0
28.300851750 1816.0
28.327112315 1784.0
28.353372880 1851.0
28.379633446 1785.0
28.405894011 1889.0
28.432154576 1735.0
28.458415142 1748.0
28.484675707 1756.0
28.510936272 1826.0
28.537196838 1840.0
28.563457403 1830.0
28.589717968 1788.0
28.615978534 1761.0
28.642239099 1761.0
28.668499665 1802.0
28.694760230 1856.0
28.721020795 1821.0
28.747281361 1710.0
28.773541926 1747.0
28.799802491 1807.0
28.826063057 1699.0
28.852323622 1731.0
28.878584187 1744.0
28.904844753 1756.0
28.931105318 1792.0
28.957365883 1765.0
28.983626449 1865.0
29.009887014 1709.0
29.036147579 1742.0
29.062408145 1750.0
29.088668710 1698.0
29.114929276 1816.0
29.141189841 1696.0
29.167450406 1713.0
29.193710972 1733.0
29.219971537 1755.0
29.246232102 1710.0
29.272492668 1783.0
29.298753233 1738.0
29.325013798 1710.0
29.351274364 1733.0
29.377534929 1739.0
29.403795494 1701.0
29.430056060 1787.0
29.456316625 1643.0
29.482577191 1735.0
29.508837756 1869.0
29.535098321 1709.0
29.561358887 1752.0
29.587619452 1638.0
29.613880017 1720.0
29.640140583 1669.0
29.666401148 1671.0
29.692661713 1681.0
29.718922279 1604.0
29.745182844 1735.0
29.771443409 1684.0
29.797703975 1681.0
29.823964540 1719.0
29.850225105 1689.0
29.876485671 1653.0
29.902746236 1625.0
29.929006802 1677.0
29.955267367 1654.0
29.981527932 1652.0
30.007788498 1647.0
30.034049063 1633.0
30.060309628 1703.0
30.086570194 1699.0
30.112830759 1643.0
30.139091324 1584.0
30.165351890 1655.0
30.191612455 1632.0
30.217873020 1626.0
30.244133586 1663.0
30.270394151 1594.0
30.296654717 1694.0
30.322915282 1641.0
30.349175847 1572.0
30.375436413 1565.0
30.401696978 1617.0
30.427957543 1697.0
30.454218109 1631.0
30.480478674 1612.0
30.506739239 1610.0
30.532999805 1526.0
30.559260370 1650.0
30.585520935 1569.0
30.611781501 1578.0
30.638042066 1610.0
30.664302631 1594.0
30.690563197 1598.0
30.716823762 1541.0
30.743084328 1557.0
30.769344893 1546.0
30.795605458 1589.0
30.821866024 1594.0
30.848126589 1580.0
30.874387154 1568.0
30.900647720 1616.0
30.926908285 1570.0
30.953168850 1556.0
30.979429416 1595.0
31.005689981 1557.0
31.031950546 1609.0
31.058211112 1561.0
31.084471677 1556.0
31.110732243 1554.0
31.136992808 1577.0
31.163253373 1527.0
31.189513939 1499.0
31.215774504 1477.0
31.242035069 1584.0
31.268295635 1481.0
31.294556200 1609.0
31.320816765 1590.0
31.347077331 1459.0
31.373337896 1503.0
31.399598461 1520.0
31.425859027 1563.0
31.452119592 1537.0
31.478380157 1512.0
31.504640723 1544.0
31.530901288 1499.0
31.557161854 1517.0
31.583422419 1471.0
31.609682984 1514.0
31.635943550 1495.0
31.662204115 1481.0
31.688464680 1570.0
31.714725246 1481.0
31.740985811 1530.0
31.767246376 1445.0
31.793506942 1496.0
31.819767507 1557.0
31.846028072 1557.0
31.872288638 1443.0
31.898549203 1499.0
31.924809769 1467.0
31.951070334 1459.0
31.977330899 1548.0
32.003591465 1418.0
32.029852030 1547.0
32.056112595 1431.0
32.082373161 1449.0
32.108633726 1488.0
32.134894291 1485.0
32.161154857 1476.0
32.187415422 1489.0
32.213675987 1434.0
32.239936553 1477.0
32.266197118 1438.0
32.292457683 1495.0
32.318718249 1532.0
32.344978814 1471.0
32.371239380 1457.0
32.397499945 1483.0
32.423760510 1429.0
32.450021076 1424.0
32.476281641 1442.0
32.502542206 1438.0
32.528802772 1427.0
32.555063337 1414.0
32.581323902 1468.0
32.607584468 1447.0
32.633845033 1400.0
32.660105598 1462.0
32.686366164 1439.0
32.712626729 1461.0
32.738887295 1458.0
32.765147860 1387.0
32.791408425 1468.0
32.817668991 1397.0
32.843929556 1420.0
32.870190121 1422.0
32.896450687 1389.0
32.922711252 1444.0
32.948971817 1435.0
32.975232383 1444.0
33.001492948 1426.0
33.027753513 1368.0
33.054014079 1414.0
33.080274644 1397.0
33.106535209 1427.0
33.132795775 1453.0
33.159056340 1492.0
33.185316906 1464.0
33.211577471 1402.0
33.237838036 1367.0
33.264098602 1398.0
33.290359167 1420.0
33.316619732 1446.0
33.342880298 1468.0
33.369140863 1367.0
33.395401428 1439.0
33.421661994 1389.0
33.447922559 1433.0
33.474183124 1544.0
33.500443690 1434.0
33.526704255 1399.0
33.552964820 1445.0
33.579225386 1474.0
33.605485951 1495.0
33.631746517 1415.0
33.658007082 1427.0
33.684267647 1407.0
33.710528213 1502.0
33.736788778 1512.0
33.763049343 1508.0
33.789309909 1493.0
33.815570474 1553.0
33.841831039 1500.0
33.868091605 1549.0
33.894352170 1527.0
33.920612735 1563.0
33.946873301 1602.0
33.973133866 1521.0
33.999394432 1594.0
34.025654997 1582.0
34.051915562 1601.0
34.078176128 1684.0
34.104436693 1707.0
34.130697258 1766.0
34.156957824 1673.0
34.183218389 1765.0
34.209478954 1770.0
34.235739520 1874.0
34.262000085 1872.0
34.288260650 1831.0
34.314521216 1807.0
34.340781781 1906.0
34.367042346 1992.0
34.393302912 1938.0
34.419563477 2048.0
34.445824043 1940.0
34.472084608 2024.0
34.498345173 2053.0
34.524605739 2024.0
34.550866304 2060.0
34.577126869 2097.0
34.603387435 2122.0
34.629648000 2111.0
34.655908565 2138.0
34.682169131 2158.0
34.708429696 2108.0
34.734690261 2155.0
34.760950827 2184.0
34.787211392 2143.0
34.813471958 2148.0
34.839732523 2204.0
34.865993088 2194.0
34.892253654 2235.0
34.918514219 2142.0
34.944774784 2173.0
34.971035350 2165.0
34.997295915 2135.0
35.023556480 2204.0
35.049817046 2076.0
35.076077611 2163.0
35.102338176 2205.0
35.128598742 2151.0
35.154859307 2032.0
35.181119872 2025.0
35.207380438 2063.0
35.233641003 1985.0
35.259901569 2059.0
35.286162134 1970.0
35.312422699 1973.0
35.338683265 1955.0
35.364943830 1956.0
35.391204395 1947.0
35.417464961 1965.0
35.443725526 1889.0
35.469986091 1900.0
35.496246657 1958.0
35.522507222 1934.0
35.548767787 1943.0
35.575028353 1829.0
35.601288918 1916.0
35.627549484 1841.0
35.653810049 1900.0
35.680070614 1831.0
35.706331180 1793.0
35.732591745 1789.0
35.758852310 1819.0
35.785112876 1725.0
35.811373441 1751.0
35.837634006 1826.0
35.863894572 1717.0
35.890155137 1833.0
35.916415702 1694.0
35.942676268 1739.0
35.968936833 1843.0
35.995197398 1640.0
36.021457964 1731.0
36.047718529 1662.0
36.073979095 1584.0
36.100239660 1736.0
36.126500225 1574.0
36.152760791 1624.0
36.179021356 1612.0
36.205281921 1610.0
36.231542487 1629.0
36.257803052 1614.0
36.284063617 1578.0
36.310324183 1641.0
36.336584748 1536.0
36.362845313 1507.0
36.389105879 1596.0
36.415366444 1613.0
36.441627010 1531.0
36.467887575 1461.0
36.494148140 1570.0
36.520408706 1543.0
36.546669271 1471.0
36.572929836 1444.0
36.599190402 1468.0
36.625450967 1537.0
36.651711532 1604.0
36.677972098 1490.0
36.704232663 1455.0
36.730493228 1462.0
36.756753794 1440.0
36.783014359 1465.0
36.809274924 1472.0
36.835535490 1449.0
36.861796055 1388.0
36.888056621 1416.0
36.914317186 1445.0
36.940577751 1362.0
36.966838317 1495.0
36.993098882 1409.0
37.019359447 1436.0
37.045620013 1449.0
37.071880578 1449.0
37.098141143 1390.0
37.124401709 1473.0
37.150662274 1446.0
37.176922839 1424.0
37.203183405 1401.0
37.229443970 1438.0
37.255704535 1396.0
37.281965101 1439.0
37.308225666 1407.0
37.334486232 1454.0
37.360746797 1353.0
37.387007362 1411.0
37.413267928 1373.0
37.439528493 1361.0
37.465789058 1417.0
37.492049624 1333.0
37.518310189 1471.0
37.544570754 1441.0
37.570831320 1334.0
37.597091885 1440.0
37.623352450 1394.0
37.649613016 1365.0
37.675873581 1358.0
37.702134147 1371.0
37.728394712 1407.0
37.754655277 1470.0
37.780915843 1424.0
37.807176408 1433.0
37.833436973 1469.0
37.859697539 1445.0
37.885958104 1370.0
37.912218669 1408.0
37.938479235 1351.0
37.964739800 1320.0
37.991000365 1430.0
38.017260931 1480.0
38.043521496 1441.0
38.069782061 1436.0
38.096042627 1389.0
38.122303192 1442.0
38.148563758 1464.0
38.174824323 1445.0
38.201084888 1396.0
38.227345454 1479.0
38.253606019 1372.0
38.279866584 1400.0
38.306127150 1474.0
38.332387715 1387.0
38.358648280 1418.0
38.384908846 1421.0
38.411169411 1430.0
38.437429976 1379.0
38.463690542 1446.0
38.489951107 1398.0
38.516211673 1479.0
38.542472238 1476.0
38.568732803 1363.0
38.594993369 1463.0
38.621253934 1375.0
38.647514499 1367.0
38.673775065 1434.0
38.700035630 1366.0
38.726296195 1414.0
38.752556761 1444.0
38.778817326 1426.0
38.805077891 1408.0
38.831338457 1502.0
38.857599022 1346.0
38.883859587 1425.0
38.910120153 1402.0
38.936380718 1356.0
38.962641284 1356.0
38.988901849 1397.0
39.015162414 1364.0
39.041422980 1390.0
39.067683545 1419.0
39.093944110 1375.0
39.120204676 1331.0
39.146465241 1425.0
39.172725806 1355.0
39.198986372 1377.0
39.225246937 1414.0
39.251507502 1413.0
39.277768068 1483.0
39.304028633 1370.0
39.330289199 1354.0
39.356549764 1353.0
39.382810329 1376.0
39.409070895 1319.0
39.435331460 1303.0
39.461592025 1355.0
39.487852591 1334.0
39.514113156 1369.0
39.540373721 1322.0
39.566634287 1319.0
39.592894852 1336.0
39.619155417 1307.0
39.645415983 1299.0
39.671676548 1341.0
39.697937113 1282.0
39.724197679 1286.0
39.750458244 1328.0
39.776718810 1311.0
39.802979375 1238.0
39.829239940 1317.0
39.855500506 1270.0
39.881761071 1275.0
39.908021636 1300.0
39.934282202 1295.0
39.960542767 1351.0
39.986803332 1334.0
40.013063898 1298.0
40.039324463 1296.0
40.065585028 1218.0
40.091845594 1294.0
40.118106159 1185.0
40.144366725 1281.0
40.170627290 1211.0
40.196887855 1191.0
40.223148421 1246.0
40.249408986 1284.0
40.275669551 1213.0
40.301930117 1243.0
40.328190682 1240.0
40.354451247 1263.0
40.380711813 1289.0
40.406972378 1216.0
40.433232943 1190.0
40.459493509 1241.0
40.485754074 1196.0
40.512014639 1211.0
40.538275205 1166.0
40.564535770 1201.0
40.590796336 1181.0
40.617056901 1262.0
40.643317466 1211.0
40.669578032 1146.0
40.695838597 1231.0
40.722099162 1127.0
40.748359728 1172.0
40.774620293 1145.0
40.800880858 1165.0
40.827141424 1199.0
40.853401989 1190.0
40.879662554 1196.0
40.905923120 1167.0
40.932183685 1117.0
40.958444251 1182.0
40.984704816 1228.0
41.010965381 1160.0
41.037225947 1124.0
41.063486512 1120.0
41.089747077 1114.0
41.116007643 1152.0
41.142268208 1149.0
41.168528773 1202.0
41.194789339 1108.0
41.221049904 1147.0
41.247310469 1130.0
41.273571035 1095.0
41.299831600 1113.0
41.326092165 1082.0
41.352352731 1149.0
41.378613296 1092.0
41.404873862 1077.0
41.431134427 1128.0
41.457394992 1143.0
41.483655558 1127.0
41.509916123 1084.0
41.536176688 1098.0
41.562437254 1069.0
41.588697819 1129.0
41.614958384 1118.0
41.641218950 1086.0
41.667479515 1072.0
41.693740080 1106.0
41.720000646 1103.0
41.746261211 1086.0
41.772521776 1096.0
41.798782342 1089.0
41.825042907 1084.0
41.851303473 1068.0
41.877564038 1131.0
41.903824603 1102.0
41.930085169 1073.0
41.956345734 1084.0
41.982606299 1047.0
42.008866865 1071.0
42.035127430 1007.0
42.061387995 1073.0
42.087648561 1064.0
42.113909126 1007.0
42.140169691 1037.0
42.166430257 1081.0
42.192690822 1104.0
42.218951388 1033.0
42.245211953 1051.0
42.271472518 1005.0
42.297733084 1068.0
42.323993649 1007.0
42.350254214 1070.0
42.376514780 1100.0
42.402775345 1025.0
42.429035910 1021.0
42.455296476 1065.0
42.481557041 1028.0
42.507817606 1038.0
42.534078172 1013.0
42.560338737 1050.0
42.586599302 1027.0
42.612859868 1039.0
42.639120433 1075.0
42.665380999 1063.0
42.691641564 1066.0
42.717902129 1050.0
42.744162695 1000.0
42.770423260 1061.0
42.796683825 1022.0
42.822944391 1055.0
42.849204956 1024.0
42.875465521 1014.0
42.901726087 1062.0
42.927986652 1052.0
42.954247217 1036.0
42.980507783 985.0
43.006768348 1038.0
43.033028914 1045.0
43.059289479 1013.0
43.085550044 1003.0
43.111810610 1072.0
43.138071175 1023.0
43.164331740 986.0
43.190592306 1091.0
43.216852871 1064.0
43.243113436 1006.0
43.269374002 1050.0
43.295634567 1021.0
43.321895132 1078.0
43.348155698 1030.0
43.374416263 1006.0
43.400676828 1072.0
43.426937394 1019.0
43.453197959 1026.0
43.479458525 1124.0
43.505719090 989.0
43.531979655 1071.0
43.558240221 1055.0
43.584500786 1047.0
43.610761351 1007.0
43.637021917 1079.0
43.663282482 988.0
43.689543047 1067.0
43.715803613 1036.0
43.742064178 990.0
43.768324743 1022.0
43.794585309 1029.0
43.820845874 1016.0
43.847106440 1071.0
43.873367005 1096.0
43.899627570 1093.0
43.925888136 1072.0
43.952148701 1043.0
43.978409266 1065.0
44.004669832 1065.0
44.030930397 1025.0
44.057190962 1051.0
44.083451528 1010.0
44.109712093 1001.0
44.135972658 1113.0
44.162233224 1064.0
44.188493789 1115.0
44.214754354 1012.0
44.241014920 1066.0
44.267275485 1023.0
44.293536051 1027.0
44.319796616 1083.0
44.346057181 1098.0
44.372317747 1074.0
44.398578312 1094.0
44.424838877 1130.0
44.451099443 1068.0
44.477360008 1100.0
44.503620573 1118.0
44.529881139 1050.0
44.556141704 1016.0
44.582402269 1107.0
44.608662835 1086.0
44.634923400 1057.0
44.661183966 1153.0
44.687444531 1000.0
44.713705096 1117.0
44.739965662 1116.0
44.766226227 1114.0
44.792486792 1066.0
44.818747358 1124.0
44.845007923 1102.0
44.871268488 1111.0
44.897529054 1154.0
44.923789619 1093.0
44.950050184 1095.0
44.976310750 1146.0
45.002571315 1098.0
45.028831880 1118.0
45.055092446 1120.0
45.081353011 1174.0
45.107613577 1112.0
45.133874142 1178.0
45.160134707 1088.0
45.186395273 1143.0
45.212655838 1078.0
45.238916403 1114.0
45.265176969 1141.0
45.291437534 1123.0
45.317698099 1100.0
45.343958665 1178.0
45.370219230 1162.0
45.396479795 1180.0
45.422740361 1126.0
45.449000926 1132.0
45.475261492 1115.0
45.501522057 1150.0
45.527782622 1190.0
45.554043188 1169.0
45.580303753 1193.0
45.606564318 1128.0
45.632824884 1195.0
45.659085449 1164.0
45.685346014 1186.0
45.711606580 1126.0
45.737867145 1119.0
45.764127710 1160.0
45.790388276 1156.0
45.816648841 1064.0
45.842909406 1163.0
45.869169972 1187.0
45.895430537 1135.0
45.921691103 1124.0
45.947951668 1183.0
45.974212233 1144.0
46.000472799 1160.0
46.026733364 1123.0
46.052993929 1111.0
46.079254495 1121.0
46.105515060 1115.0
46.131775625 1191.0
46.158036191 1117.0
46.184296756 1123.0
46.210557321 1135.0
46.236817887 1165.0
46.263078452 1113.0
46.289339017 1159.0
46.315599583 1104.0
46.341860148 1166.0
46.368120714 1170.0
46.394381279 1157.0
46.420641844 1148.0
46.446902410 1123.0
46.473162975 1188.0
46.499423540 1156.0
46.525684106 1111.0
46.551944671 1132.0
46.578205236 1146.0
46.604465802 1133.0
46.630726367 1121.0
46.656986932 1162.0
46.683247498 1128.0
46.709508063 1106.0
46.735768629 1144.0
46.762029194 1151.0
46.788289759 1153.0
46.814550325 1102.0
46.840810890 1121.0
46.867071455 1086.0
46.893332021 1154.0
46.919592586 1131.0
46.945853151 1173.0
46.972113717 1125.0
46.998374282 1120.0
47.024634847 1121.0
47.050895413 1092.0
47.077155978 1135.0
47.103416543 1040.0
47.129677109 1162.0
47.155937674 1107.0
47.182198240 1141.0
47.208458805 1086.0
47.234719370 1139.0
47.260979936 1058.0
47.287240501 1080.0
47.313501066 1097.0
47.339761632 1126.0
47.366022197 1051.0
47.392282762 1129.0
47.418543328 1124.0
47.444803893 1106.0
47.471064458 1030.0
47.497325024 1107.0
47.523585589 1087.0
47.549846155 1062.0
47.576106720 1064.0
47.602367285 1063.0
47.628627851 1023.0
47.654888416 1009.0
47.681148981 1078.0
47.707409547 1017.0
47.733670112 1072.0
47.759930677 1060.0
47.786191243 1045.0
47.812451808 1115.0
47.838712373 1047.0
47.864972939 986.0
47.891233504 1026.0
47.917494069 1103.0
47.943754635 1019.0
47.970015200 1049.0
47.996275766 1103.0
48.022536331 1086.0
48.048796896 1101.0
48.075057462 1011.0
48.101318027 1045.0
48.127578592 960.0
48.153839158 1033.0
48.180099723 1047.0
48.206360288 1004.0
48.232620854 1036.0
48.258881419 986.0
48.285141984 984.0
48.311402550 1101.0
48.337663115 1070.0
48.363923681 1098.0
48.390184246 1032.0
48.416444811 985.0
48.442705377 1019.0
48.468965942 1086.0
48.495226507 1041.0
48.521487073 950.0
48.547747638 1006.0
48.574008203 1058.0
48.600268769 1000.0
48.626529334 952.0
48.652789899 996.0
48.679050465 986.0
48.705311030 1034.0
48.731571595 984.0
48.757832161 954.0
48.784092726 992.0
48.810353292 1028.0
48.836613857 982.0
48.862874422 1015.0
48.889134988 916.0
48.915395553 955.0
48.941656118 967.0
48.967916684 968.0
48.994177249 986.0
49.020437814 969.0
49.046698380 895.0
49.072958945 941.0
49.099219510 923.0
49.125480076 945.0
49.151740641 1015.0
49.178001207 914.0
49.204261772 968.0
49.230522337 897.0
49.256782903 949.0
49.283043468 939.0
49.309304033 982.0
49.335564599 938.0
49.361825164 928.0
49.388085729 961.0
49.414346295 877.0
49.440606860 894.0
49.466867425 905.0
49.493127991 961.0
49.519388556 1007.0
49.545649121 894.0
49.571909687 938.0
49.598170252 951.0
49.624430818 895.0
49.650691383 922.0
49.676951948 957.0
49.703212514 884.0
49.729473079 956.0
49.755733644 842.0
49.781994210 930.0
49.808254775 962.0
49.834515340 888.0
49.860775906 925.0
49.887036471 876.0
49.913297036 851.0
49.939557602 878.0
49.965818167 890.0
49.992078732 935.0
50.018339298 891.0
50.044599863 903.0
50.070860429 863.0
50.097120994 883.0
50.123381559 897.0
50.149642125 851.0
50.175902690 867.0
50.202163255 897.0
50.228423821 855.0
50.254684386 951.0
50.280944951 863.0
50.307205517 891.0
50.333466082 840.0
50.359726647 853.0
50.385987213 879.0
50.412247778 884.0
50.438508344 882.0
50.464768909 846.0
50.491029474 845.0
50.517290040 876.0
50.543550605 890.0
50.569811170 842.0
50.596071736 893.0
50.622332301 864.0
50.648592866 893.0
50.674853432 858.0
50.701113997 856.0
50.727374562 898.0
50.753635128 846.0
50.779895693 861.0
50.806156258 866.0
50.832416824 851.0
50.858677389 822.0
50.884937955 889.0
50.911198520 850.0
50.937459085 863.0
50.963719651 783.0
50.989980216 820.0
51.016240781 857.0
51.042501347 844.0
51.068761912 849.0
51.095022477 874.0
51.121283043 905.0
51.147543608 795.0
51.173804173 865.0
51.200064739 833.0
51.226325304 813.0
51.252585870 805.0
51.278846435 786.0
51.305107000 758.0
51.331367566 823.0
51.357628131 771.0
51.383888696 841.0
51.410149262 857.0
51.436409827 821.0
51.462670392 779.0
51.488930958 797.0
51.515191523 863.0
51.541452088 854.0
51.567712654 781.0
51.593973219 808.0
51.620233784 900.0
51.646494350 836.0
51.672754915 796.0
51.699015481 810.0
51.725276046 778.0
51.751536611 813.0
51.777797177 818.0
51.804057742 814.0
51.830318307 846.0
51.856578873 800.0
51.882839438 771.0
51.909100003 779.0
51.935360569 751.0
51.961621134 812.0
51.987881699 841.0
52.014142265 814.0
52.040402830 775.0
52.066663396 765.0
52.092923961 734.0
52.119184526 796.0
52.145445092 789.0
52.171705657 809.0
52.197966222 765.0
52.224226788 795.0
52.250487353 776.0
52.276747918 808.0
52.303008484 741.0
52.329269049 820.0
52.355529614 825.0
52.381790180 778.0
52.408050745 794.0
52.434311310 768.0
52.460571876 795.0
52.486832441 745.0
52.513093007 850.0
52.539353572 736.0
52.565614137 786.0
52.591874703 779.0
52.618135268 802.0
52.644395833 797.0
52.670656399 800.0
52.696916964 781.0
52.723177529 781.0
52.749438095 786.0
52.775698660 756.0
52.801959225 784.0
52.828219791 804.0
52.854480356 795.0
52.880740922 780.0
52.907001487 754.0
52.933262052 744.0
52.959522618 774.0
52.985783183 770.0
53.012043748 830.0
53.038304314 796.0
53.064564879 774.0
53.090825444 708.0
53.117086010 749.0
53.143346575 794.0
53.169607140 736.0
53.195867706 765.0
53.222128271 792.0
53.248388836 782.0
53.274649402 800.0
53.300909967 737.0
53.327170533 716.0
53.353431098 780.0
53.379691663 755.0
53.405952229 773.0
53.432212794 771.0
53.458473359 771.0
53.484733925 850.0
53.510994490 754.0
53.537255055 735.0
53.563515621 737.0
53.589776186 777.0
53.616036751 710.0
53.642297317 748.0
53.668557882 768.0
53.694818448 777.0
53.721079013 759.0
53.747339578 718.0
53.773600144 748.0
53.799860709 726.0
53.826121274 733.0
53.852381840 709.0
53.878642405 797.0
53.904902970 802.0
53.931163536 741.0
53.957424101 708.0
53.983684666 728.0
54.009945232 718.0
54.036205797 708.0
54.062466362 734.0
54.088726928 754.0
54.114987493 711.0
54.141248059 719.0
54.167508624 753.0
54.193769189 737.0
54.220029755 745.0
54.246290320 696.0
54.272550885 710.0
54.298811451 708.0
54.325072016 723.0
54.351332581 718.0
54.377593147 720.0
54.403853712 753.0
54.430114277 788.0
54.456374843 711.0
54.482635408 760.0
54.508895973 769.0
54.535156539 709.0
54.561417104 745.0
54.587677670 727.0
54.613938235 713.0
54.640198800 717.0
54.666459366 704.0
54.692719931 702.0
54.718980496 725.0
54.745241062 701.0
54.771501627 695.0
54.797762192 712.0
54.824022758 711.0
54.850283323 716.0
54.876543888 704.0
54.902804454 718.0
54.929065019 726.0
54.955325585 721.0
54.981586150 710.0
55.007846715 729.0
55.034107281 702.0
55.060367846 742.0
55.086628411 708.0
55.112888977 683.0
55.139149542 706.0
55.165410107 695.0
55.191670673 707.0
55.217931238 689.0
55.244191803 708.0
55.270452369 704.0
55.296712934 717.0
55.322973499 731.0
55.349234065 719.0
55.375494630 691.0
55.401755196 735.0
55.428015761 712.0
55.454276326 706.0
55.480536892 706.0
55.506797457 713.0
55.533058022 721.0
55.559318588 680.0
55.585579153 722.0
55.611839718 705.0
55.638100284 705.0
55.664360849 755.0
55.690621414 705.0
55.716881980 704.0
55.743142545 663.0
55.769403111 747.0
55.795663676 692.0
55.821924241 667.0
55.848184807 723.0
55.874445372 720.0
55.900705937 730.0
55.926966503 708.0
55.953227068 703.0
55.979487633 744.0
56.005748199 715.0
56.032008764 729.0
56.058269329 703.0
56.084529895 763.0
56.110790460 687.0
56.137051025 693.0
56.163311591 719.0
56.189572156 699.0
56.215832722 694.0
56.242093287 725.0
56.268353852 689.0
56.294614418 731.0
56.320874983 701.0
56.347135548 733.0
56.373396114 745.0
56.399656679 690.0
56.425917244 698.0
56.452177810 727.0
56.478438375 705.0
56.504698940 682.0
56.530959506 670.0
56.557220071 709.0
56.583480637 712.0
56.609741202 658.0
56.636001767 679.0
56.662262333 658.0
56.688522898 712.0
56.714783463 692.0
56.741044029 731.0
56.767304594 641.0
56.793565159 679.0
56.819825725 663.0
56.846086290 686.0
56.872346855 709.0
56.898607421 707.0
56.924867986 693.0
56.951128551 693.0
56.977389117 728.0
57.003649682 732.0
57.029910248 701.0
57.056170813 681.0
57.082431378 753.0
57.108691944 695.0
57.134952509 707.0
57.161213074 643.0
57.187473640 666.0
57.213734205 718.0
57.239994770 633.0
57.266255336 703.0
57.292515901 666.0
57.318776466 707.0
57.345037032 688.0
57.371297597 712.0
57.397558163 715.0
57.423818728 654.0
57.450079293 688.0
57.476339859 698.0
57.502600424 699.0
57.528860989 694.0
57.555121555 694.0
57.581382120 724.0
57.607642685 666.0
57.633903251 697.0
57.660163816 682.0
57.686424381 677.0
57.712684947 693.0
57.738945512 661.0
57.765206077 640.0
57.791466643 647.0
57.817727208 723.0
57.843987774 667.0
57.870248339 711.0
57.896508904 712.0
57.922769470 706.0
57.949030035 684.0
57.975290600 665.0
58.001551166 688.0
58.027811731 664.0
58.054072296 676.0
58.080332862 704.0
58.106593427 717.0
58.132853992 684.0
58.159114558 709.0
58.185375123 676.0
58.211635689 690.0
58.237896254 708.0
58.264156819 713.0
58.290417385 673.0
58.316677950 720.0
58.342938515 760.0
58.369199081 715.0
58.395459646 665.0
58.421720211 699.0
58.447980777 667.0
58.474241342 673.0
58.500501907 710.0
58.526762473 713.0
58.553023038 719.0
58.579283603 723.0
58.605544169 672.0
58.631804734 705.0
58.658065300 694.0
58.684325865 720.0
58.710586430 718.0
58.736846996 691.0
58.763107561 640.0
58.789368126 713.0
58.815628692 699.0
58.841889257 731.0
58.868149822 707.0
58.894410388 737.0
58.920670953 737.0
58.946931518 698.0
58.973192084 705.0
58.999452649 729.0
59.025713214 696.0
59.051973780 712.0
59.078234345 715.0
59.104494911 694.0
59.130755476 661.0
59.157016041 717.0
59.183276607 733.0
59.209537172 744.0
59.235797737 689.0
59.262058303 766.0
59.288318868 740.0
59.314579433 730.0
59.340839999 697.0
59.367100564 736.0
59.393361129 670.0
59.419621695 741.0
59.445882260 755.0
59.472142826 736.0
59.498403391 719.0
59.524663956 684.0
59.550924522 718.0
59.577185087 742.0
59.603445652 786.0
59.629706218 751.0
59.655966783 727.0
59.682227348 766.0
59.708487914 756.0
59.734748479 726.0
59.761009044 753.0
59.787269610 784.0
59.813530175 761.0
59.839790740 758.0
59.866051306 760.0
59.892311871 771.0
59.918572437 777.0
59.944833002 782.0
59.971093567 839.0
59.997354133 812.0
60.023614698 817.0
60.049875263 816.0
60.076135829 835.0
60.102396394 836.0
60.128656959 778.0
60.154917525 855.0
60.181178090 861.0
60.207438655 886.0
60.233699221 879.0
60.259959786 862.0
60.286220352 893.0
60.312480917 928.0
60.338741482 905.0
60.365002048 917.0
60.391262613 950.0
60.417523178 998.0
60.443783744 1011.0
60.470044309 1040.0
60.496304874 996.0
60.522565440 1037.0
60.548826005 1044.0
60.575086570 1043.0
60.601347136 1005.0
60.627607701 1114.0
60.653868266 1171.0
60.680128832 1160.0
60.706389397 1092.0
60.732649963 1123.0
60.758910528 1144.0
60.785171093 1104.0
60.811431659 1179.0
60.837692224 1144.0
60.863952789 1183.0
60.890213355 1168.0
60.916473920 1262.0
60.942734485 1193.0
60.968995051 1187.0
60.995255616 1265.0
61.021516181 1189.0
61.047776747 1203.0
61.074037312 1206.0
61.100297878 1227.0
61.126558443 1221.0
61.152819008 1289.0
61.179079574 1227.0
61.205340139 1177.0
61.231600704 1195.0
61.257861270 1204.0
61.284121835 1187.0
61.310382400 1213.0
61.336642966 1209.0
61.362903531 1145.0
61.389164096 1165.0
61.415424662 1226.0
61.441685227 1152.0
61.467945792 1155.0
61.494206358 1206.0
61.520466923 1161.0
61.546727489 1153.0
61.572988054 1162.0
61.599248619 1146.0
61.625509185 1139.0
61.651769750 1157.0
61.678030315 1127.0
61.704290881 1135.0
61.730551446 1107.0
61.756812011 1102.0
61.783072577 1114.0
61.809333142 1163.0
61.835593707 1109.0
61.861854273 1100.0
61.888114838 1169.0
61.914375404 1133.0
61.940635969 1125.0
61.966896534 1080.0
61.993157100 1174.0
62.019417665 1126.0
62.045678230 1184.0
62.071938796 1103.0
62.098199361 1091.0
62.124459926 1100.0
62.150720492 1095.0
62.176981057 1054.0
62.203241622 1093.0
62.229502188 1086.0
62.255762753 1033.0
62.282023318 1057.0
62.308283884 1063.0
62.334544449 998.0
62.360805015 1057.0
62.387065580 1042.0
62.413326145 988.0
62.439586711 983.0
62.465847276 1016.0
62.492107841 966.0
62.518368407 990.0
62.544628972 991.0
62.570889537 894.0
62.597150103 938.0
62.623410668 989.0
62.649671233 877.0
62.675931799 920.0
62.702192364 920.0
62.728452930 872.0
62.754713495 870.0
62.780974060 986.0
62.807234626 888.0
62.833495191 880.0
62.859755756 885.0
62.886016322 875.0
62.912276887 862.0
62.938537452 853.0
62.964798018 852.0
62.991058583 861.0
63.017319148 848.0
63.043579714 829.0
63.069840279 823.0
63.096100844 856.0
63.122361410 821.0
63.148621975 796.0
63.174882541 787.0
63.201143106 786.0
63.227403671 786.0
63.253664237 793.0
63.279924802 759.0
63.306185367 813.0
63.332445933 757.0
63.358706498 756.0
63.384967063 743.0
63.411227629 723.0
63.437488194 689.0
63.463748759 803.0
63.490009325 798.0
63.516269890 745.0
63.542530455 690.0
63.568791021 742.0
63.595051586 740.0
63.621312152 709.0
63.647572717 739.0
63.673833282 738.0
63.700093848 667.0
63.726354413 726.0
63.752614978 745.0
63.778875544 705.0
63.805136109 665.0
63.831396674 672.0
63.857657240 638.0
63.883917805 705.0
63.910178370 719.0
63.936438936 651.0
63.962699501 669.0
63.988960067 640.0
64.015220632 706.0
64.041481197 637.0
64.067741763 666.0
64.094002328 643.0
64.120262893 684.0
64.146523459 626.0
64.172784024 661.0
64.199044589 717.0
64.225305155 647.0
64.251565720 700.0
64.277826285 722.0
64.304086851 675.0
64.330347416 665.0
64.356607981 651.0
64.382868547 659.0
64.409129112 653.0
64.435389678 651.0
64.461650243 677.0
64.487910808 685.0
64.514171374 632.0
64.540431939 669.0
64.566692504 665.0
64.592953070 603.0
64.619213635 658.0
64.645474200 646.0
64.671734766 660.0
64.697995331 636.0
64.724255896 664.0
64.750516462 661.0
64.776777027 664.0
64.803037593 672.0
64.829298158 638.0
64.855558723 660.0
64.881819289 720.0
64.908079854 637.0
64.934340419 704.0
64.960600985 667.0
64.986861550 647.0
