5.007730280 3390.0
5.033990845 3347.0
5.060251411 3328.0
5.086511976 3280.0
5.112772541 3487.0
5.139033107 3257.0
5.165293672 3305.0
5.191554237 3347.0
5.217814803 3152.0
5.244075368 3205.0
5.270335934 3255.0
5.296596499 3340.0
5.322857064 3207.0
5.349117630 3119.0
5.375378195 3188.0
5.401638760 3189.0
5.427899326 3234.0
5.454159891 3195.0
5.480420456 3228.0
5.506681022 3101.0
5.532941587 3187.0
5.559202152 3221.0
5.585462718 3188.0
5.611723283 3149.0
5.637983849 3095.0
5.664244414 3143.0
5.690504979 3147.0
5.716765545 3068.0
5.743026110 3173.0
5.769286675 3136.0
5.795547241 3144.0
5.821807806 3196.0
5.848068371 3094.0
5.874328937 3091.0
5.900589502 3168.0
5.926850067 3086.0
5.953110633 2999.0
5.979371198 3131.0
6.005631763 3058.0
6.031892329 3147.0
6.058152894 3172.0
6.084413460 3006.0
6.110674025 3057.0
6.136934590 3227.0
6.163195156 3140.0
6.189455721 3138.0
6.215716286 2963.0
6.241976852 3033.0
6.268237417 3038.0
6.294497982 2918.0
6.320758548 3087.0
6.347019113 2922.0
6.373279678 3054.0
6.399540244 3040.0
6.425800809 2998.0
6.452061375 2969.0
6.478321940 2983.0
6.504582505 2998.0
6.530843071 3055.0
6.557103636 2955.0
6.583364201 2984.0
6.609624767 2920.0
6.635885332 2967.0
6.662145897 3003.0
6.688406463 2960.0
6.714667028 2942.0
6.740927593 2882.0
6.767188159 2874.0
6.793448724 2903.0
6.819709289 2941.0
6.845969855 2896.0
6.872230420 2883.0
6.898490986 2942.0
6.924751551 2859.0
6.951012116 2911.0
6.977272682 2841.0
7.003533247 2891.0
7.029793812 2915.0
7.056054378 2816.0
7.082314943 2927.0
7.108575508 2995.0
7.134836074 3049.0
7.161096639 2912.0
7.187357204 3060.0
7.213617770 3014.0
7.239878335 3066.0
7.266138900 2974.0
7.292399466 2956.0
7.318660031 2884.0
7.344920597 2930.0
7.371181162 2790.0
7.397441727 2897.0
7.423702293 2987.0
7.449962858 2921.0
7.476223423 2882.0
7.502483989 2760.0
7.528744554 2840.0
7.555005119 2930.0
7.581265685 2821.0
7.607526250 2803.0
7.633786815 2877.0
7.660047381 2720.0
7.686307946 2851.0
7.712568512 2853.0
7.738829077 2818.0
7.765089642 2903.0
7.791350208 2829.0
7.817610773 2844.0
7.843871338 2855.0
7.870131904 2835.0
7.896392469 2814.0
7.922653034 2748.0
7.948913600 2823.0
7.975174165 2709.0
8.001434730 2794.0
8.027695296 2959.0
8.053955861 2839.0
8.080216426 2788.0
8.106476992 2866.0
8.132737557 2743.0
8.158998123 2919.0
8.185258688 2929.0
8.211519253 2834.0
8.237779819 2793.0
8.264040384 2937.0
8.290300949 2883.0
8.316561515 2870.0
8.342822080 2839.0
8.369082645 2838.0
8.395343211 2809.0
8.421603776 2834.0
8.447864341 2855.0
8.474124907 2874.0
8.500385472 2760.0
8.526646038 2842.0
8.552906603 2869.0
8.579167168 2857.0
8.605427734 2863.0
8.631688299 2902.0
8.657948864 2949.0
8.684209430 2927.0
8.710469995 3022.0
8.736730560 2794.0
8.762991126 2786.0
8.789251691 2886.0
8.815512256 2915.0
8.841772822 2894.0
8.868033387 2898.0
8.894293952 2903.0
8.920554518 2996.0
8.946815083 2838.0
8.973075649 2830.0
8.999336214 2882.0
9.025596779 2862.0
9.051857345 2907.0
9.078117910 2825.0
9.104378475 2881.0
9.130639041 2936.0
9.156899606 2863.0
9.183160171 2927.0
9.209420737 2951.0
9.235681302 3001.0
9.261941867 2945.0
9.288202433 3014.0
9.314462998 2953.0
9.340723564 2931.0
9.366984129 2833.0
9.393244694 3023.0
9.419505260 2974.0
9.445765825 3015.0
9.472026390 2863.0
9.498286956 2977.0
9.524547521 2995.0
9.550808086 2914.0
9.577068652 2864.0
9.603329217 3018.0
9.629589782 3004.0
9.655850348 3045.0
9.682110913 2976.0
9.708371478 2910.0
9.734632044 2969.0
9.760892609 2881.0
9.787153175 3025.0
9.813413740 3021.0
9.839674305 3060.0
9.865934871 3066.0
9.892195436 2999.0
9.918456001 2949.0
9.944716567 3058.0
9.970977132 2998.0
9.997237697 2978.0
10.023498263 3022.0
10.049758828 3024.0
10.076019393 3032.0
10.102279959 3158.0
10.128540524 3078.0
10.154801090 3117.0
10.181061655 3161.0
10.207322220 3032.0
10.233582786 3176.0
10.259843351 3146.0
10.286103916 3077.0
10.312364482 3117.0
10.338625047 3113.0
10.364885612 3049.0
10.391146178 3013.0
10.417406743 3003.0
10.443667308 3119.0
10.469927874 3137.0
10.496188439 3061.0
10.522449004 3105.0
10.548709570 3143.0
10.574970135 3045.0
10.601230701 3103.0
10.627491266 3039.0
10.653751831 3123.0
10.680012397 3078.0
10.706272962 2993.0
10.732533527 3098.0
10.758794093 3142.0
10.785054658 3227.0
10.811315223 3103.0
10.837575789 3134.0
10.863836354 3166.0
10.890096919 3206.0
10.916357485 3124.0
10.942618050 3127.0
10.968878616 3142.0
10.995139181 3117.0
11.021399746 3129.0
11.047660312 3199.0
11.073920877 3176.0
11.100181442 3148.0
11.126442008 3095.0
11.152702573 3021.0
11.178963138 3136.0
11.205223704 3060.0
11.231484269 3101.0
11.257744834 3147.0
11.284005400 3154.0
11.310265965 3074.0
11.336526530 3086.0
11.362787096 3027.0
11.389047661 3045.0
11.415308227 3137.0
11.441568792 2987.0
11.467829357 3029.0
11.494089923 3003.0
11.520350488 3080.0
11.546611053 3003.0
11.572871619 3028.0
11.599132184 2966.0
11.625392749 2958.0
11.651653315 3036.0
11.677913880 3064.0
11.704174445 3127.0
11.730435011 3097.0
11.756695576 3038.0
11.782956141 2936.0
11.809216707 3073.0
11.835477272 2965.0
11.861737838 2963.0
11.887998403 2888.0
11.914258968 3000.0
11.940519534 2936.0
11.966780099 2979.0
11.993040664 2973.0
12.019301230 2943.0
12.045561795 2894.0
12.071822360 2792.0
12.098082926 2926.0
12.124343491 2782.0
12.150604056 2852.0
12.176864622 2775.0
12.203125187 2784.0
12.229385753 2813.0
12.255646318 2739.0
12.281906883 2799.0
12.308167449 2753.0
12.334428014 2735.0
12.360688579 2731.0
12.386949145 2719.0
12.413209710 2742.0
12.439470275 2677.0
12.465730841 2651.0
12.491991406 2712.0
12.518251971 2655.0
12.544512537 2648.0
12.570773102 2634.0
12.597033667 2565.0
12.623294233 2632.0
12.649554798 2574.0
12.675815364 2547.0
12.702075929 2564.0
12.728336494 2551.0
12.754597060 2624.0
12.780857625 2568.0
12.807118190 2551.0
12.833378756 2486.0
12.859639321 2582.0
12.885899886 2560.0
12.912160452 2492.0
12.938421017 2414.0
12.964681582 2465.0
12.990942148 2467.0
13.017202713 2539.0
13.043463279 2460.0
13.069723844 2437.0
13.095984409 2371.0
13.122244975 2351.0
13.148505540 2427.0
13.174766105 2407.0
13.201026671 2321.0
13.227287236 2370.0
13.253547801 2340.0
13.279808367 2321.0
13.306068932 2387.0
13.332329497 2361.0
13.358590063 2345.0
13.384850628 2481.0
13.411111193 2373.0
13.437371759 2418.0
13.463632324 2444.0
13.489892890 2591.0
13.516153455 2831.0
13.542414020 2813.0
13.568674586 2591.0
13.594935151 2367.0
13.621195716 2296.0
13.647456282 2285.0
13.673716847 2146.0
13.699977412 2192.0
13.726237978 2206.0
13.752498543 2263.0
13.778759108 2264.0
13.805019674 2170.0
13.831280239 2304.0
13.857540805 2340.0
13.883801370 2386.0
13.910061935 2395.0
13.936322501 2316.0
13.962583066 2415.0
13.988843631 2238.0
14.015104197 2354.0
14.041364762 2224.0
14.067625327 2168.0
14.093885893 2122.0
14.120146458 2169.0
14.146407023 2202.0
14.172667589 2286.0
14.198928154 2286.0
14.225188719 2515.0
14.251449285 2535.0
14.277709850 2782.0
14.303970416 2835.0
14.330230981 2725.0
14.356491546 2423.0
14.382752112 2217.0
14.409012677 2138.0
14.435273242 2048.0
14.461533808 1972.0
14.487794373 1950.0
14.514054938 2035.0
14.540315504 2056.0
14.566576069 1899.0
14.592836634 1981.0
14.619097200 1943.0
14.645357765 2017.0
14.671618331 1977.0
14.697878896 1905.0
14.724139461 1976.0
14.750400027 1926.0
14.776660592 1866.0
14.802921157 1964.0
14.829181723 1915.0
14.855442288 1976.0
14.881702853 1908.0
14.907963419 1853.0
14.934223984 1908.0
14.960484549 1913.0
14.986745115 1876.0
15.013005680 1866.0
15.039266245 1894.0
15.065526811 1824.0
15.091787376 1907.0
15.118047942 1863.0
15.144308507 1910.0
15.170569072 1972.0
15.196829638 2125.0
15.223090203 2249.0
15.249350768 2240.0
15.275611334 2499.0
15.301871899 2745.0
15.328132464 2698.0
15.354393030 2377.0
15.380653595 2073.0
15.406914160 2032.0
15.433174726 1955.0
15.459435291 1941.0
15.485695857 1842.0
15.511956422 1917.0
15.538216987 1814.0
15.564477553 1821.0
15.590738118 1803.0
15.616998683 1832.0
15.643259249 1765.0
15.669519814 1839.0
15.695780379 1781.0
15.722040945 1831.0
15.748301510 1781.0
15.774562075 1755.0
15.800822641 1774.0
15.827083206 1691.0
15.853343771 1713.0
15.879604337 1860.0
15.905864902 1764.0
15.932125468 1797.0
15.958386033 1781.0
15.984646598 1805.0
16.010907164 1731.0
16.037167729 1848.0
16.063428294 1816.0
16.089688860 1786.0
16.115949425 1779.0
16.142209990 1756.0
16.168470556 1805.0
16.194731121 1825.0
16.220991686 1788.0
16.247252252 1724.0
16.273512817 1758.0
16.299773382 1701.0
16.326033948 1669.0
16.352294513 1741.0
16.378555079 1761.0
16.404815644 1690.0
16.431076209 1707.0
16.457336775 1681.0
16.483597340 1660.0
16.509857905 1720.0
16.536118471 1757.0
16.562379036 1707.0
16.588639601 1697.0
16.614900167 1784.0
16.641160732 1710.0
16.667421297 1686.0
16.693681863 1758.0
16.719942428 1774.0
16.746202994 1803.0
16.772463559 1738.0
16.798724124 1717.0
16.824984690 1750.0
16.851245255 1795.0
16.877505820 1808.0
16.903766386 1735.0
16.930026951 1725.0
16.956287516 1727.0
16.982548082 1771.0
17.008808647 1724.0
17.035069212 1713.0
17.061329778 1693.0
17.087590343 1710.0
17.113850908 1688.0
17.140111474 1717.0
17.166372039 1714.0
17.192632605 1798.0
17.218893170 1732.0
17.245153735 1679.0
17.271414301 1786.0
17.297674866 1633.0
17.323935431 1722.0
17.350195997 1678.0
17.376456562 1756.0
17.402717127 1773.0
17.428977693 1795.0
17.455238258 1766.0
17.481498823 1717.0
17.507759389 1671.0
17.534019954 1758.0
17.560280520 1800.0
17.586541085 1722.0
17.612801650 1756.0
17.639062216 1680.0
17.665322781 1683.0
17.691583346 1826.0
17.717843912 1794.0
17.744104477 1770.0
17.770365042 1759.0
17.796625608 1734.0
17.822886173 1776.0
17.849146738 1772.0
17.875407304 1725.0
17.901667869 1695.0
17.927928434 1716.0
17.954189000 1766.0
17.980449565 1777.0
18.006710131 1756.0
18.032970696 1810.0
18.059231261 1756.0
18.085491827 1787.0
18.111752392 1738.0
18.138012957 1823.0
18.164273523 1833.0
18.190534088 1825.0
18.216794653 1786.0
18.243055219 1828.0
18.269315784 1743.0
18.295576349 1871.0
18.321836915 1731.0
18.348097480 1764.0
18.374358046 1947.0
18.400618611 1767.0
18.426879176 1779.0
18.453139742 1848.0
18.479400307 1827.0
18.505660872 1861.0
18.531921438 1813.0
18.558182003 1858.0
18.584442568 1839.0
18.610703134 1740.0
18.636963699 1784.0
18.663224264 1816.0
18.689484830 1802.0
18.715745395 1771.0
18.742005960 1864.0
18.768266526 1829.0
18.794527091 1735.0
18.820787657 1736.0
18.847048222 1864.0
18.873308787 1870.0
18.899569353 1915.0
18.925829918 1926.0
18.952090483 1832.0
18.978351049 1782.0
19.004611614 1844.0
19.030872179 1814.0
19.057132745 1895.0
19.083393310 1881.0
19.109653875 1927.0
19.135914441 1861.0
19.162175006 1843.0
19.188435572 1859.0
19.214696137 1835.0
19.240956702 1843.0
19.267217268 1769.0
19.293477833 1853.0
19.319738398 1999.0
19.345998964 1957.0
19.372259529 1957.0
19.398520094 2242.0
19.424780660 2415.0
19.451041225 2348.0
19.477301790 2308.0
19.503562356 2287.0
19.529822921 2115.0
19.556083486 2024.0
19.582344052 2007.0
19.608604617 1938.0
19.634865183 1937.0
19.661125748 2021.0
19.687386313 2160.0
19.713646879 2073.0
19.739907444 2180.0
19.766168009 2268.0
19.792428575 2223.0
19.818689140 2274.0
19.844949705 2200.0
19.871210271 2308.0
19.897470836 2453.0
19.923731401 2582.0
19.949991967 3021.0
19.976252532 3433.0
20.002513098 3646.0
20.028773663 3514.0
20.055034228 3022.0
20.081294794 2610.0
20.107555359 2230.0
20.133815924 2188.0
20.160076490 2037.0
20.186337055 2138.0
20.212597620 1981.0
20.238858186 2062.0
20.265118751 2090.0
20.291379316 2056.0
20.317639882 2088.0
20.343900447 2140.0
20.370161012 2100.0
20.396421578 2317.0
20.422682143 2207.0
20.448942709 2316.0
20.475203274 2395.0
20.501463839 2404.0
20.527724405 2428.0
20.553984970 2582.0
20.580245535 2589.0
20.606506101 2901.0
20.632766666 3194.0
20.659027231 3793.0
20.685287797 4590.0
20.711548362 5689.0
20.737808927 6593.0
20.764069493 6442.0
20.790330058 4966.0
20.816590623 3860.0
20.842851189 2856.0
20.869111754 2401.0
20.895372320 2293.0
20.921632885 2293.0
20.947893450 2200.0
20.974154016 2083.0
21.000414581 2215.0
21.026675146 2127.0
21.052935712 2112.0
21.079196277 2214.0
21.105456842 2209.0
21.131717408 2244.0
21.157977973 2205.0
21.184238538 2269.0
21.210499104 2131.0
21.236759669 2194.0
21.263020235 2221.0
21.289280800 2309.0
21.315541365 2295.0
21.341801931 2205.0
21.368062496 2283.0
21.394323061 2152.0
21.420583627 2218.0
21.446844192 2248.0
21.473104757 2223.0
21.499365323 2116.0
21.525625888 2248.0
21.551886453 2309.0
21.578147019 2193.0
21.604407584 2250.0
21.630668149 2243.0
21.656928715 2332.0
21.683189280 2354.0
21.709449846 2330.0
21.735710411 2380.0
21.761970976 2284.0
21.788231542 2367.0
21.814492107 2262.0
21.840752672 2248.0
21.867013238 2301.0
21.893273803 2295.0
21.919534368 2264.0
21.945794934 2285.0
21.972055499 2310.0
21.998316064 2366.0
22.024576630 2327.0
22.050837195 2340.0
22.077097761 2292.0
22.103358326 2278.0
22.129618891 2340.0
22.155879457 2370.0
22.182140022 2282.0
22.208400587 2402.0
22.234661153 2344.0
22.260921718 2364.0
22.287182283 2371.0
22.313442849 2334.0
22.339703414 2332.0
22.365963979 2323.0
22.392224545 2276.0
22.418485110 2457.0
22.444745675 2295.0
22.471006241 2418.0
22.497266806 2383.0
22.523527372 2358.0
22.549787937 2360.0
22.576048502 2449.0
22.602309068 2433.0
22.628569633 2353.0
22.654830198 2370.0
22.681090764 2437.0
22.707351329 2338.0
22.733611894 2394.0
22.759872460 2460.0
22.786133025 2436.0
22.812393590 2442.0
22.838654156 2409.0
22.864914721 2455.0
22.891175287 2383.0
22.917435852 2480.0
22.943696417 2355.0
22.969956983 2433.0
22.996217548 2450.0
23.022478113 2442.0
23.048738679 2373.0
23.074999244 2423.0
23.101259809 2439.0
23.127520375 2419.0
23.153780940 2375.0
23.180041505 2406.0
23.206302071 2362.0
23.232562636 2484.0
23.258823201 2348.0
23.285083767 2462.0
23.311344332 2507.0
23.337604898 2489.0
23.363865463 2408.0
23.390126028 2455.0
23.416386594 2372.0
23.442647159 2372.0
23.468907724 2357.0
23.495168290 2396.0
23.521428855 2471.0
23.547689420 2425.0
23.573949986 2389.0
23.600210551 2427.0
23.626471116 2387.0
23.652731682 2343.0
23.678992247 2374.0
23.705252813 2354.0
23.731513378 2271.0
23.757773943 2369.0
23.784034509 2324.0
23.810295074 2295.0
23.836555639 2337.0
23.862816205 2304.0
23.889076770 2309.0
23.915337335 2286.0
23.941597901 2328.0
23.967858466 2304.0
23.994119031 2292.0
24.020379597 2420.0
24.046640162 2400.0
24.072900727 2336.0
24.099161293 2341.0
24.125421858 2362.0
24.151682424 2477.0
24.177942989 2525.0
24.204203554 2560.0
24.230464120 2665.0
24.256724685 2561.0
24.282985250 2426.0
24.309245816 2409.0
24.335506381 2248.0
24.361766946 2190.0
24.388027512 2231.0
24.414288077 2109.0
24.440548642 2160.0
24.466809208 2125.0
24.493069773 2115.0
24.519330338 2100.0
24.545590904 2084.0
24.571851469 2141.0
24.598112035 2078.0
24.624372600 2075.0
24.650633165 2147.0
24.676893731 1991.0
24.703154296 1995.0
24.729414861 2164.0
24.755675427 2041.0
24.781935992 1993.0
24.808196557 2072.0
24.834457123 1953.0
24.860717688 1943.0
24.886978253 2041.0
24.913238819 2023.0
24.939499384 2084.0
24.965759950 2027.0
24.992020515 2003.0
25.018281080 2079.0
25.044541646 1981.0
25.070802211 1940.0
25.097062776 1964.0
25.123323342 1974.0
25.149583907 2010.0
25.175844472 2025.0
25.202105038 2011.0
25.228365603 2016.0
25.254626168 2060.0
25.280886734 1980.0
25.307147299 1969.0
25.333407864 1985.0
25.359668430 2157.0
25.385928995 2212.0
25.412189561 2267.0
25.438450126 2581.0
25.464710691 2854.0
25.490971257 2946.0
25.517231822 2710.0
25.543492387 2533.0
25.569752953 2216.0
25.596013518 2140.0
25.622274083 1991.0
25.648534649 2043.0
25.674795214 1955.0
25.701055779 2010.0
25.727316345 1921.0
25.753576910 1926.0
25.779837476 1913.0
25.806098041 1900.0
25.832358606 1953.0
25.858619172 1912.0
25.884879737 1975.0
25.911140302 1950.0
25.937400868 1937.0
25.963661433 1937.0
25.989921998 2032.0
26.016182564 1954.0
26.042443129 1919.0
26.068703694 1910.0
26.094964260 1926.0
26.121224825 1887.0
26.147485390 1965.0
26.173745956 1851.0
26.200006521 2016.0
26.226267087 1853.0
26.252527652 1950.0
26.278788217 1929.0
26.305048783 1892.0
26.331309348 1911.0
26.357569913 1897.0
26.383830479 1924.0
26.410091044 1988.0
26.436351609 1906.0
26.462612175 1908.0
26.488872740 1901.0
26.515133305 1892.0
26.541393871 1948.0
26.567654436 1847.0
26.593915002 1937.0
26.620175567 1937.0
26.646436132 1940.0
26.672696698 2019.0
26.698957263 1942.0
26.725217828 2035.0
26.751478394 1922.0
26.777738959 1949.0
26.803999524 1910.0
26.830260090 1871.0
26.856520655 1922.0
26.882781220 1943.0
26.909041786 1842.0
26.935302351 1860.0
26.961562916 1924.0
26.987823482 2016.0
27.014084047 1920.0
27.040344613 1954.0
27.066605178 2055.0
27.092865743 2096.0
27.119126309 2174.0
27.145386874 2438.0
27.171647439 2680.0
27.197908005 3020.0
27.224168570 3078.0
27.250429135 2828.0
27.276689701 2681.0
27.302950266 2306.0
27.329210831 2242.0
27.355471397 2103.0
27.381731962 1929.0
27.407992528 1979.0
27.434253093 1856.0
27.460513658 1960.0
27.486774224 1923.0
27.513034789 1928.0
27.539295354 1781.0
27.565555920 1867.0
27.591816485 1864.0
27.618077050 1892.0
27.644337616 1959.0
27.670598181 1903.0
27.696858746 1998.0
27.723119312 1950.0
27.749379877 1909.0
27.775640442 1873.0
27.801901008 1883.0
27.828161573 1937.0
27.854422139 1849.0
27.880682704 1921.0
27.906943269 1937.0
27.933203835 1905.0
27.959464400 1854.0
27.985724965 1924.0
28.011985531 1926.0
28.038246096 1949.0
28.064506661 1988.0
28.090767227 1970.0
28.117027792 1940.0
28.143288357 2055.0
28.169548923 2042.0
28.195809488 1891.0
28.222070054 2015.0
28.248330619 1913.0
28.274591184 1917.0
28.300851750 1872.0
28.327112315 1957.0
28.353372880 1854.0
28.379633446 1902.0
28.405894011 1942.0
28.432154576 1925.0
28.458415142 1938.0
28.484675707 1924.0
28.510936272 1932.0
28.537196838 1925.0
28.563457403 1881.0
28.589717968 1863.0
28.615978534 1874.0
28.642239099 1874.0
28.668499665 1888.0
28.694760230 1945.0
28.721020795 1994.0
28.747281361 2015.0
28.773541926 2135.0
28.799802491 2226.0
28.826063057 2200.0
28.852323622 2054.0
28.878584187 2052.0
28.904844753 2056.0
28.931105318 1974.0
28.957365883 1916.0
28.983626449 1911.0
29.009887014 1915.0
29.036147579 1881.0
29.062408145 2023.0
29.088668710 2210.0
29.114929276 2142.0
29.141189841 2311.0
29.167450406 2322.0
29.193710972 2105.0
29.219971537 2134.0
29.246232102 2008.0
29.272492668 1969.0
29.298753233 1877.0
29.325013798 1857.0
29.351274364 1871.0
29.377534929 1846.0
29.403795494 1900.0
29.430056060 1782.0
29.456316625 1878.0
29.482577191 1955.0
29.508837756 1874.0
29.535098321 1855.0
29.561358887 1827.0
29.587619452 1838.0
29.613880017 1804.0
29.640140583 1830.0
29.666401148 1853.0
29.692661713 1852.0
29.718922279 1850.0
29.745182844 1914.0
29.771443409 1766.0
29.797703975 1789.0
29.823964540 1811.0
29.850225105 1765.0
29.876485671 1789.0
29.902746236 1806.0
29.929006802 1850.0
29.955267367 1890.0
29.981527932 1862.0
30.007788498 1878.0
30.034049063 1966.0
30.060309628 1863.0
30.086570194 1817.0
30.112830759 1789.0
30.139091324 1807.0
30.165351890 1732.0
30.191612455 1816.0
30.217873020 1857.0
30.244133586 1749.0
30.270394151 1759.0
30.296654717 1875.0
30.322915282 1786.0
30.349175847 1864.0
30.375436413 1797.0
30.401696978 1866.0
30.427957543 1782.0
30.454218109 1818.0
30.480478674 1805.0
30.506739239 1768.0
30.532999805 1877.0
30.559260370 1820.0
30.585520935 1870.0
30.611781501 2006.0
30.638042066 1964.0
30.664302631 2085.0
30.690563197 2191.0
30.716823762 2174.0
30.743084328 2166.0
30.769344893 2110.0
30.795605458 2092.0
30.821866024 2124.0
30.848126589 2141.0
30.874387154 2135.0
30.900647720 2044.0
30.926908285 1977.0
30.953168850 1982.0
30.979429416 1920.0
31.005689981 1914.0
31.031950546 1974.0
31.058211112 1820.0
31.084471677 1870.0
31.110732243 1892.0
31.136992808 1858.0
31.163253373 2034.0
31.189513939 2317.0
31.215774504 2626.0
31.242035069 2733.0
31.268295635 2657.0
31.294556200 2297.0
31.320816765 2171.0
31.347077331 2176.0
31.373337896 1871.0
31.399598461 1756.0
31.425859027 1766.0
31.452119592 1833.0
31.478380157 1851.0
31.504640723 1896.0
31.530901288 1966.0
31.557161854 2004.0
31.583422419 1945.0
31.609682984 1966.0
31.635943550 2030.0
31.662204115 1963.0
31.688464680 2041.0
31.714725246 2074.0
31.740985811 2004.0
31.767246376 1935.0
31.793506942 1860.0
31.819767507 1737.0
31.846028072 1762.0
31.872288638 1798.0
31.898549203 1846.0
31.924809769 2046.0
31.951070334 2097.0
31.977330899 2406.0
32.003591465 2806.0
32.029852030 3534.0
32.056112595 4268.0
32.082373161 5124.0
32.108633726 5522.0
32.134894291 4879.0
32.161154857 3944.0
32.187415422 3482.0
32.213675987 2775.0
32.239936553 2185.0
32.266197118 1854.0
32.292457683 1710.0
32.318718249 1609.0
32.344978814 1636.0
32.371239380 1587.0
32.397499945 1573.0
32.423760510 1552.0
32.450021076 1591.0
32.476281641 1592.0
32.502542206 1581.0
32.528802772 1470.0
32.555063337 1541.0
32.581323902 1626.0
32.607584468 1535.0
32.633845033 1519.0
32.660105598 1564.0
32.686366164 1634.0
32.712626729 1626.0
32.738887295 1570.0
32.765147860 1559.0
32.791408425 1593.0
32.817668991 1553.0
32.843929556 1555.0
32.870190121 1506.0
32.896450687 1569.0
32.922711252 1570.0
32.948971817 1502.0
32.975232383 1554.0
33.001492948 1537.0
33.027753513 1650.0
33.054014079 1509.0
33.080274644 1539.0
33.106535209 1741.0
33.132795775 1618.0
33.159056340 1622.0
33.185316906 1572.0
33.211577471 1655.0
33.237838036 1635.0
33.264098602 1576.0
33.290359167 1561.0
33.316619732 1557.0
33.342880298 1534.0
33.369140863 1535.0
33.395401428 1621.0
33.421661994 1632.0
33.447922559 1626.0
33.474183124 1706.0
33.500443690 1734.0
33.526704255 1679.0
33.552964820 1613.0
33.579225386 1621.0
33.605485951 1539.0
33.631746517 1558.0
33.658007082 1574.0
33.684267647 1590.0
33.710528213 1560.0
33.736788778 1515.0
33.763049343 1579.0
33.789309909 1616.0
33.815570474 1618.0
33.841831039 1686.0
33.868091605 1803.0
33.894352170 1976.0
33.920612735 2159.0
33.946873301 2427.0
33.973133866 2767.0
33.999394432 3023.0
34.025654997 2773.0
34.051915562 2536.0
34.078176128 2351.0
34.104436693 2225.0
34.130697258 2025.0
34.156957824 1873.0
34.183218389 1823.0
34.209478954 1885.0
34.235739520 1793.0
34.262000085 1953.0
34.288260650 1814.0
34.314521216 1877.0
34.340781781 1870.0
34.367042346 1986.0
34.393302912 1951.0
34.419563477 1996.0
34.445824043 2072.0
34.472084608 2140.0
34.498345173 2174.0
34.524605739 2156.0
34.550866304 2140.0
34.577126869 2129.0
34.603387435 2046.0
34.629648000 2022.0
34.655908565 2034.0
34.682169131 2074.0
34.708429696 2001.0
34.734690261 2029.0
34.760950827 2140.0
34.787211392 2217.0
34.813471958 2113.0
34.839732523 2245.0
34.865993088 2348.0
34.892253654 2612.0
34.918514219 2817.0
34.944774784 3147.0
34.971035350 3292.0
34.997295915 3079.0
35.023556480 2755.0
35.049817046 2657.0
35.076077611 2495.0
35.102338176 2335.0
35.128598742 2179.0
35.154859307 2023.0
35.181119872 1954.0
35.207380438 1961.0
35.233641003 2014.0
35.259901569 1990.0
35.286162134 2026.0
35.312422699 1958.0
35.338683265 1874.0
35.364943830 1882.0
35.391204395 1738.0
35.417464961 1728.0
35.443725526 1747.0
35.469986091 1740.0
35.496246657 1824.0
35.522507222 1767.0
35.548767787 1746.0
35.575028353 1777.0
35.601288918 1837.0
35.627549484 1816.0
35.653810049 1843.0
35.680070614 1771.0
35.706331180 1798.0
35.732591745 1817.0
35.758852310 1778.0
35.785112876 1816.0
35.811373441 1607.0
35.837634006 1698.0
35.863894572 1725.0
35.890155137 1647.0
35.916415702 1645.0
35.942676268 1612.0
35.968936833 1679.0
35.995197398 1639.0
36.021457964 1623.0
36.047718529 1601.0
36.073979095 1608.0
36.100239660 1555.0
36.126500225 1551.0
36.152760791 1643.0
36.179021356 1560.0
36.205281921 1578.0
36.231542487 1531.0
36.257803052 1568.0
36.284063617 1588.0
36.310324183 1502.0
36.336584748 1577.0
36.362845313 1576.0
36.389105879 1497.0
36.415366444 1592.0
36.441627010 1507.0
36.467887575 1443.0
36.494148140 1502.0
36.520408706 1497.0
36.546669271 1438.0
36.572929836 1381.0
36.599190402 1508.0
36.625450967 1474.0
36.651711532 1428.0
36.677972098 1418.0
36.704232663 1392.0
36.730493228 1455.0
36.756753794 1461.0
36.783014359 1453.0
36.809274924 1423.0
36.835535490 1466.0
36.861796055 1396.0
36.888056621 1432.0
36.914317186 1398.0
36.940577751 1327.0
36.966838317 1370.0
36.993098882 1385.0
37.019359447 1331.0
37.045620013 1394.0
37.071880578 1418.0
37.098141143 1412.0
37.124401709 1410.0
37.150662274 1383.0
37.176922839 1378.0
37.203183405 1436.0
37.229443970 1356.0
37.255704535 1384.0
37.281965101 1356.0
37.308225666 1462.0
37.334486232 1377.0
37.360746797 1367.0
37.387007362 1340.0
37.413267928 1388.0
37.439528493 1344.0
37.465789058 1391.0
37.492049624 1390.0
37.518310189 1376.0
37.544570754 1382.0
37.570831320 1431.0
37.597091885 1465.0
37.623352450 1416.0
37.649613016 1501.0
37.675873581 1563.0
37.702134147 1646.0
37.728394712 1786.0
37.754655277 1792.0
37.780915843 1810.0
37.807176408 1716.0
37.833436973 1686.0
37.859697539 1644.0
37.885958104 1552.0
37.912218669 1548.0
37.938479235 1463.0
37.964739800 1404.0
37.991000365 1414.0
38.017260931 1449.0
38.043521496 1399.0
38.069782061 1438.0
38.096042627 1369.0
38.122303192 1456.0
38.148563758 1405.0
38.174824323 1439.0
38.201084888 1509.0
38.227345454 1450.0
38.253606019 1506.0
38.279866584 1474.0
38.306127150 1513.0
38.332387715 1448.0
38.358648280 1355.0
38.384908846 1408.0
38.411169411 1386.0
38.437429976 1418.0
38.463690542 1440.0
38.489951107 1475.0
38.516211673 1433.0
38.542472238 1381.0
38.568732803 1337.0
38.594993369 1506.0
38.621253934 1481.0
38.647514499 1424.0
38.673775065 1366.0
38.700035630 1470.0
38.726296195 1502.0
38.752556761 1678.0
38.778817326 1729.0
38.805077891 1738.0
38.831338457 1710.0
38.857599022 1663.0
38.883859587 1494.0
38.910120153 1513.0
38.936380718 1479.0
38.962641284 1370.0
38.988901849 1348.0
39.015162414 1290.0
39.041422980 1314.0
39.067683545 1303.0
39.093944110 1255.0
39.120204676 1331.0
39.146465241 1315.0
39.172725806 1287.0
39.198986372 1318.0
39.225246937 1348.0
39.251507502 1334.0
39.277768068 1328.0
39.304028633 1379.0
39.330289199 1336.0
39.356549764 1386.0
39.382810329 1648.0
39.409070895 1653.0
39.435331460 1859.0
39.461592025 1931.0
39.487852591 1855.0
39.514113156 1710.0
39.540373721 1586.0
39.566634287 1603.0
39.592894852 1501.0
39.619155417 1345.0
39.645415983 1316.0
39.671676548 1223.0
39.697937113 1284.0
39.724197679 1254.0
39.750458244 1221.0
39.776718810 1258.0
39.802979375 1258.0
39.829239940 1261.0
39.855500506 1197.0
39.881761071 1221.0
39.908021636 1217.0
39.934282202 1236.0
39.960542767 1283.0
39.986803332 1276.0
40.013063898 1316.0
40.039324463 1298.0
40.065585028 1220.0
40.091845594 1367.0
40.118106159 1316.0
40.144366725 1372.0
40.170627290 1408.0
40.196887855 1243.0
40.223148421 1393.0
40.249408986 1341.0
40.275669551 1264.0
40.301930117 1179.0
40.328190682 1191.0
40.354451247 1185.0
40.380711813 1195.0
40.406972378 1196.0
40.433232943 1157.0
40.459493509 1171.0
40.485754074 1117.0
40.512014639 1113.0
40.538275205 1236.0
40.564535770 1286.0
40.590796336 1230.0
40.617056901 1343.0
40.643317466 1359.0
40.669578032 1305.0
40.695838597 1317.0
40.722099162 1250.0
40.748359728 1272.0
40.774620293 1184.0
40.800880858 1243.0
40.827141424 1127.0
40.853401989 1126.0
40.879662554 1144.0
40.905923120 1134.0
40.932183685 1124.0
40.958444251 1085.0
40.984704816 1160.0
41.010965381 1152.0
41.037225947 1124.0
41.063486512 1184.0
41.089747077 1154.0
41.116007643 1105.0
41.142268208 1134.0
41.168528773 1109.0
41.194789339 1137.0
41.221049904 1157.0
41.247310469 1188.0
41.273571035 1192.0
41.299831600 1243.0
41.326092165 1309.0
41.352352731 1341.0
41.378613296 1636.0
41.404873862 1753.0
41.431134427 1778.0
41.457394992 1558.0
41.483655558 1427.0
41.509916123 1425.0
41.536176688 1445.0
41.562437254 1376.0
41.588697819 1139.0
41.614958384 1162.0
41.641218950 1120.0
41.667479515 1062.0
41.693740080 1083.0
41.720000646 987.0
41.746261211 1029.0
41.772521776 1064.0
41.798782342 1042.0
41.825042907 1001.0
41.851303473 1005.0
41.877564038 1101.0
41.903824603 999.0
41.930085169 1081.0
41.956345734 1047.0
41.982606299 1071.0
42.008866865 1051.0
42.035127430 1082.0
42.061387995 1054.0
42.087648561 1144.0
42.113909126 1146.0
42.140169691 1289.0
42.166430257 1296.0
42.192690822 1222.0
42.218951388 1238.0
42.245211953 1175.0
42.271472518 1213.0
42.297733084 1126.0
42.323993649 1093.0
42.350254214 1075.0
42.376514780 1122.0
42.402775345 1051.0
42.429035910 1072.0
42.455296476 1039.0
42.481557041 1100.0
42.507817606 1166.0
42.534078172 1197.0
42.560338737 1276.0
42.586599302 1255.0
42.612859868 1241.0
42.639120433 1166.0
42.665380999 1150.0
42.691641564 1164.0
42.717902129 1115.0
42.744162695 1087.0
42.770423260 1110.0
42.796683825 1079.0
42.822944391 1035.0
42.849204956 1063.0
42.875465521 1081.0
42.901726087 1054.0
42.927986652 1032.0
42.954247217 1091.0
42.980507783 1008.0
43.006768348 1048.0
43.033028914 968.0
43.059289479 1035.0
43.085550044 1049.0
43.111810610 1004.0
43.138071175 955.0
43.164331740 1040.0
43.190592306 1015.0
43.216852871 1056.0
43.243113436 1018.0
43.269374002 1020.0
43.295634567 1000.0
43.321895132 1106.0
43.348155698 1008.0
43.374416263 1056.0
43.400676828 948.0
43.426937394 976.0
43.453197959 1053.0
43.479458525 990.0
43.505719090 1057.0
43.531979655 970.0
43.558240221 1028.0
43.584500786 1011.0
43.610761351 1018.0
43.637021917 1027.0
43.663282482 1150.0
43.689543047 1191.0
43.715803613 1299.0
43.742064178 1409.0
43.768324743 1575.0
43.794585309 1608.0
43.820845874 1669.0
43.847106440 1460.0
43.873367005 1343.0
43.899627570 1471.0
43.925888136 1370.0
43.952148701 1272.0
43.978409266 1214.0
44.004669832 1109.0
44.030930397 1089.0
44.057190962 1124.0
44.083451528 1064.0
44.109712093 1046.0
44.135972658 1071.0
44.162233224 1032.0
44.188493789 989.0
44.214754354 1108.0
44.241014920 1021.0
44.267275485 1147.0
44.293536051 1089.0
44.319796616 1214.0
44.346057181 1164.0
44.372317747 1309.0
44.398578312 1457.0
44.424838877 1369.0
44.451099443 1345.0
44.477360008 1260.0
44.503620573 1326.0
44.529881139 1211.0
44.556141704 1210.0
44.582402269 1136.0
44.608662835 1090.0
44.634923400 1143.0
44.661183966 1044.0
44.687444531 1037.0
44.713705096 1079.0
44.739965662 1106.0
44.766226227 1053.0
44.792486792 1079.0
44.818747358 1060.0
44.845007923 1116.0
44.871268488 1185.0
44.897529054 1211.0
44.923789619 1177.0
44.950050184 1076.0
44.976310750 1204.0
45.002571315 1144.0
45.028831880 1196.0
45.055092446 1210.0
45.081353011 1178.0
45.107613577 1286.0
45.133874142 1417.0
45.160134707 1456.0
45.186395273 1267.0
45.212655838 1351.0
45.238916403 1347.0
45.265176969 1396.0
45.291437534 1386.0
45.317698099 1371.0
45.343958665 1337.0
45.370219230 1309.0
45.396479795 1354.0
45.422740361 1345.0
45.449000926 1329.0
45.475261492 1455.0
45.501522057 1512.0
45.527782622 1456.0
45.554043188 1286.0
45.580303753 1272.0
45.606564318 1230.0
45.632824884 1325.0
45.659085449 1184.0
45.685346014 1150.0
45.711606580 1038.0
45.737867145 1124.0
45.764127710 1105.0
45.790388276 1080.0
45.816648841 1171.0
45.842909406 1140.0
45.869169972 1216.0
45.895430537 1204.0
45.921691103 1073.0
45.947951668 1054.0
45.974212233 1139.0
46.000472799 1128.0
46.026733364 1129.0
46.052993929 1177.0
46.079254495 1084.0
46.105515060 1193.0
46.131775625 1126.0
46.158036191 1180.0
46.184296756 1209.0
46.210557321 1231.0
46.236817887 1284.0
46.263078452 1364.0
46.289339017 1381.0
46.315599583 1305.0
46.341860148 1273.0
46.368120714 1227.0
46.394381279 1199.0
46.420641844 1243.0
46.446902410 1266.0
46.473162975 1156.0
46.499423540 1171.0
46.525684106 1074.0
46.551944671 1136.0
46.578205236 1134.0
46.604465802 1072.0
46.630726367 1046.0
46.656986932 1125.0
46.683247498 1118.0
46.709508063 1082.0
46.735768629 1137.0
46.762029194 1080.0
46.788289759 1152.0
46.814550325 1070.0
46.840810890 1084.0
46.867071455 1055.0
46.893332021 1115.0
46.919592586 1066.0
46.945853151 1142.0
46.972113717 1096.0
46.998374282 1179.0
47.024634847 1200.0
47.050895413 1228.0
47.077155978 1158.0
47.103416543 1116.0
47.129677109 1141.0
47.155937674 1130.0
47.182198240 1086.0
47.208458805 1069.0
47.234719370 1041.0
47.260979936 1067.0
47.287240501 1010.0
47.313501066 1060.0
47.339761632 1063.0
47.366022197 1136.0
47.392282762 1056.0
47.418543328 1016.0
47.444803893 1050.0
47.471064458 1055.0
47.497325024 1032.0
47.523585589 1045.0
47.549846155 1072.0
47.576106720 1089.0
47.602367285 1002.0
47.628627851 1083.0
47.654888416 1056.0
47.681148981 1022.0
47.707409547 1039.0
47.733670112 995.0
47.759930677 961.0
47.786191243 947.0
47.812451808 988.0
47.838712373 979.0
47.864972939 930.0
47.891233504 996.0
47.917494069 937.0
47.943754635 1027.0
47.970015200 1015.0
47.996275766 984.0
48.022536331 1000.0
48.048796896 1020.0
48.075057462 1032.0
48.101318027 1080.0
48.127578592 1111.0
48.153839158 1195.0
48.180099723 1139.0
48.206360288 1113.0
48.232620854 1026.0
48.258881419 1047.0
48.285141984 1075.0
48.311402550 1061.0
48.337663115 1082.0
48.363923681 979.0
48.390184246 996.0
48.416444811 1062.0
48.442705377 1064.0
48.468965942 1069.0
48.495226507 1094.0
48.521487073 1202.0
48.547747638 1175.0
48.574008203 1186.0
48.600268769 1116.0
48.626529334 1132.0
48.652789899 1067.0
48.679050465 1027.0
48.705311030 1016.0
48.731571595 984.0
48.757832161 1029.0
48.784092726 927.0
48.810353292 978.0
48.836613857 951.0
48.862874422 908.0
48.889134988 931.0
48.915395553 901.0
48.941656118 910.0
48.967916684 957.0
48.994177249 945.0
49.020437814 912.0
49.046698380 931.0
49.072958945 932.0
49.099219510 873.0
49.125480076 969.0
49.151740641 916.0
49.178001207 960.0
49.204261772 880.0
49.230522337 924.0
49.256782903 943.0
49.283043468 889.0
49.309304033 918.0
49.335564599 941.0
49.361825164 959.0
49.388085729 903.0
49.414346295 904.0
49.440606860 917.0
49.466867425 934.0
49.493127991 904.0
49.519388556 936.0
49.545649121 907.0
49.571909687 969.0
49.598170252 889.0
49.624430818 933.0
49.650691383 909.0
49.676951948 905.0
49.703212514 945.0
49.729473079 914.0
49.755733644 875.0
49.781994210 889.0
49.808254775 869.0
49.834515340 923.0
49.860775906 892.0
49.887036471 923.0
49.913297036 851.0
49.939557602 871.0
49.965818167 837.0
49.992078733 901.0
50.018339298 881.0
50.044599863 883.0
50.070860429 828.0
50.097120994 854.0
50.123381559 932.0
50.149642125 909.0
50.175902690 964.0
50.202163255 1014.0
50.228423821 1035.0
50.254684386 1167.0
50.280944951 1168.0
50.307205517 1166.0
50.333466082 1043.0
50.359726647 1023.0
50.385987213 986.0
50.412247778 1080.0
50.438508344 962.0
50.464768909 916.0
50.491029474 895.0
50.517290040 869.0
50.543550605 814.0
50.569811170 837.0
50.596071736 898.0
50.622332301 906.0
50.648592866 847.0
50.674853432 825.0
50.701113997 786.0
50.727374562 869.0
50.753635128 849.0
50.779895693 860.0
50.806156258 801.0
50.832416824 835.0
50.858677389 813.0
50.884937955 863.0
50.911198520 819.0
50.937459085 833.0
50.963719651 817.0
50.989980216 874.0
51.016240781 821.0
51.042501347 849.0
51.068761912 895.0
51.095022477 818.0
51.121283043 845.0
51.147543608 822.0
51.173804173 955.0
51.200064739 955.0
51.226325304 955.0
51.252585870 975.0
51.278846435 934.0
51.305107000 931.0
51.331367566 857.0
51.357628131 925.0
51.383888696 941.0
51.410149262 900.0
51.436409827 864.0
51.462670392 778.0
51.488930958 847.0
51.515191523 801.0
51.541452088 826.0
51.567712654 787.0
51.593973219 842.0
51.620233784 848.0
51.646494350 801.0
51.672754915 816.0
51.699015481 846.0
51.725276046 840.0
51.751536611 800.0
51.777797177 827.0
51.804057742 888.0
51.830318307 818.0
51.856578873 867.0
51.882839438 807.0
51.909100003 933.0
51.935360569 838.0
51.961621134 914.0
51.987881699 874.0
52.014142265 851.0
52.040402830 818.0
52.066663396 824.0
52.092923961 849.0
52.119184526 860.0
52.145445092 909.0
52.171705657 901.0
52.197966222 1080.0
52.224226788 1087.0
52.250487353 1087.0
52.276747918 1040.0
52.303008484 1077.0
52.329269049 1134.0
52.355529614 1052.0
52.381790180 997.0
52.408050745 943.0
52.434311310 966.0
52.460571876 911.0
52.486832441 831.0
52.513093007 852.0
52.539353572 783.0
52.565614137 826.0
52.591874703 826.0
52.618135268 795.0
52.644395833 801.0
52.670656399 857.0
52.696916964 815.0
52.723177529 839.0
52.749438095 827.0
52.775698660 876.0
52.801959225 862.0
52.828219791 921.0
52.854480356 872.0
52.880740922 866.0
52.907001487 872.0
52.933262052 837.0
52.959522618 871.0
52.985783183 891.0
53.012043748 808.0
53.038304314 835.0
53.064564879 799.0
53.090825444 820.0
53.117086010 837.0
53.143346575 862.0
53.169607140 812.0
53.195867706 895.0
53.222128271 880.0
53.248388836 881.0
53.274649402 866.0
53.300909967 857.0
53.327170533 804.0
53.353431098 863.0
53.379691663 800.0
53.405952229 824.0
53.432212794 812.0
53.458473359 833.0
53.484733925 876.0
53.510994490 870.0
53.537255055 810.0
53.563515621 795.0
53.589776186 757.0
53.616036751 766.0
53.642297317 769.0
53.668557882 761.0
53.694818448 799.0
53.721079013 728.0
53.747339578 762.0
53.773600144 775.0
53.799860709 810.0
53.826121274 769.0
53.852381840 791.0
53.878642405 745.0
53.904902970 722.0
53.931163536 729.0
53.957424101 729.0
53.983684666 744.0
54.009945232 753.0
54.036205797 759.0
54.062466362 782.0
54.088726928 779.0
54.114987493 851.0
54.141248059 849.0
54.167508624 917.0
54.193769189 867.0
54.220029755 899.0
54.246290320 902.0
54.272550885 834.0
54.298811451 884.0
54.325072016 886.0
54.351332581 926.0
54.377593147 884.0
54.403853712 907.0
54.430114277 841.0
54.456374843 828.0
54.482635408 813.0
54.508895973 781.0
54.535156539 773.0
54.561417104 780.0
54.587677670 736.0
54.613938235 772.0
54.640198800 735.0
54.666459366 733.0
54.692719931 712.0
54.718980496 726.0
54.745241062 741.0
54.771501627 757.0
54.797762192 756.0
54.824022758 762.0
54.850283323 740.0
54.876543888 753.0
54.902804454 689.0
54.929065019 704.0
54.955325585 753.0
54.981586150 699.0
55.007846715 740.0
55.034107281 739.0
55.060367846 712.0
55.086628411 741.0
55.112888977 722.0
55.139149542 664.0
55.165410107 730.0
55.191670673 749.0
55.217931238 726.0
55.244191803 710.0
55.270452369 737.0
55.296712934 727.0
55.322973499 662.0
55.349234065 703.0
55.375494630 738.0
55.401755196 693.0
55.428015761 728.0
55.454276326 735.0
55.480536892 703.0
55.506797457 752.0
55.533058022 756.0
55.559318588 761.0
55.585579153 805.0
55.611839718 779.0
55.638100284 832.0
55.664360849 791.0
55.690621414 774.0
55.716881980 725.0
55.743142545 795.0
55.769403111 819.0
55.795663676 790.0
55.821924241 803.0
55.848184807 753.0
55.874445372 781.0
55.900705937 692.0
55.926966503 701.0
55.953227068 767.0
55.979487633 712.0
56.005748199 726.0
56.032008764 713.0
56.058269329 760.0
56.084529895 803.0
56.110790460 760.0
56.137051025 745.0
56.163311591 763.0
56.189572156 696.0
56.215832722 754.0
56.242093287 679.0
56.268353852 707.0
56.294614418 755.0
56.320874983 687.0
56.347135548 660.0
56.373396114 661.0
56.399656679 710.0
56.425917244 679.0
56.452177810 709.0
56.478438375 696.0
56.504698940 756.0
56.530959506 711.0
56.557220071 722.0
56.583480637 711.0
56.609741202 739.0
56.636001767 717.0
56.662262333 731.0
56.688522898 721.0
56.714783463 695.0
56.741044029 719.0
56.767304594 712.0
56.793565159 763.0
56.819825725 735.0
56.846086290 754.0
56.872346855 747.0
56.898607421 677.0
56.924867986 718.0
56.951128551 728.0
56.977389117 702.0
57.003649682 702.0
57.029910248 704.0
57.056170813 692.0
57.082431378 706.0
57.108691944 722.0
57.134952509 717.0
57.161213074 681.0
57.187473640 669.0
57.213734205 714.0
57.239994770 697.0
57.266255336 712.0
57.292515901 754.0
57.318776466 664.0
57.345037032 724.0
57.371297597 743.0
57.397558163 748.0
57.423818728 666.0
57.450079293 699.0
57.476339859 782.0
57.502600424 708.0
57.528860989 724.0
57.555121555 734.0
57.581382120 789.0
57.607642685 696.0
57.633903251 698.0
57.660163816 699.0
57.686424381 711.0
57.712684947 699.0
57.738945512 723.0
57.765206077 703.0
57.791466643 774.0
57.817727208 723.0
57.843987774 723.0
57.870248339 697.0
57.896508904 693.0
57.922769470 758.0
57.949030035 713.0
57.975290600 749.0
58.001551166 775.0
58.027811731 861.0
58.054072296 914.0
58.080332862 909.0
58.106593427 898.0
58.132853992 874.0
58.159114558 784.0
58.185375123 817.0
58.211635689 866.0
58.237896254 845.0
58.264156819 793.0
58.290417385 775.0
58.316677950 735.0
58.342938515 764.0
58.369199081 716.0
58.395459646 711.0
58.421720211 729.0
58.447980777 702.0
58.474241342 757.0
58.500501907 704.0
58.526762473 723.0
58.553023038 715.0
58.579283603 732.0
58.605544169 743.0
58.631804734 769.0
58.658065300 748.0
58.684325865 716.0
58.710586430 726.0
58.736846996 641.0
58.763107561 708.0
58.789368126 708.0
58.815628692 693.0
58.841889257 685.0
58.868149822 710.0
58.894410388 693.0
58.920670953 708.0
58.946931518 680.0
58.973192084 740.0
58.999452649 699.0
59.025713214 705.0
59.051973780 695.0
59.078234345 729.0
59.104494911 703.0
59.130755476 719.0
59.157016041 726.0
59.183276607 747.0
59.209537172 753.0
59.235797737 780.0
59.262058303 791.0
59.288318868 821.0
59.314579433 839.0
59.340839999 768.0
59.367100564 761.0
59.393361129 774.0
59.419621695 768.0
59.445882260 794.0
59.472142826 807.0
59.498403391 815.0
59.524663956 818.0
59.550924522 757.0
59.577185087 783.0
59.603445652 844.0
59.629706218 812.0
59.655966783 778.0
59.682227348 789.0
59.708487914 807.0
59.734748479 762.0
59.761009044 827.0
59.787269610 838.0
59.813530175 816.0
59.839790740 843.0
59.866051306 841.0
59.892311871 858.0
59.918572437 856.0
59.944833002 864.0
59.971093567 919.0
59.997354133 908.0
60.023614698 882.0
60.049875263 915.0
60.076135829 874.0
60.102396394 933.0
60.128656959 915.0
60.154917525 975.0
60.181178090 986.0
60.207438655 893.0
60.233699221 911.0
60.259959786 987.0
60.286220352 976.0
60.312480917 945.0
60.338741482 927.0
60.365002048 1009.0
60.391262613 950.0
60.417523178 963.0
60.443783744 967.0
60.470044309 1046.0
60.496304874 977.0
60.522565440 1046.0
60.548826005 1019.0
60.575086570 994.0
60.601347136 1058.0
60.627607701 1057.0
60.653868266 1056.0
60.680128832 1115.0
60.706389397 1081.0
60.732649963 1137.0
60.758910528 1246.0
60.785171093 1157.0
60.811431659 1212.0
60.837692224 1202.0
60.863952789 1181.0
60.890213355 1198.0
60.916473920 1212.0
60.942734485 1189.0
60.968995051 1167.0
60.995255616 1171.0
61.021516181 1198.0
61.047776747 1194.0
61.074037312 1114.0
61.100297878 1149.0
61.126558443 1101.0
61.152819008 1129.0
61.179079574 1103.0
61.205340139 1092.0
61.231600704 1120.0
61.257861270 1113.0
61.284121835 1140.0
61.310382400 1068.0
61.336642966 1069.0
61.362903531 1121.0
61.389164096 1104.0
61.415424662 1080.0
61.441685227 1016.0
61.467945792 1126.0
61.494206358 1179.0
61.520466923 1190.0
61.546727489 1135.0
61.572988054 1144.0
61.599248619 1104.0
61.625509185 1055.0
61.651769750 1108.0
61.678030315 1021.0
61.704290881 1108.0
61.730551446 1100.0
61.756812011 1105.0
61.783072577 1085.0
61.809333142 1075.0
61.835593707 1048.0
61.861854273 1022.0
61.888114838 977.0
61.914375404 970.0
61.940635969 1005.0
61.966896534 1000.0
61.993157100 986.0
62.019417665 943.0
62.045678230 998.0
62.071938796 929.0
62.098199361 1011.0
62.124459926 940.0
62.150720492 982.0
62.176981057 967.0
62.203241622 921.0
62.229502188 943.0
62.255762753 915.0
62.282023318 884.0
62.308283884 864.0
62.334544449 862.0
62.360805015 902.0
62.387065580 917.0
62.413326145 889.0
62.439586711 881.0
62.465847276 874.0
62.492107841 851.0
62.518368407 842.0
62.544628972 828.0
62.570889537 850.0
62.597150103 884.0
62.623410668 840.0
62.649671233 878.0
62.675931799 891.0
62.702192364 871.0
62.728452930 870.0
62.754713495 856.0
62.780974060 867.0
62.807234626 880.0
62.833495191 828.0
62.859755756 837.0
62.886016322 844.0
62.912276887 773.0
62.938537452 817.0
62.964798018 777.0
62.991058583 777.0
63.017319148 742.0
63.043579714 703.0
63.069840279 783.0
63.096100844 711.0
63.122361410 714.0
63.148621975 789.0
63.174882541 713.0
63.201143106 764.0
63.227403671 700.0
63.253664237 673.0
63.279924802 707.0
63.306185367 709.0
63.332445933 763.0
63.358706498 709.0
63.384967063 651.0
63.411227629 663.0
63.437488194 714.0
63.463748759 657.0
63.490009325 689.0
63.516269890 665.0
63.542530455 659.0
63.568791021 726.0
63.595051586 713.0
63.621312152 673.0
63.647572717 696.0
63.673833282 718.0
63.700093848 708.0
63.726354413 703.0
63.752614978 699.0
63.778875544 719.0
63.805136109 798.0
63.831396674 726.0
63.857657240 745.0
63.883917805 751.0
63.910178370 722.0
63.936438936 731.0
63.962699501 681.0
63.988960067 839.0
64.015220632 618.0
64.041481197 691.0
64.067741763 683.0
64.094002328 634.0
64.120262893 665.0
64.146523459 665.0
64.172784024 648.0
64.199044589 711.0
64.225305155 697.0
64.251565720 745.0
64.277826285 735.0
64.304086851 681.0
64.330347416 735.0
64.356607981 673.0
64.382868547 687.0
64.409129112 662.0
64.435389678 647.0
64.461650243 698.0
64.487910808 669.0
64.514171374 697.0
64.540431939 640.0
64.566692504 657.0
64.592953070 635.0
64.619213635 708.0
64.645474200 647.0
64.671734766 696.0
64.697995331 613.0
64.724255896 633.0
64.750516462 643.0
64.776777027 582.0
64.803037593 635.0
64.829298158 622.0
64.855558723 641.0
64.881819289 589.0
64.908079854 664.0
64.934340419 651.0
64.960600985 658.0
64.986861550 629.0
