5.007730280 3471.0
5.033990845 3483.0
5.060251411 3458.0
5.086511976 3386.0
5.112772541 3438.0
5.139033107 3379.0
5.165293672 3216.0
5.191554237 3309.0
5.217814803 3369.0
5.244075368 3199.0
5.270335934 3197.0
5.296596499 3229.0
5.322857064 3239.0
5.349117630 3201.0
5.375378195 3314.0
5.401638760 3229.0
5.427899326 3112.0
5.454159891 3240.0
5.480420456 3225.0
5.506681022 3268.0
5.532941587 3227.0
5.559202152 3093.0
5.585462718 3060.0
5.611723283 3188.0
5.637983849 3196.0
5.664244414 3182.0
5.690504979 3251.0
5.716765545 3164.0
5.743026110 3143.0
5.769286675 3165.0
5.795547241 3256.0
5.821807806 3188.0
5.848068371 3233.0
5.874328937 3208.0
5.900589502 3269.0
5.926850067 3183.0
5.953110633 3133.0
5.979371198 3274.0
6.005631763 3197.0
6.031892329 3324.0
6.058152894 3270.0
6.084413460 3326.0
6.110674025 3326.0
6.136934590 3296.0
6.163195156 3326.0
6.189455721 3278.0
6.215716286 3149.0
6.241976852 3287.0
6.268237417 3110.0
6.294497982 3135.0
6.320758548 3038.0
6.347019113 3148.0
6.373279678 3092.0
6.399540244 3046.0
6.425800809 3086.0
6.452061375 3119.0
6.478321940 3090.0
6.504582505 3051.0
6.530843071 3084.0
6.557103636 3063.0
6.583364201 2981.0
6.609624767 3078.0
6.635885332 2891.0
6.662145897 2907.0
6.688406463 2875.0
6.714667028 2915.0
6.740927593 2904.0
6.767188159 3013.0
6.793448724 2933.0
6.819709289 2957.0
6.845969855 2843.0
6.872230420 2939.0
6.898490986 2902.0
6.924751551 2923.0
6.951012116 2807.0
6.977272682 2856.0
7.003533247 2950.0
7.029793812 2919.0
7.056054378 2830.0
7.082314943 2900.0
7.108575508 2902.0
7.134836074 2918.0
7.161096639 2940.0
7.187357204 2884.0
7.213617770 2921.0
7.239878335 2943.0
7.266138900 2916.0
7.292399466 2769.0
7.318660031 2930.0
7.344920597 2898.0
7.371181162 2894.0
7.397441727 2853.0
7.423702293 2926.0
7.449962858 2867.0
7.476223423 2800.0
7.502483989 2801.0
7.528744554 2947.0
7.555005119 2811.0
7.581265685 2838.0
7.607526250 2737.0
7.633786815 2878.0
7.660047381 2794.0
7.686307946 2894.0
7.712568512 2834.0
7.738829077 2752.0
7.765089642 2740.0
7.791350208 2764.0
7.817610773 2803.0
7.843871338 2745.0
7.870131904 2701.0
7.896392469 2702.0
7.922653034 2834.0
7.948913600 2747.0
7.975174165 2806.0
8.001434730 2748.0
8.027695296 2860.0
8.053955861 2716.0
8.080216426 2786.0
8.106476992 2750.0
8.132737557 2767.0
8.158998123 2763.0
8.185258688 2953.0
8.211519253 2886.0
8.237779819 2752.0
8.264040384 2754.0
8.290300949 2750.0
8.316561515 2837.0
8.342822080 2838.0
8.369082645 2888.0
8.395343211 2923.0
8.421603776 2959.0
8.447864341 3027.0
8.474124907 3086.0
8.500385472 3134.0
8.526646038 3239.0
8.552906603 3419.0
8.579167168 3585.0
8.605427734 3364.0
8.631688299 3027.0
8.657948864 2835.0
8.684209430 2748.0
8.710469995 2767.0
8.736730560 2834.0
8.762991126 2683.0
8.789251691 2797.0
8.815512256 2838.0
8.841772822 2749.0
8.868033387 2745.0
8.894293952 2910.0
8.920554518 2829.0
8.946815083 2709.0
8.973075649 2825.0
8.999336214 2926.0
9.025596779 2820.0
9.051857345 2791.0
9.078117910 2785.0
9.104378475 2804.0
9.130639041 2788.0
9.156899606 2876.0
9.183160171 2789.0
9.209420737 2836.0
9.235681302 2812.0
9.261941867 2777.0
9.288202433 2781.0
9.314462998 2860.0
9.340723564 2867.0
9.366984129 2796.0
9.393244694 2853.0
9.419505260 2798.0
9.445765825 2834.0
9.472026390 2783.0
9.498286956 2964.0
9.524547521 2869.0
9.550808086 2839.0
9.577068652 2911.0
9.603329217 2907.0
9.629589782 2908.0
9.655850348 2970.0
9.682110913 2874.0
9.708371478 2893.0
9.734632044 2859.0
9.760892609 2920.0
9.787153175 2998.0
9.813413740 2974.0
9.839674305 2865.0
9.865934871 2959.0
9.892195436 2925.0
9.918456001 2889.0
9.944716567 2963.0
9.970977132 3044.0
9.997237697 2940.0
10.023498263 3011.0
10.049758828 2842.0
10.076019393 3062.0
10.102279959 3034.0
10.128540524 3049.0
10.154801090 2959.0
10.181061655 3001.0
10.207322220 2941.0
10.233582786 3020.0
10.259843351 3036.0
10.286103916 2956.0
10.312364482 3024.0
10.338625047 3059.0
10.364885612 3034.0
10.391146178 3032.0
10.417406743 3028.0
10.443667308 3107.0
10.469927874 3147.0
10.496188439 3065.0
10.522449004 3117.0
10.548709570 3037.0
10.574970135 3110.0
10.601230701 3161.0
10.627491266 3085.0
10.653751831 3121.0
10.680012397 3242.0
10.706272962 3094.0
10.732533527 3107.0
10.758794093 3221.0
10.785054658 3185.0
10.811315223 3209.0
10.837575789 3256.0
10.863836354 3150.0
10.890096919 3175.0
10.916357485 3216.0
10.942618050 3139.0
10.968878616 3198.0
10.995139181 3239.0
11.021399746 3216.0
11.047660312 3137.0
11.073920877 3269.0
11.100181442 3120.0
11.126442008 3163.0
11.152702573 3133.0
11.178963138 3255.0
11.205223704 3214.0
11.231484269 3233.0
11.257744834 3190.0
11.284005400 3265.0
11.310265965 3141.0
11.336526530 3182.0
11.362787096 3169.0
11.389047661 3262.0
11.415308227 3183.0
11.441568792 3173.0
11.467829357 3134.0
11.494089923 3152.0
11.520350488 3248.0
11.546611053 3206.0
11.572871619 3073.0
11.599132184 3138.0
11.625392749 3152.0
11.651653315 3194.0
11.677913880 3224.0
11.704174445 3148.0
11.730435011 3068.0
11.756695576 3107.0
11.782956141 3178.0
11.809216707 3124.0
11.835477272 3024.0
11.861737838 3160.0
11.887998403 3024.0
11.914258968 3070.0
11.940519534 2973.0
11.966780099 2942.0
11.993040664 2875.0
12.019301230 3014.0
12.045561795 2955.0
12.071822360 2904.0
12.098082926 2932.0
12.124343491 2838.0
12.150604056 2959.0
12.176864622 2924.0
12.203125187 2821.0
12.229385753 2725.0
12.255646318 2784.0
12.281906883 2728.0
12.308167449 2796.0
12.334428014 2825.0
12.360688579 2775.0
12.386949145 2692.0
12.413209710 2760.0
12.439470275 2766.0
12.465730841 2785.0
12.491991406 2727.0
12.518251971 2759.0
12.544512537 2655.0
12.570773102 2719.0
12.597033667 2617.0
12.623294233 2770.0
12.649554798 2803.0
12.675815364 2845.0
12.702075929 2844.0
12.728336494 2796.0
12.754597060 2706.0
12.780857625 2635.0
12.807118190 2501.0
12.833378756 2455.0
12.859639321 2490.0
12.885899886 2477.0
12.912160452 2512.0
12.938421017 2337.0
12.964681582 2470.0
12.990942148 2441.0
13.017202713 2344.0
13.043463279 2374.0
13.069723844 2325.0
13.095984409 2390.0
13.122244975 2273.0
13.148505540 2327.0
13.174766105 2278.0
13.201026671 2265.0
13.227287236 2269.0
13.253547801 2303.0
13.279808367 2345.0
13.306068932 2321.0
13.332329497 2348.0
13.358590063 2347.0
13.384850628 2280.0
13.411111193 2306.0
13.437371759 2405.0
13.463632324 2485.0
13.489892890 2595.0
13.516153455 2616.0
13.542414020 2405.0
13.568674586 2261.0
13.594935151 2253.0
13.621195716 2225.0
13.647456282 2125.0
13.673716847 2226.0
13.699977412 2155.0
13.726237978 2171.0
13.752498543 2218.0
13.778759108 2240.0
13.805019674 2236.0
13.831280239 2320.0
13.857540805 2261.0
13.883801370 2212.0
13.910061935 2279.0
13.936322501 2179.0
13.962583066 2130.0
13.988843631 2115.0
14.015104197 2147.0
14.041364762 2109.0
14.067625327 1998.0
14.093885893 2028.0
14.120146458 2083.0
14.146407023 2229.0
14.172667589 2243.0
14.198928154 2221.0
14.225188719 2381.0
14.251449285 2598.0
14.277709850 2616.0
14.303970416 2431.0
14.330230981 2188.0
14.356491546 2021.0
14.382752112 2020.0
14.409012677 1915.0
14.435273242 1875.0
14.461533808 1899.0
14.487794373 1872.0
14.514054938 1897.0
14.540315504 1873.0
14.566576069 1879.0
14.592836634 1931.0
14.619097200 1877.0
14.645357765 1848.0
14.671618331 1844.0
14.697878896 1823.0
14.724139461 1919.0
14.750400027 1855.0
14.776660592 1854.0
14.802921157 1898.0
14.829181723 1970.0
14.855442288 1998.0
14.881702853 1951.0
14.907963419 1953.0
14.934223984 1878.0
14.960484549 1939.0
14.986745115 1883.0
15.013005680 1940.0
15.039266245 1904.0
15.065526811 1854.0
15.091787376 1895.0
15.118047942 1994.0
15.144308507 2008.0
15.170569072 2154.0
15.196829638 2172.0
15.223090203 2273.0
15.249350768 2488.0
15.275611334 2683.0
15.301871899 2644.0
15.328132464 2564.0
15.354393030 2393.0
15.380653595 2300.0
15.406914160 2088.0
15.433174726 2114.0
15.459435291 2156.0
15.485695857 2013.0
15.511956422 1937.0
15.538216987 1902.0
15.564477553 1845.0
15.590738118 1842.0
15.616998683 1828.0
15.643259249 1813.0
15.669519814 1758.0
15.695780379 1716.0
15.722040945 1795.0
15.748301510 1710.0
15.774562075 1758.0
15.800822641 1736.0
15.827083206 1622.0
15.853343771 1745.0
15.879604337 1659.0
15.905864902 1655.0
15.932125468 1708.0
15.958386033 1744.0
15.984646598 1684.0
16.010907164 1672.0
16.037167729 1627.0
16.063428294 1706.0
16.089688860 1622.0
16.115949425 1638.0
16.142209990 1682.0
16.168470556 1582.0
16.194731121 1651.0
16.220991686 1659.0
16.247252252 1742.0
16.273512817 1753.0
16.299773382 1773.0
16.326033948 1670.0
16.352294513 1962.0
16.378555079 1982.0
16.404815644 1918.0
16.431076209 1858.0
16.457336775 1631.0
16.483597340 1689.0
16.509857905 1644.0
16.536118471 1663.0
16.562379036 1615.0
16.588639601 1615.0
16.614900167 1610.0
16.641160732 1583.0
16.667421297 1591.0
16.693681863 1574.0
16.719942428 1615.0
16.746202994 1669.0
16.772463559 1631.0
16.798724124 1616.0
16.824984690 1646.0
16.851245255 1592.0
16.877505820 1620.0
16.903766386 1687.0
16.930026951 1636.0
16.956287516 1617.0
16.982548082 1607.0
17.008808647 1595.0
17.035069212 1515.0
17.061329778 1533.0
17.087590343 1567.0
17.113850908 1600.0
17.140111474 1600.0
17.166372039 1572.0
17.192632605 1558.0
17.218893170 1635.0
17.245153735 1548.0
17.271414301 1592.0
17.297674866 1646.0
17.323935431 1663.0
17.350195997 1699.0
17.376456562 1769.0
17.402717127 1636.0
17.428977693 1665.0
17.455238258 1674.0
17.481498823 1623.0
17.507759389 1534.0
17.534019954 1498.0
17.560280520 1488.0
17.586541085 1547.0
17.612801650 1607.0
17.639062216 1530.0
17.665322781 1551.0
17.691583346 1558.0
17.717843912 1502.0
17.744104477 1572.0
17.770365042 1481.0
17.796625608 1631.0
17.822886173 1555.0
17.849146738 1532.0
17.875407304 1515.0
17.901667869 1593.0
17.927928434 1593.0
17.954189000 1585.0
17.980449565 1570.0
18.006710131 1556.0
18.032970696 1562.0
18.059231261 1649.0
18.085491827 1517.0
18.111752392 1465.0
18.138012957 1602.0
18.164273523 1570.0
18.190534088 1524.0
18.216794653 1656.0
18.243055219 1663.0
18.269315784 1705.0
18.295576349 1728.0
18.321836915 1733.0
18.348097480 1625.0
18.374358046 1591.0
18.400618611 1693.0
18.426879176 1600.0
18.453139742 1682.0
18.479400307 1648.0
18.505660872 1548.0
18.531921438 1614.0
18.558182003 1602.0
18.584442568 1630.0
18.610703134 1573.0
18.636963699 1562.0
18.663224264 1614.0
18.689484830 1628.0
18.715745395 1685.0
18.742005960 1536.0
18.768266526 1614.0
18.794527091 1553.0
18.820787657 1626.0
18.847048222 1554.0
18.873308787 1517.0
18.899569353 1641.0
18.925829918 1616.0
18.952090483 1658.0
18.978351049 1744.0
19.004611614 1687.0
19.030872179 1676.0
19.057132745 1691.0
19.083393310 1814.0
19.109653875 1808.0
19.135914441 1727.0
19.162175006 1700.0
19.188435572 1634.0
19.214696137 1649.0
19.240956702 1718.0
19.267217268 1630.0
19.293477833 1675.0
19.319738398 1684.0
19.345998964 1759.0
19.372259529 1828.0
19.398520094 1845.0
19.424780660 1958.0
19.451041225 1934.0
19.477301790 1871.0
19.503562356 1810.0
19.529822921 1675.0
19.556083486 1690.0
19.582344052 1687.0
19.608604617 1691.0
19.634865183 1729.0
19.661125748 1755.0
19.687386313 1868.0
19.713646879 1995.0
19.739907444 1994.0
19.766168009 2179.0
19.792428575 2111.0
19.818689140 2138.0
19.844949705 2155.0
19.871210271 2263.0
19.897470836 2548.0
19.923731401 2726.0
19.949991967 3083.0
19.976252532 3155.0
20.002513098 2806.0
20.028773663 2624.0
20.055034228 2211.0
20.081294794 1994.0
20.107555359 1865.0
20.133815924 1861.0
20.160076490 1770.0
20.186337055 1859.0
20.212597620 1779.0
20.238858186 1836.0
20.265118751 1856.0
20.291379316 1899.0
20.317639882 1963.0
20.343900447 1937.0
20.370161012 2078.0
20.396421578 2279.0
20.422682143 2701.0
20.448942709 2899.0
20.475203274 2566.0
20.501463839 2626.0
20.527724405 2625.0
20.553984970 2749.0
20.580245535 2911.0
20.606506101 3150.0
20.632766666 3411.0
20.659027231 3914.0
20.685287797 4745.0
20.711548362 5019.0
20.737808927 4512.0
20.764069493 3725.0
20.790330058 2917.0
20.816590623 2372.0
20.842851189 2071.0
20.869111754 1969.0
20.895372320 1863.0
20.921632885 1792.0
20.947893450 1789.0
20.974154016 1823.0
21.000414581 1811.0
21.026675146 1869.0
21.052935712 1812.0
21.079196277 1849.0
21.105456842 1888.0
21.131717408 1845.0
21.157977973 1825.0
21.184238538 1792.0
21.210499104 1844.0
21.236759669 1837.0
21.263020235 1754.0
21.289280800 1778.0
21.315541365 1777.0
21.341801931 1856.0
21.368062496 1836.0
21.394323061 1808.0
21.420583627 1701.0
21.446844192 1850.0
21.473104757 1759.0
21.499365323 1721.0
21.525625888 1826.0
21.551886453 1749.0
21.578147019 1845.0
21.604407584 1791.0
21.630668149 1810.0
21.656928715 1777.0
21.683189280 1835.0
21.709449846 1924.0
21.735710411 1851.0
21.761970976 1892.0
21.788231542 1827.0
21.814492107 1830.0
21.840752672 1922.0
21.867013238 1922.0
21.893273803 1912.0
21.919534368 1943.0
21.945794934 2036.0
21.972055499 2003.0
21.998316064 2040.0
22.024576630 1980.0
22.050837195 2139.0
22.077097761 2075.0
22.103358326 2220.0
22.129618891 2247.0
22.155879457 2325.0
22.182140022 2330.0
22.208400587 2323.0
22.234661153 2260.0
22.260921718 2232.0
22.287182283 2049.0
22.313442849 1997.0
22.339703414 2024.0
22.365963979 2007.0
22.392224545 1947.0
22.418485110 2060.0
22.444745675 1992.0
22.471006241 2006.0
22.497266806 2067.0
22.523527372 1979.0
22.549787937 2016.0
22.576048502 2020.0
22.602309068 2055.0
22.628569633 2022.0
22.654830198 1974.0
22.681090764 1987.0
22.707351329 2082.0
22.733611894 2081.0
22.759872460 2073.0
22.786133025 2207.0
22.812393590 2234.0
22.838654156 2205.0
22.864914721 2202.0
22.891175287 2166.0
22.917435852 2247.0
22.943696417 2185.0
22.969956983 2187.0
22.996217548 2153.0
23.022478113 2082.0
23.048738679 2151.0
23.074999244 2010.0
23.101259809 2114.0
23.127520375 2073.0
23.153780940 2089.0
23.180041505 2049.0
23.206302071 2183.0
23.232562636 2130.0
23.258823201 2122.0
23.285083767 2127.0
23.311344332 2098.0
23.337604898 2086.0
23.363865463 2096.0
23.390126028 2202.0
23.416386594 2222.0
23.442647159 2172.0
23.468907724 2221.0
23.495168290 2211.0
23.521428855 2584.0
23.547689420 3192.0
23.573949986 2533.0
23.600210551 2602.0
23.626471116 2459.0
23.652731682 2100.0
23.678992247 1986.0
23.705252813 1953.0
23.731513378 2186.0
23.757773943 1926.0
23.784034509 2009.0
23.810295074 2087.0
23.836555639 1939.0
23.862816205 1962.0
23.889076770 1879.0
23.915337335 1922.0
23.941597901 1947.0
23.967858466 1994.0
23.994119031 1953.0
24.020379597 1962.0
24.046640162 1950.0
24.072900727 1962.0
24.099161293 2049.0
24.125421858 2143.0
24.151682424 2159.0
24.177942989 2259.0
24.204203554 2224.0
24.230464120 2204.0
24.256724685 2167.0
24.282985250 2124.0
24.309245816 2096.0
24.335506381 2005.0
24.361766946 1891.0
24.388027512 1755.0
24.414288077 1746.0
24.440548642 1883.0
24.466809208 1835.0
24.493069773 1791.0
24.519330338 1854.0
24.545590904 1862.0
24.571851469 1966.0
24.598112035 1907.0
24.624372600 1852.0
24.650633165 1876.0
24.676893731 1773.0
24.703154296 1736.0
24.729414861 1736.0
24.755675427 1756.0
24.781935992 1780.0
24.808196557 1757.0
24.834457123 1836.0
24.860717688 1741.0
24.886978253 1728.0
24.913238819 1868.0
24.939499384 1700.0
24.965759950 1735.0
24.992020515 1737.0
25.018281080 1781.0
25.044541646 1735.0
25.070802211 1777.0
25.097062776 1746.0
25.123323342 1792.0
25.149583907 1783.0
25.175844472 1884.0
25.202105038 1816.0
25.228365603 1762.0
25.254626168 1907.0
25.280886734 1898.0
25.307147299 1936.0
25.333407864 1995.0
25.359668430 2170.0
25.385928995 2313.0
25.412189561 2402.0
25.438450126 2466.0
25.464710691 2457.0
25.490971257 2273.0
25.517231822 2140.0
25.543492387 1997.0
25.569752953 1905.0
25.596013518 1874.0
25.622274083 1685.0
25.648534649 1808.0
25.674795214 1744.0
25.701055779 1757.0
25.727316345 1694.0
25.753576910 1699.0
25.779837476 1748.0
25.806098041 1868.0
25.832358606 1827.0
25.858619172 1887.0
25.884879737 1921.0
25.911140302 2075.0
25.937400868 1976.0
25.963661433 2007.0
25.989921998 1912.0
26.016182564 1978.0
26.042443129 1820.0
26.068703694 1755.0
26.094964260 1826.0
26.121224825 1796.0
26.147485390 1756.0
26.173745956 1759.0
26.200006521 1751.0
26.226267087 1771.0
26.252527652 1823.0
26.278788217 1865.0
26.305048783 1866.0
26.331309348 1911.0
26.357569913 1877.0
26.383830479 1972.0
26.410091044 1955.0
26.436351609 2017.0
26.462612175 1993.0
26.488872740 2065.0
26.515133305 1952.0
26.541393871 1921.0
26.567654436 1926.0
26.593915002 1842.0
26.620175567 1887.0
26.646436132 1890.0
26.672696698 1955.0
26.698957263 1908.0
26.725217828 2006.0
26.751478394 2056.0
26.777738959 2170.0
26.803999524 2431.0
26.830260090 2334.0
26.856520655 2311.0
26.882781220 2185.0
26.909041786 2246.0
26.935302351 2139.0
26.961562916 2035.0
26.987823482 1999.0
27.014084047 1965.0
27.040344613 2022.0
27.066605178 2052.0
27.092865743 2115.0
27.119126309 2294.0
27.145386874 2445.0
27.171647439 2504.0
27.197908005 2717.0
27.224168570 2532.0
27.250429135 2492.0
27.276689701 2286.0
27.302950266 2215.0
27.329210831 2018.0
27.355471397 2052.0
27.381731962 1974.0
27.407992528 1883.0
27.434253093 2041.0
27.460513658 1902.0
27.486774224 1888.0
27.513034789 1847.0
27.539295354 1939.0
27.565555920 1917.0
27.591816485 1971.0
27.618077050 1979.0
27.644337616 1976.0
27.670598181 1981.0
27.696858746 2063.0
27.723119312 2116.0
27.749379877 2023.0
27.775640442 2048.0
27.801901008 2054.0
27.828161573 1897.0
27.854422139 1889.0
27.880682704 1922.0
27.906943269 1897.0
27.933203835 1855.0
27.959464400 1929.0
27.985724965 2075.0
28.011985531 2031.0
28.038246096 2011.0
28.064506661 1964.0
28.090767227 2041.0
28.117027792 2162.0
28.143288357 2097.0
28.169548923 2110.0
28.195809488 2028.0
28.222070054 2050.0
28.248330619 2132.0
28.274591184 2135.0
28.300851750 2193.0
28.327112315 2083.0
28.353372880 1998.0
28.379633446 1979.0
28.405894011 1998.0
28.432154576 1957.0
28.458415142 2013.0
28.484675707 1987.0
28.510936272 1934.0
28.537196838 1970.0
28.563457403 2037.0
28.589717968 1944.0
28.615978534 1976.0
28.642239099 2036.0
28.668499665 2033.0
28.694760230 2047.0
28.721020795 2136.0
28.747281361 2116.0
28.773541926 2176.0
28.799802491 2081.0
28.826063057 2083.0
28.852323622 2048.0
28.878584187 2014.0
28.904844753 2035.0
28.931105318 2070.0
28.957365883 2090.0
28.983626449 2096.0
29.009887014 2127.0
29.036147579 2249.0
29.062408145 2209.0
29.088668710 2318.0
29.114929276 2286.0
29.141189841 2247.0
29.167450406 2245.0
29.193710972 2146.0
29.219971537 2047.0
29.246232102 2055.0
29.272492668 2045.0
29.298753233 2017.0
29.325013798 2035.0
29.351274364 2093.0
29.377534929 2159.0
29.403795494 2179.0
29.430056060 2204.0
29.456316625 2183.0
29.482577191 2149.0
29.508837756 2144.0
29.535098321 2130.0
29.561358887 2132.0
29.587619452 2062.0
29.613880017 2051.0
29.640140583 2085.0
29.666401148 1999.0
29.692661713 2026.0
29.718922279 2032.0
29.745182844 1959.0
29.771443409 1952.0
29.797703975 1981.0
29.823964540 2038.0
29.850225105 2096.0
29.876485671 1971.0
29.902746236 2031.0
29.929006802 2050.0
29.955267367 2053.0
29.981527932 2077.0
30.007788498 2127.0
30.034049063 2073.0
30.060309628 2008.0
30.086570194 2064.0
30.112830759 2052.0
30.139091324 2032.0
30.165351890 2018.0
30.191612455 2118.0
30.217873020 2026.0
30.244133586 2082.0
30.270394151 2086.0
30.296654717 2116.0
30.322915282 2026.0
30.349175847 2100.0
30.375436413 1979.0
30.401696978 2042.0
30.427957543 2153.0
30.454218109 2136.0
30.480478674 2316.0
30.506739239 2131.0
30.532999805 2125.0
30.559260370 2205.0
30.585520935 2173.0
30.611781501 2339.0
30.638042066 2330.0
30.664302631 2384.0
30.690563197 2385.0
30.716823762 2354.0
30.743084328 2377.0
30.769344893 2434.0
30.795605458 2456.0
30.821866024 2502.0
30.848126589 2527.0
30.874387154 2472.0
30.900647720 2333.0
30.926908285 2376.0
30.953168850 2290.0
30.979429416 2141.0
31.005689981 2217.0
31.031950546 2225.0
31.058211112 2305.0
31.084471677 2399.0
31.110732243 2606.0
31.136992808 2927.0
31.163253373 3060.0
31.189513939 3293.0
31.215774504 3354.0
31.242035069 3281.0
31.268295635 3131.0
31.294556200 2842.0
31.320816765 2676.0
31.347077331 2430.0
31.373337896 2364.0
31.399598461 2314.0
31.425859027 2311.0
31.452119592 2445.0
31.478380157 2434.0
31.504640723 2492.0
31.530901288 2466.0
31.557161854 2382.0
31.583422419 2413.0
31.609682984 2278.0
31.635943550 2214.0
31.662204115 2138.0
31.688464680 2092.0
31.714725246 2212.0
31.740985811 2113.0
31.767246376 2059.0
31.793506942 2138.0
31.819767507 2072.0
31.846028072 2080.0
31.872288638 2143.0
31.898549203 2224.0
31.924809769 2609.0
31.951070334 2848.0
31.977330899 3338.0
32.003591465 3926.0
32.029852030 4598.0
32.056112595 4880.0
32.082373161 4594.0
32.108633726 4139.0
32.134894291 3631.0
32.161154857 3248.0
32.187415422 2662.0
32.213675987 2302.0
32.239936553 2199.0
32.266197118 1945.0
32.292457683 1888.0
32.318718249 1868.0
32.344978814 1968.0
32.371239380 1902.0
32.397499945 1856.0
32.423760510 1811.0
32.450021076 1843.0
32.476281641 1809.0
32.502542206 1825.0
32.528802772 1840.0
32.555063337 1810.0
32.581323902 1852.0
32.607584468 1816.0
32.633845033 1730.0
32.660105598 1869.0
32.686366164 1785.0
32.712626729 1792.0
32.738887295 1714.0
32.765147860 1757.0
32.791408425 1698.0
32.817668991 1747.0
32.843929556 1727.0
32.870190121 1719.0
32.896450687 1824.0
32.922711252 1969.0
32.948971817 1965.0
32.975232383 2013.0
33.001492948 2130.0
33.027753513 2256.0
33.054014079 2356.0
33.080274644 2332.0
33.106535209 2331.0
33.132795775 2425.0
33.159056340 2272.0
33.185316906 2232.0
33.211577471 2208.0
33.237838036 2211.0
33.264098602 2107.0
33.290359167 1944.0
33.316619732 2000.0
33.342880298 1873.0
33.369140863 1961.0
33.395401428 2049.0
33.421661994 2068.0
33.447922559 2282.0
33.474183124 2373.0
33.500443690 2007.0
33.526704255 1974.0
33.552964820 2010.0
33.579225386 1891.0
33.605485951 1726.0
33.631746517 1727.0
33.658007082 1679.0
33.684267647 1763.0
33.710528213 1766.0
33.736788778 1695.0
33.763049343 1724.0
33.789309909 1808.0
33.815570474 1922.0
33.841831039 1954.0
33.868091605 2144.0
33.894352170 2263.0
33.920612735 2384.0
33.946873301 2632.0
33.973133866 2763.0
33.999394432 2711.0
34.025654997 2469.0
34.051915562 2399.0
34.078176128 2275.0
34.104436693 2083.0
34.130697258 2052.0
34.156957824 1961.0
34.183218389 1994.0
34.209478954 2037.0
34.235739520 1966.0
34.262000085 2075.0
34.288260650 2185.0
34.314521216 2240.0
34.340781781 2414.0
34.367042346 2501.0
34.393302912 2527.0
34.419563477 2592.0
34.445824043 2556.0
34.472084608 2628.0
34.498345173 2545.0
34.524605739 2368.0
34.550866304 2303.0
34.577126869 2305.0
34.603387435 2313.0
34.629648000 2396.0
34.655908565 2317.0
34.682169131 2248.0
34.708429696 2338.0
34.734690261 2408.0
34.760950827 2490.0
34.787211392 2578.0
34.813471958 2572.0
34.839732523 2827.0
34.865993088 2774.0
34.892253654 2900.0
34.918514219 3019.0
34.944774784 2928.0
34.971035350 2882.0
34.997295915 2723.0
35.023556480 2678.0
35.049817046 2455.0
35.076077611 2260.0
35.102338176 2241.0
35.128598742 2149.0
35.154859307 2172.0
35.181119872 2084.0
35.207380438 2175.0
35.233641003 2129.0
35.259901569 2004.0
35.286162134 1918.0
35.312422699 1902.0
35.338683265 1912.0
35.364943830 1908.0
35.391204395 1868.0
35.417464961 1809.0
35.443725526 1789.0
35.469986091 1797.0
35.496246657 1818.0
35.522507222 1761.0
35.548767787 1841.0
35.575028353 1790.0
35.601288918 1712.0
35.627549484 1759.0
35.653810049 1805.0
35.680070614 1867.0
35.706331180 1801.0
35.732591745 1741.0
35.758852310 1634.0
35.785112876 1717.0
35.811373441 1723.0
35.837634006 1706.0
35.863894572 1657.0
35.890155137 1689.0
35.916415702 1656.0
35.942676268 1743.0
35.968936833 1760.0
35.995197398 1671.0
36.021457964 1654.0
36.047718529 1744.0
36.073979095 1668.0
36.100239660 1563.0
36.126500225 1616.0
36.152760791 1619.0
36.179021356 1641.0
36.205281921 1544.0
36.231542487 1540.0
36.257803052 1574.0
36.284063617 1539.0
36.310324183 1615.0
36.336584748 1660.0
36.362845313 1637.0
36.389105879 1583.0
36.415366444 1621.0
36.441627010 1685.0
36.467887575 1628.0
36.494148140 1613.0
36.520408706 1597.0
36.546669271 1549.0
36.572929836 1606.0
36.599190402 1518.0
36.625450967 1537.0
36.651711532 1509.0
36.677972098 1522.0
36.704232663 1543.0
36.730493228 1479.0
36.756753794 1549.0
36.783014359 1540.0
36.809274924 1518.0
36.835535490 1454.0
36.861796055 1506.0
36.888056621 1428.0
36.914317186 1503.0
36.940577751 1458.0
36.966838317 1431.0
36.993098882 1491.0
37.019359447 1486.0
37.045620013 1423.0
37.071880578 1455.0
37.098141143 1480.0
37.124401709 1434.0
37.150662274 1520.0
37.176922839 1550.0
37.203183405 1561.0
37.229443970 1594.0
37.255704535 1413.0
37.281965101 1495.0
37.308225666 1517.0
37.334486232 1475.0
37.360746797 1479.0
37.387007362 1457.0
37.413267928 1430.0
37.439528493 1440.0
37.465789058 1442.0
37.492049624 1482.0
37.518310189 1535.0
37.544570754 1533.0
37.570831320 1534.0
37.597091885 1537.0
37.623352450 1600.0
37.649613016 1621.0
37.675873581 1732.0
37.702134147 1731.0
37.728394712 1919.0
37.754655277 1851.0
37.780915843 1773.0
37.807176408 1855.0
37.833436973 1875.0
37.859697539 1836.0
37.885958104 1751.0
37.912218669 1708.0
37.938479235 1656.0
37.964739800 1604.0
37.991000365 1503.0
38.017260931 1542.0
38.043521496 1554.0
38.069782061 1561.0
38.096042627 1525.0
38.122303192 1478.0
38.148563758 1642.0
38.174824323 1609.0
38.201084888 1586.0
38.227345454 1501.0
38.253606019 1599.0
38.279866584 1617.0
38.306127150 1454.0
38.332387715 1525.0
38.358648280 1486.0
38.384908846 1508.0
38.411169411 1467.0
38.437429976 1474.0
38.463690542 1459.0
38.489951107 1545.0
38.516211673 1574.0
38.542472238 1525.0
38.568732803 1637.0
38.594993369 1634.0
38.621253934 1562.0
38.647514499 1619.0
38.673775065 1606.0
38.700035630 1696.0
38.726296195 1624.0
38.752556761 1750.0
38.778817326 1701.0
38.805077891 1667.0
38.831338457 1586.0
38.857599022 1573.0
38.883859587 1603.0
38.910120153 1417.0
38.936380718 1404.0
38.962641284 1375.0
38.988901849 1368.0
39.015162414 1404.0
39.041422980 1355.0
39.067683545 1320.0
39.093944110 1347.0
39.120204676 1363.0
39.146465241 1339.0
39.172725806 1443.0
39.198986372 1412.0
39.225246937 1443.0
39.251507502 1409.0
39.277768068 1408.0
39.304028633 1480.0
39.330289199 1480.0
39.356549764 1601.0
39.382810329 1668.0
39.409070895 1649.0
39.435331460 1792.0
39.461592025 1690.0
39.487852591 1649.0
39.514113156 1607.0
39.540373721 1522.0
39.566634287 1529.0
39.592894852 1455.0
39.619155417 1390.0
39.645415983 1482.0
39.671676548 1471.0
39.697937113 1414.0
39.724197679 1379.0
39.750458244 1395.0
39.776718810 1342.0
39.802979375 1321.0
39.829239940 1352.0
39.855500506 1280.0
39.881761071 1383.0
39.908021636 1382.0
39.934282202 1358.0
39.960542767 1423.0
39.986803332 1359.0
40.013063898 1380.0
40.039324463 1411.0
40.065585028 1361.0
40.091845594 1389.0
40.118106159 1439.0
40.144366725 1498.0
40.170627290 1396.0
40.196887855 1372.0
40.223148421 1393.0
40.249408986 1363.0
40.275669551 1259.0
40.301930117 1272.0
40.328190682 1301.0
40.354451247 1224.0
40.380711813 1261.0
40.406972378 1253.0
40.433232943 1287.0
40.459493509 1251.0
40.485754074 1355.0
40.512014639 1269.0
40.538275205 1288.0
40.564535770 1358.0
40.590796336 1382.0
40.617056901 1360.0
40.643317466 1428.0
40.669578032 1355.0
40.695838597 1314.0
40.722099162 1304.0
40.748359728 1264.0
40.774620293 1283.0
40.800880858 1253.0
40.827141424 1305.0
40.853401989 1219.0
40.879662554 1191.0
40.905923120 1238.0
40.932183685 1239.0
40.958444251 1276.0
40.984704816 1212.0
41.010965381 1252.0
41.037225947 1319.0
41.063486512 1262.0
41.089747077 1188.0
41.116007643 1190.0
41.142268208 1282.0
41.168528773 1298.0
41.194789339 1262.0
41.221049904 1311.0
41.247310469 1357.0
41.273571035 1396.0
41.299831600 1373.0
41.326092165 1484.0
41.352352731 1602.0
41.378613296 1694.0
41.404873862 1618.0
41.431134427 1524.0
41.457394992 1569.0
41.483655558 1521.0
41.509916123 1442.0
41.536176688 1365.0
41.562437254 1356.0
41.588697819 1307.0
41.614958384 1261.0
41.641218950 1276.0
41.667479515 1267.0
41.693740080 1210.0
41.720000646 1179.0
41.746261211 1188.0
41.772521776 1153.0
41.798782342 1168.0
41.825042907 1209.0
41.851303473 1150.0
41.877564038 1086.0
41.903824603 1129.0
41.930085169 1219.0
41.956345734 1085.0
41.982606299 1074.0
42.008866865 1131.0
42.035127430 1162.0
42.061387995 1168.0
42.087648561 1192.0
42.113909126 1195.0
42.140169691 1353.0
42.166430257 1411.0
42.192690822 1234.0
42.218951388 1151.0
42.245211953 1270.0
42.271472518 1261.0
42.297733084 1320.0
42.323993649 1333.0
42.350254214 1199.0
42.376514780 1136.0
42.402775345 1181.0
42.429035910 1246.0
42.455296476 1209.0
42.481557041 1258.0
42.507817606 1234.0
42.534078172 1211.0
42.560338737 1277.0
42.586599302 1298.0
42.612859868 1237.0
42.639120433 1264.0
42.665380999 1221.0
42.691641564 1157.0
42.717902129 1163.0
42.744162695 1180.0
42.770423260 1142.0
42.796683825 1218.0
42.822944391 1142.0
42.849204956 1243.0
42.875465521 1176.0
42.901726087 1251.0
42.927986652 1216.0
42.954247217 1251.0
42.980507783 1135.0
43.006768348 1198.0
43.033028914 1178.0
43.059289479 1208.0
43.085550044 1130.0
43.111810610 1129.0
43.138071175 1142.0
43.164331740 1137.0
43.190592306 1109.0
43.216852871 1076.0
43.243113436 1006.0
43.269374002 1041.0
43.295634567 1004.0
43.321895132 1075.0
43.348155698 1044.0
43.374416263 1076.0
43.400676828 1022.0
43.426937394 1077.0
43.453197959 1080.0
43.479458525 1053.0
43.505719090 1043.0
43.531979655 1119.0
43.558240221 1044.0
43.584500786 1066.0
43.610761351 1182.0
43.637021917 1185.0
43.663282482 1215.0
43.689543047 1295.0
43.715803613 1362.0
43.742064178 1476.0
43.768324743 1510.0
43.794585309 1478.0
43.820845874 1436.0
43.847106440 1380.0
43.873367005 1436.0
43.899627570 1311.0
43.925888136 1292.0
43.952148701 1208.0
43.978409266 1188.0
44.004669832 1189.0
44.030930397 1184.0
44.057190962 1091.0
44.083451528 1078.0
44.109712093 1120.0
44.135972658 1081.0
44.162233224 1099.0
44.188493789 1122.0
44.214754354 1136.0
44.241014920 1109.0
44.267275485 1169.0
44.293536051 1223.0
44.319796616 1208.0
44.346057181 1286.0
44.372317747 1337.0
44.398578312 1352.0
44.424838877 1395.0
44.451099443 1345.0
44.477360008 1273.0
44.503620573 1199.0
44.529881139 1313.0
44.556141704 1294.0
44.582402269 1227.0
44.608662835 1197.0
44.634923400 1183.0
44.661183966 1227.0
44.687444531 1237.0
44.713705096 1167.0
44.739965662 1201.0
44.766226227 1180.0
44.792486792 1174.0
44.818747358 1174.0
44.845007923 1174.0
44.871268488 1136.0
44.897529054 1162.0
44.923789619 1208.0
44.950050184 1164.0
44.976310750 1260.0
45.002571315 1245.0
45.028831880 1296.0
45.055092446 1358.0
45.081353011 1341.0
45.107613577 1421.0
45.133874142 1407.0
45.160134707 1368.0
45.186395273 1329.0
45.212655838 1299.0
45.238916403 1340.0
45.265176969 1380.0
45.291437534 1419.0
45.317698099 1444.0
45.343958665 1444.0
45.370219230 1416.0
45.396479795 1419.0
45.422740361 1512.0
45.449000926 1515.0
45.475261492 1441.0
45.501522057 1446.0
45.527782622 1431.0
45.554043188 1365.0
45.580303753 1429.0
45.606564318 1389.0
45.632824884 1358.0
45.659085449 1331.0
45.685346014 1263.0
45.711606580 1299.0
45.737867145 1263.0
45.764127710 1273.0
45.790388276 1189.0
45.816648841 1144.0
45.842909406 1245.0
45.869169972 1229.0
45.895430537 1176.0
45.921691103 1192.0
45.947951668 1242.0
45.974212233 1155.0
46.000472799 1169.0
46.026733364 1158.0
46.052993929 1212.0
46.079254495 1148.0
46.105515060 1160.0
46.131775625 1143.0
46.158036191 1254.0
46.184296756 1269.0
46.210557321 1360.0
46.236817887 1383.0
46.263078452 1395.0
46.289339017 1402.0
46.315599583 1337.0
46.341860148 1376.0
46.368120714 1344.0
46.394381279 1290.0
46.420641844 1215.0
46.446902410 1203.0
46.473162975 1202.0
46.499423540 1190.0
46.525684106 1170.0
46.551944671 1146.0
46.578205236 1197.0
46.604465802 1107.0
46.630726367 1171.0
46.656986932 1165.0
46.683247498 1329.0
46.709508063 1576.0
46.735768629 1665.0
46.762029194 1427.0
46.788289759 1291.0
46.814550325 1299.0
46.840810890 1479.0
46.867071455 1385.0
46.893332021 1297.0
46.919592586 1301.0
46.945853151 1329.0
46.972113717 1340.0
46.998374282 1337.0
47.024634847 1338.0
47.050895413 1311.0
47.077155978 1245.0
47.103416543 1246.0
47.129677109 1282.0
47.155937674 1253.0
47.182198240 1156.0
47.208458805 1121.0
47.234719370 1168.0
47.260979936 1294.0
47.287240501 1207.0
47.313501066 1125.0
47.339761632 1127.0
47.366022197 1135.0
47.392282762 1110.0
47.418543328 1164.0
47.444803893 1075.0
47.471064458 1079.0
47.497325024 1151.0
47.523585589 1034.0
47.549846155 1129.0
47.576106720 1144.0
47.602367285 1067.0
47.628627851 1085.0
47.654888416 1060.0
47.681148981 1049.0
47.707409547 1068.0
47.733670112 1079.0
47.759930677 1050.0
47.786191243 1119.0
47.812451808 1118.0
47.838712373 1099.0
47.864972939 1186.0
47.891233504 1175.0
47.917494069 1215.0
47.943754635 1255.0
47.970015200 1211.0
47.996275766 1239.0
48.022536331 1210.0
48.048796896 1250.0
48.075057462 1321.0
48.101318027 1296.0
48.127578592 1325.0
48.153839158 1377.0
48.180099723 1220.0
48.206360288 1256.0
48.232620854 1120.0
48.258881419 1201.0
48.285141984 1202.0
48.311402550 1133.0
48.337663115 1065.0
48.363923681 1081.0
48.390184246 1040.0
48.416444811 1087.0
48.442705377 1187.0
48.468965942 1127.0
48.495226507 1190.0
48.521487073 1161.0
48.547747638 1184.0
48.574008203 1098.0
48.600268769 1095.0
48.626529334 1156.0
48.652789899 1044.0
48.679050465 1057.0
48.705311030 1013.0
48.731571595 1017.0
48.757832161 989.0
48.784092726 968.0
48.810353292 959.0
48.836613857 968.0
48.862874422 1001.0
48.889134988 998.0
48.915395553 982.0
48.941656118 982.0
48.967916684 925.0
48.994177249 984.0
49.020437814 937.0
49.046698380 989.0
49.072958945 928.0
49.099219510 921.0
49.125480076 977.0
49.151740641 971.0
49.178001207 914.0
49.204261772 949.0
49.230522337 923.0
49.256782903 937.0
49.283043468 922.0
49.309304033 994.0
49.335564599 963.0
49.361825164 931.0
49.388085729 935.0
49.414346295 988.0
49.440606860 1007.0
49.466867425 978.0
49.493127991 966.0
49.519388556 998.0
49.545649121 938.0
49.571909687 998.0
49.598170252 1025.0
49.624430818 960.0
49.650691383 1065.0
49.676951948 1132.0
49.703212514 965.0
49.729473079 1092.0
49.755733644 982.0
49.781994210 1012.0
49.808254775 925.0
49.834515340 1060.0
49.860775906 1008.0
49.887036471 961.0
49.913297036 929.0
49.939557602 977.0
49.965818167 898.0
49.992078733 921.0
50.018339298 895.0
50.044599863 861.0
50.070860429 937.0
50.097120994 955.0
50.123381559 967.0
50.149642125 988.0
50.175902690 1086.0
50.202163255 1064.0
50.228423821 1140.0
50.254684386 1147.0
50.280944951 1085.0
50.307205517 1055.0
50.333466082 1011.0
50.359726647 1060.0
50.385987213 932.0
50.412247778 929.0
50.438508344 936.0
50.464768909 952.0
50.491029474 941.0
50.517290040 935.0
50.543550605 985.0
50.569811170 942.0
50.596071736 844.0
50.622332301 881.0
50.648592866 951.0
50.674853432 913.0
50.701113997 943.0
50.727374562 890.0
50.753635128 898.0
50.779895693 953.0
50.806156258 915.0
50.832416824 974.0
50.858677389 941.0
50.884937955 938.0
50.911198520 932.0
50.937459085 912.0
50.963719651 931.0
50.989980216 923.0
51.016240781 937.0
51.042501347 874.0
51.068761912 907.0
51.095022477 951.0
51.121283043 923.0
51.147543608 942.0
51.173804173 942.0
51.200064739 996.0
51.226325304 940.0
51.252585870 1016.0
51.278846435 953.0
51.305107000 986.0
51.331367566 909.0
51.357628131 945.0
51.383888696 917.0
51.410149262 897.0
51.436409827 885.0
51.462670392 934.0
51.488930958 919.0
51.515191523 919.0
51.541452088 939.0
51.567712654 858.0
51.593973219 880.0
51.620233784 895.0
51.646494350 914.0
51.672754915 878.0
51.699015481 892.0
51.725276046 862.0
51.751536611 882.0
51.777797177 943.0
51.804057742 918.0
51.830318307 881.0
51.856578873 981.0
51.882839438 922.0
51.909100003 931.0
51.935360569 899.0
51.961621134 952.0
51.987881699 946.0
52.014142265 885.0
52.040402830 979.0
52.066663396 924.0
52.092923961 1015.0
52.119184526 930.0
52.145445092 1003.0
52.171705657 1072.0
52.197966222 1012.0
52.224226788 1079.0
52.250487353 1028.0
52.276747918 978.0
52.303008484 1038.0
52.329269049 971.0
52.355529614 992.0
52.381790180 943.0
52.408050745 976.0
52.434311310 929.0
52.460571876 878.0
52.486832441 849.0
52.513093007 837.0
52.539353572 876.0
52.565614137 890.0
52.591874703 860.0
52.618135268 852.0
52.644395833 953.0
52.670656399 963.0
52.696916964 922.0
52.723177529 980.0
52.749438095 945.0
52.775698660 956.0
52.801959225 937.0
52.828219791 964.0
52.854480356 985.0
52.880740922 965.0
52.907001487 948.0
52.933262052 963.0
52.959522618 922.0
52.985783183 881.0
53.012043748 896.0
53.038304314 909.0
53.064564879 879.0
53.090825444 854.0
53.117086010 906.0
53.143346575 862.0
53.169607140 928.0
53.195867706 853.0
53.222128271 985.0
53.248388836 977.0
53.274649402 983.0
53.300909967 952.0
53.327170533 1022.0
53.353431098 1063.0
53.379691663 1070.0
53.405952229 1006.0
53.432212794 963.0
53.458473359 987.0
53.484733925 973.0
53.510994490 915.0
53.537255055 899.0
53.563515621 875.0
53.589776186 918.0
53.616036751 887.0
53.642297317 831.0
53.668557882 837.0
53.694818448 815.0
53.721079013 818.0
53.747339578 819.0
53.773600144 817.0
53.799860709 842.0
53.826121274 839.0
53.852381840 880.0
53.878642405 853.0
53.904902970 861.0
53.931163536 876.0
53.957424101 842.0
53.983684666 864.0
54.009945232 895.0
54.036205797 913.0
54.062466362 933.0
54.088726928 937.0
54.114987493 965.0
54.141248059 1016.0
54.167508624 905.0
54.193769189 943.0
54.220029755 933.0
54.246290320 1022.0
54.272550885 860.0
54.298811451 1012.0
54.325072016 896.0
54.351332581 944.0
54.377593147 923.0
54.403853712 868.0
54.430114277 883.0
54.456374843 875.0
54.482635408 901.0
54.508895973 947.0
54.535156539 908.0
54.561417104 891.0
54.587677670 938.0
54.613938235 872.0
54.640198800 895.0
54.666459366 789.0
54.692719931 845.0
54.718980496 829.0
54.745241062 896.0
54.771501627 848.0
54.797762192 817.0
54.824022758 748.0
54.850283323 803.0
54.876543888 790.0
54.902804454 753.0
54.929065019 744.0
54.955325585 761.0
54.981586150 770.0
55.007846715 760.0
55.034107281 785.0
55.060367846 759.0
55.086628411 811.0
55.112888977 823.0
55.139149542 776.0
55.165410107 804.0
55.191670673 806.0
55.217931238 844.0
55.244191803 820.0
55.270452369 813.0
55.296712934 831.0
55.322973499 834.0
55.349234065 810.0
55.375494630 803.0
55.401755196 814.0
55.428015761 857.0
55.454276326 818.0
55.480536892 758.0
55.506797457 781.0
55.533058022 803.0
55.559318588 881.0
55.585579153 838.0
55.611839718 815.0
55.638100284 855.0
55.664360849 858.0
55.690621414 852.0
55.716881980 876.0
55.743142545 881.0
55.769403111 870.0
55.795663676 854.0
55.821924241 806.0
55.848184807 807.0
55.874445372 784.0
55.900705937 748.0
55.926966503 826.0
55.953227068 813.0
55.979487633 760.0
56.005748199 738.0
56.032008764 769.0
56.058269329 763.0
56.084529895 775.0
56.110790460 783.0
56.137051025 787.0
56.163311591 839.0
56.189572156 793.0
56.215832722 812.0
56.242093287 784.0
56.268353852 788.0
56.294614418 807.0
56.320874983 792.0
56.347135548 813.0
56.373396114 762.0
56.399656679 790.0
56.425917244 761.0
56.452177810 781.0
56.478438375 792.0
56.504698940 797.0
56.530959506 779.0
56.557220071 756.0
56.583480637 805.0
56.609741202 759.0
56.636001767 804.0
56.662262333 748.0
56.688522898 771.0
56.714783463 746.0
56.741044029 755.0
56.767304594 754.0
56.793565159 755.0
56.819825725 747.0
56.846086290 778.0
56.872346855 781.0
56.898607421 816.0
56.924867986 742.0
56.951128551 731.0
56.977389117 747.0
57.003649682 694.0
57.029910248 768.0
57.056170813 749.0
57.082431378 755.0
57.108691944 782.0
57.134952509 738.0
57.161213074 729.0
57.187473640 745.0
57.213734205 734.0
57.239994770 705.0
57.266255336 746.0
57.292515901 777.0
57.318776466 741.0
57.345037032 720.0
57.371297597 746.0
57.397558163 841.0
57.423818728 787.0
57.450079293 777.0
57.476339859 744.0
57.502600424 817.0
57.528860989 808.0
57.555121555 768.0
57.581382120 783.0
57.607642685 808.0
57.633903251 828.0
57.660163816 840.0
57.686424381 837.0
57.712684947 820.0
57.738945512 815.0
57.765206077 788.0
57.791466643 842.0
57.817727208 792.0
57.843987774 812.0
57.870248339 771.0
57.896508904 830.0
57.922769470 822.0
57.949030035 779.0
57.975290600 775.0
58.001551166 876.0
58.027811731 820.0
58.054072296 888.0
58.080332862 954.0
58.106593427 852.0
58.132853992 908.0
58.159114558 838.0
58.185375123 842.0
58.211635689 879.0
58.237896254 847.0
58.264156819 795.0
58.290417385 841.0
58.316677950 812.0
58.342938515 826.0
58.369199081 781.0
58.395459646 737.0
58.421720211 757.0
58.447980777 783.0
58.474241342 776.0
58.500501907 714.0
58.526762473 731.0
58.553023038 745.0
58.579283603 793.0
58.605544169 796.0
58.631804734 806.0
58.658065300 832.0
58.684325865 726.0
58.710586430 776.0
58.736846996 763.0
58.763107561 751.0
58.789368126 809.0
58.815628692 781.0
58.841889257 745.0
58.868149822 742.0
58.894410388 798.0
58.920670953 765.0
58.946931518 774.0
58.973192084 786.0
58.999452649 771.0
59.025713214 782.0
59.051973780 750.0
59.078234345 769.0
59.104494911 782.0
59.130755476 773.0
59.157016041 775.0
59.183276607 760.0
59.209537172 839.0
59.235797737 758.0
59.262058303 825.0
59.288318868 846.0
59.314579433 881.0
59.340839999 789.0
59.367100564 818.0
59.393361129 808.0
59.419621695 846.0
59.445882260 821.0
59.472142826 806.0
59.498403391 837.0
59.524663956 787.0
59.550924522 825.0
59.577185087 856.0
59.603445652 814.0
59.629706218 758.0
59.655966783 771.0
59.682227348 834.0
59.708487914 808.0
59.734748479 825.0
59.761009044 836.0
59.787269610 857.0
59.813530175 897.0
59.839790740 918.0
59.866051306 929.0
59.892311871 980.0
59.918572437 965.0
59.944833002 966.0
59.971093567 931.0
59.997354133 975.0
60.023614698 863.0
60.049875263 942.0
60.076135829 978.0
60.102396394 979.0
60.128656959 975.0
60.154917525 986.0
60.181178090 960.0
60.207438655 972.0
60.233699221 982.0
60.259959786 1035.0
60.286220352 1026.0
60.312480917 1040.0
60.338741482 983.0
60.365002048 1024.0
60.391262613 1048.0
60.417523178 1044.0
60.443783744 1041.0
60.470044309 1076.0
60.496304874 1111.0
60.522565440 1082.0
60.548826005 1111.0
60.575086570 1161.0
60.601347136 1122.0
60.627607701 1130.0
60.653868266 1237.0
60.680128832 1187.0
60.706389397 1167.0
60.732649963 1198.0
60.758910528 1207.0
60.785171093 1169.0
60.811431659 1132.0
60.837692224 1239.0
60.863952789 1224.0
60.890213355 1194.0
60.916473920 1174.0
60.942734485 1143.0
60.968995051 1191.0
60.995255616 1132.0
61.021516181 1134.0
61.047776747 1100.0
61.074037312 1096.0
61.100297878 1097.0
61.126558443 1122.0
61.152819008 1056.0
61.179079574 1100.0
61.205340139 1141.0
61.231600704 1071.0
61.257861270 1149.0
61.284121835 1032.0
61.310382400 1086.0
61.336642966 1061.0
61.362903531 1070.0
61.389164096 1007.0
61.415424662 1089.0
61.441685227 1149.0
61.467945792 1069.0
61.494206358 1158.0
61.520466923 1129.0
61.546727489 1089.0
61.572988054 1080.0
61.599248619 1058.0
61.625509185 1123.0
61.651769750 1080.0
61.678030315 1001.0
61.704290881 1086.0
61.730551446 1063.0
61.756812011 1027.0
61.783072577 1034.0
61.809333142 1094.0
61.835593707 1026.0
61.861854273 1118.0
61.888114838 1062.0
61.914375404 1078.0
61.940635969 1036.0
61.966896534 1022.0
61.993157100 971.0
62.019417665 982.0
62.045678230 940.0
62.071938796 985.0
62.098199361 920.0
62.124459926 943.0
62.150720492 963.0
62.176981057 962.0
62.203241622 942.0
62.229502188 880.0
62.255762753 918.0
62.282023318 950.0
62.308283884 903.0
62.334544449 792.0
62.360805015 892.0
62.387065580 908.0
62.413326145 892.0
62.439586711 846.0
62.465847276 827.0
62.492107841 910.0
62.518368407 863.0
62.544628972 867.0
62.570889537 871.0
62.597150103 897.0
62.623410668 860.0
62.649671233 853.0
62.675931799 802.0
62.702192364 829.0
62.728452930 876.0
62.754713495 880.0
62.780974060 808.0
62.807234626 770.0
62.833495191 767.0
62.859755756 830.0
62.886016322 800.0
62.912276887 849.0
62.938537452 755.0
62.964798018 754.0
62.991058583 775.0
63.017319148 761.0
63.043579714 701.0
63.069840279 737.0
63.096100844 723.0
63.122361410 737.0
63.148621975 716.0
63.174882541 739.0
63.201143106 757.0
63.227403671 742.0
63.253664237 714.0
63.279924802 692.0
63.306185367 739.0
63.332445933 720.0
63.358706498 733.0
63.384967063 727.0
63.411227629 695.0
63.437488194 710.0
63.463748759 718.0
63.490009325 693.0
63.516269890 702.0
63.542530455 709.0
63.568791021 673.0
63.595051586 699.0
63.621312152 694.0
63.647572717 719.0
63.673833282 700.0
63.700093848 677.0
63.726354413 713.0
63.752614978 719.0
63.778875544 758.0
63.805136109 746.0
63.831396674 672.0
63.857657240 697.0
63.883917805 692.0
63.910178370 707.0
63.936438936 747.0
63.962699501 741.0
63.988960067 726.0
64.015220632 709.0
64.041481197 700.0
64.067741763 680.0
64.094002328 641.0
64.120262893 687.0
64.146523459 733.0
64.172784024 715.0
64.199044589 718.0
64.225305155 718.0
64.251565720 650.0
64.277826285 700.0
64.304086851 648.0
64.330347416 661.0
64.356607981 724.0
64.382868547 664.0
64.409129112 648.0
64.435389678 639.0
64.461650243 689.0
64.487910808 677.0
64.514171374 633.0
64.540431939 704.0
64.566692504 659.0
64.592953070 637.0
64.619213635 670.0
64.645474200 607.0
64.671734766 657.0
64.697995331 627.0
64.724255896 640.0
64.750516462 675.0
64.776777027 673.0
64.803037593 698.0
64.829298158 682.0
64.855558723 680.0
64.881819289 664.0
64.908079854 670.0
64.934340419 674.0
64.960600985 669.0
64.986861550 639.0
