[Measurement conditions]
Sample identification,AlCorner31Jan22_Act12Feb23_B1_0833M_NaOH_LS0153_Num155
Comment - 1,"Configuration=Stage for Flat Samples/Holders, Owner=nmw10, Creation date=9/21/2022 10:06:30 AM"
Comment - 2,"Goniometer=Theta/Theta; Minimum step size 2Theta:0.0001; Minimum step size Omega:0.0001"
Comment - 3,"Sample stage=Stage for flat samples/holders"
Comment - 4,"Diffractometer system=EMPYREAN"
Comment - 5,"Measurement program=X:\XRD\Cement\Zerobackground scan.xrdmp, Created identifier={98A3B11C-88F9-4AA6-982C-73314A311EF5}, Created by=Titus Reed, Id=tmr79, Creation date=10/26/2021 3:01:47 PM"
Anode material,Cu
K-Alpha1 wavelength,1.5405980
K-Alpha2 wavelength,1.5444260
Ratio K-Alpha2/K-Alpha1,0.500
Divergence slit,Fixed,0.25
Monochromator used,NO
Generator voltage, 45
Tube current, 40
File date and time,15/Mar/2023 19:40
Unit cell,
h k l, 0 0 0
Scan axis,Gonio
Scan range,4.994599997,64.999991833
Scan step size,0.0262606
No. of points, 2285
Scan type,CONTINUOUS
Time per step,96.390
[Scan points]
Angle, TimePerStep, Intensity, ESD
5.007730280, 96.390, 3441.0, 58.6600
5.033990845, 96.390, 3562.0, 59.6825
5.060251411, 96.390, 3581.0, 59.8415
5.086511976, 96.390, 3455.0, 58.7792
5.112772541, 96.390, 3538.0, 59.4811
5.139033107, 96.390, 3558.0, 59.6490
5.165293672, 96.390, 3553.0, 59.6070
5.191554237, 96.390, 3434.0, 58.6003
5.217814803, 96.390, 3504.0, 59.1946
5.244075368, 96.390, 3618.0, 60.1498
5.270335934, 96.390, 3374.0, 58.0861
5.296596499, 96.390, 3316.0, 57.5847
5.322857064, 96.390, 3340.0, 57.7927
5.349117630, 96.390, 3424.0, 58.5150
5.375378195, 96.390, 3394.0, 58.2580
5.401638760, 96.390, 3191.0, 56.4889
5.427899326, 96.390, 3265.0, 57.1402
5.454159891, 96.390, 3299.0, 57.4369
5.480420456, 96.390, 3185.0, 56.4358
5.506681022, 96.390, 3256.0, 57.0614
5.532941587, 96.390, 3158.0, 56.1961
5.559202152, 96.390, 3260.0, 57.0964
5.585462718, 96.390, 3238.0, 56.9034
5.611723283, 96.390, 3205.0, 56.6127
5.637983849, 96.390, 3165.0, 56.2583
5.664244414, 96.390, 3077.0, 55.4707
5.690504979, 96.390, 3097.0, 55.6507
5.716765545, 96.390, 3155.0, 56.1694
5.743026110, 96.390, 3080.0, 55.4977
5.769286675, 96.390, 3080.0, 55.4977
5.795547241, 96.390, 3180.0, 56.3915
5.821807806, 96.390, 2970.0, 54.4977
5.848068371, 96.390, 3059.0, 55.3082
5.874328937, 96.390, 3170.0, 56.3028
5.900589502, 96.390, 3108.0, 55.7494
5.926850067, 96.390, 3124.0, 55.8928
5.953110633, 96.390, 3093.0, 55.6147
5.979371198, 96.390, 3018.0, 54.9363
6.005631763, 96.390, 3040.0, 55.1362
6.031892329, 96.390, 3143.0, 56.0625
6.058152894, 96.390, 3092.0, 55.6058
6.084413460, 96.390, 3063.0, 55.3444
6.110674025, 96.390, 3068.0, 55.3895
6.136934590, 96.390, 3107.0, 55.7405
6.163195156, 96.390, 3101.0, 55.6866
6.189455721, 96.390, 3041.0, 55.1453
6.215716286, 96.390, 3067.0, 55.3805
6.241976852, 96.390, 3002.0, 54.7905
6.268237417, 96.390, 2915.0, 53.9907
6.294497982, 96.390, 3029.0, 55.0364
6.320758548, 96.390, 3102.0, 55.6956
6.347019113, 96.390, 3060.0, 55.3173
6.373279678, 96.390, 2945.0, 54.2679
6.399540244, 96.390, 3108.0, 55.7494
6.425800809, 96.390, 3143.0, 56.0625
6.452061375, 96.390, 3092.0, 55.6058
6.478321940, 96.390, 3075.0, 55.4527
6.504582505, 96.390, 3176.0, 56.3560
6.530843071, 96.390, 3169.0, 56.2939
6.557103636, 96.390, 3083.0, 55.5248
6.583364201, 96.390, 3113.0, 55.7943
6.609624767, 96.390, 3121.0, 55.8659
6.635885332, 96.390, 3154.0, 56.1605
6.662145897, 96.390, 3305.0, 57.4891
6.688406463, 96.390, 3367.0, 58.0259
6.714667028, 96.390, 3273.0, 57.2101
6.740927593, 96.390, 3487.0, 59.0508
6.767188159, 96.390, 3414.0, 58.4294
6.793448724, 96.390, 3648.0, 60.3987
6.819709289, 96.390, 3788.0, 61.5467
6.845969855, 96.390, 3699.0, 60.8194
6.872230420, 96.390, 4020.0, 63.4035
6.898490986, 96.390, 4127.0, 64.2417
6.924751551, 96.390, 4396.0, 66.3023
6.951012116, 96.390, 4704.0, 68.5857
6.977272682, 96.390, 5007.0, 70.7602
7.003533247, 96.390, 5504.0, 74.1889
7.029793812, 96.390, 5932.0, 77.0195
7.056054378, 96.390, 6565.0, 81.0247
7.082314943, 96.390, 7523.0, 86.7352
7.108575508, 96.390, 8785.0, 93.7283
7.134836074, 96.390, 10456.0, 102.2546
7.161096639, 96.390, 12204.0, 110.4717
7.187357204, 96.390, 13016.0, 114.0877
7.213617770, 96.390, 11044.0, 105.0904
7.239878335, 96.390, 7446.0, 86.2902
7.266138900, 96.390, 5153.0, 71.7844
7.292399466, 96.390, 4249.0, 65.1844
7.318660031, 96.390, 3771.0, 61.4085
7.344920597, 96.390, 3457.0, 58.7963
7.371181162, 96.390, 3305.0, 57.4891
7.397441727, 96.390, 3123.0, 55.8838
7.423702293, 96.390, 2969.0, 54.4885
7.449962858, 96.390, 2888.0, 53.7401
7.476223423, 96.390, 2895.0, 53.8052
7.502483989, 96.390, 2889.0, 53.7494
7.528744554, 96.390, 2834.0, 53.2353
7.555005119, 96.390, 2771.0, 52.6403
7.581265685, 96.390, 2866.0, 53.5350
7.607526250, 96.390, 2815.0, 53.0566
7.633786815, 96.390, 2863.0, 53.5070
7.660047381, 96.390, 2805.0, 52.9623
7.686307946, 96.390, 2734.0, 52.2877
7.712568512, 96.390, 2715.0, 52.1057
7.738829077, 96.390, 2665.0, 51.6236
7.765089642, 96.390, 2742.0, 52.3641
7.791350208, 96.390, 2759.0, 52.5262
7.817610773, 96.390, 2727.0, 52.2207
7.843871338, 96.390, 2644.0, 51.4198
7.870131904, 96.390, 2694.0, 51.9038
7.896392469, 96.390, 2697.0, 51.9326
7.922653034, 96.390, 2614.0, 51.1273
7.948913600, 96.390, 2702.0, 51.9808
7.975174165, 96.390, 2707.0, 52.0288
8.001434730, 96.390, 2727.0, 52.2207
8.027695296, 96.390, 2707.0, 52.0288
8.053955861, 96.390, 2679.0, 51.7591
8.080216426, 96.390, 2781.0, 52.7352
8.106476992, 96.390, 2755.0, 52.4881
8.132737557, 96.390, 2678.0, 51.7494
8.158998123, 96.390, 2656.0, 51.5364
8.185258688, 96.390, 2736.0, 52.3068
8.211519253, 96.390, 2657.0, 51.5461
8.237779819, 96.390, 2751.0, 52.4500
8.264040384, 96.390, 2593.0, 50.9215
8.290300949, 96.390, 2584.0, 50.8331
8.316561515, 96.390, 2652.0, 51.4976
8.342822080, 96.390, 2702.0, 51.9808
8.369082645, 96.390, 2540.0, 50.3984
8.395343211, 96.390, 2617.0, 51.1566
8.421603776, 96.390, 2758.0, 52.5167
8.447864341, 96.390, 2690.0, 51.8652
8.474124907, 96.390, 2630.0, 51.2835
8.500385472, 96.390, 2781.0, 52.7352
8.526646038, 96.390, 2943.0, 54.2494
8.552906603, 96.390, 3148.0, 56.1070
8.579167168, 96.390, 3416.0, 58.4466
8.605427734, 96.390, 3039.0, 55.1271
8.631688299, 96.390, 2657.0, 51.5461
8.657948864, 96.390, 2630.0, 51.2835
8.684209430, 96.390, 2530.0, 50.2991
8.710469995, 96.390, 2531.0, 50.3090
8.736730560, 96.390, 2581.0, 50.8035
8.762991126, 96.390, 2463.0, 49.6286
8.789251691, 96.390, 2542.0, 50.4183
8.815512256, 96.390, 2540.0, 50.3984
8.841772822, 96.390, 2603.0, 51.0196
8.868033387, 96.390, 2495.0, 49.9500
8.894293952, 96.390, 2482.0, 49.8197
8.920554518, 96.390, 2478.0, 49.7795
8.946815083, 96.390, 2399.0, 48.9796
8.973075649, 96.390, 2517.0, 50.1697
8.999336214, 96.390, 2446.0, 49.4571
9.025596779, 96.390, 2509.0, 50.0899
9.051857345, 96.390, 2365.0, 48.6313
9.078117910, 96.390, 2480.0, 49.7996
9.104378475, 96.390, 2492.0, 49.9199
9.130639041, 96.390, 2464.0, 49.6387
9.156899606, 96.390, 2485.0, 49.8498
9.183160171, 96.390, 2475.0, 49.7494
9.209420737, 96.390, 2429.0, 49.2849
9.235681302, 96.390, 2476.0, 49.7594
9.261941867, 96.390, 2455.0, 49.5480
9.288202433, 96.390, 2457.0, 49.5681
9.314462998, 96.390, 2469.0, 49.6890
9.340723564, 96.390, 2537.0, 50.3686
9.366984129, 96.390, 2527.0, 50.2693
9.393244694, 96.390, 2410.0, 49.0918
9.419505260, 96.390, 2448.0, 49.4773
9.445765825, 96.390, 2410.0, 49.0918
9.472026390, 96.390, 2511.0, 50.1099
9.498286956, 96.390, 2459.0, 49.5883
9.524547521, 96.390, 2440.0, 49.3964
9.550808086, 96.390, 2559.0, 50.5866
9.577068652, 96.390, 2523.0, 50.2295
9.603329217, 96.390, 2515.0, 50.1498
9.629589782, 96.390, 2487.0, 49.8698
9.655850348, 96.390, 2474.0, 49.7393
9.682110913, 96.390, 2557.0, 50.5668
9.708371478, 96.390, 2543.0, 50.4282
9.734632044, 96.390, 2540.0, 50.3984
9.760892609, 96.390, 2511.0, 50.1099
9.787153175, 96.390, 2662.0, 51.5946
9.813413740, 96.390, 2773.0, 52.6593
9.839674305, 96.390, 2694.0, 51.9038
9.865934871, 96.390, 2857.0, 53.4509
9.892195436, 96.390, 2813.0, 53.0377
9.918456001, 96.390, 3138.0, 56.0179
9.944716567, 96.390, 3255.0, 57.0526
9.970977132, 96.390, 3514.0, 59.2790
9.997237697, 96.390, 3730.0, 61.0737
10.023498263, 96.390, 4115.0, 64.1483
10.049758828, 96.390, 4609.0, 67.8896
10.076019393, 96.390, 5270.0, 72.5948
10.102279959, 96.390, 6099.0, 78.0961
10.128540524, 96.390, 7289.0, 85.3756
10.154801090, 96.390, 8285.0, 91.0220
10.181061655, 96.390, 8449.0, 91.9184
10.207322220, 96.390, 6636.0, 81.4616
10.233582786, 96.390, 4752.0, 68.9348
10.259843351, 96.390, 3570.0, 59.7495
10.286103916, 96.390, 3232.0, 56.8507
10.312364482, 96.390, 2859.0, 53.4696
10.338625047, 96.390, 2748.0, 52.4214
10.364885612, 96.390, 2695.0, 51.9134
10.391146178, 96.390, 2683.0, 51.7977
10.417406743, 96.390, 2585.0, 50.8429
10.443667308, 96.390, 2463.0, 49.6286
10.469927874, 96.390, 2506.0, 50.0600
10.496188439, 96.390, 2666.0, 51.6333
10.522449004, 96.390, 2552.0, 50.5173
10.548709570, 96.390, 2567.0, 50.6656
10.574970135, 96.390, 2487.0, 49.8698
10.601230701, 96.390, 2596.0, 50.9510
10.627491266, 96.390, 2558.0, 50.5767
10.653751831, 96.390, 2539.0, 50.3885
10.680012397, 96.390, 2515.0, 50.1498
10.706272962, 96.390, 2608.0, 51.0686
10.732533527, 96.390, 2550.0, 50.4975
10.758794093, 96.390, 2622.0, 51.2055
10.785054658, 96.390, 2536.0, 50.3587
10.811315223, 96.390, 2649.0, 51.4684
10.837575789, 96.390, 2642.0, 51.4004
10.863836354, 96.390, 2695.0, 51.9134
10.890096919, 96.390, 2680.0, 51.7687
10.916357485, 96.390, 2685.0, 51.8170
10.942618050, 96.390, 2862.0, 53.4977
10.968878616, 96.390, 2760.0, 52.5357
10.995139181, 96.390, 2821.0, 53.1131
11.021399746, 96.390, 2847.0, 53.3573
11.047660312, 96.390, 2914.0, 53.9815
11.073920877, 96.390, 3053.0, 55.2540
11.100181442, 96.390, 3080.0, 55.4977
11.126442008, 96.390, 3043.0, 55.1634
11.152702573, 96.390, 3100.0, 55.6776
11.178963138, 96.390, 3243.0, 56.9473
11.205223704, 96.390, 3356.0, 57.9310
11.231484269, 96.390, 3431.0, 58.5747
11.257744834, 96.390, 3602.0, 60.0167
11.284005400, 96.390, 3653.0, 60.4401
11.310265965, 96.390, 3783.0, 61.5061
11.336526530, 96.390, 4017.0, 63.3798
11.362787096, 96.390, 4249.0, 65.1844
11.389047661, 96.390, 4142.0, 64.3584
11.415308227, 96.390, 4646.0, 68.1616
11.441568792, 96.390, 4722.0, 68.7168
11.467829357, 96.390, 5096.0, 71.3863
11.494089923, 96.390, 5152.0, 71.7774
11.520350488, 96.390, 5373.0, 73.3008
11.546611053, 96.390, 5647.0, 75.1465
11.572871619, 96.390, 5739.0, 75.7562
11.599132184, 96.390, 5875.0, 76.6485
11.625392749, 96.390, 5988.0, 77.3822
11.651653315, 96.390, 5871.0, 76.6225
11.677913880, 96.390, 5933.0, 77.0260
11.704174445, 96.390, 5793.0, 76.1118
11.730435011, 96.390, 5630.0, 75.0333
11.756695576, 96.390, 5613.0, 74.9200
11.782956141, 96.390, 5355.0, 73.1779
11.809216707, 96.390, 4954.0, 70.3847
11.835477272, 96.390, 4731.0, 68.7823
11.861737838, 96.390, 4495.0, 67.0448
11.887998403, 96.390, 4122.0, 64.2028
11.914258968, 96.390, 4112.0, 64.1249
11.940519534, 96.390, 3731.0, 61.0819
11.966780099, 96.390, 3560.0, 59.6657
11.993040664, 96.390, 3401.0, 58.3181
12.019301230, 96.390, 3223.0, 56.7715
12.045561795, 96.390, 3218.0, 56.7274
12.071822360, 96.390, 3038.0, 55.1181
12.098082926, 96.390, 2999.0, 54.7631
12.124343491, 96.390, 2996.0, 54.7357
12.150604056, 96.390, 3007.0, 54.8361
12.176864622, 96.390, 2983.0, 54.6168
12.203125187, 96.390, 3117.0, 55.8301
12.229385753, 96.390, 3035.0, 55.0908
12.255646318, 96.390, 3089.0, 55.5788
12.281906883, 96.390, 3264.0, 57.1314
12.308167449, 96.390, 3348.0, 57.8619
12.334428014, 96.390, 3750.0, 61.2372
12.360688579, 96.390, 4049.0, 63.6318
12.386949145, 96.390, 4646.0, 68.1616
12.413209710, 96.390, 5327.0, 72.9863
12.439470275, 96.390, 6085.0, 78.0064
12.465730841, 96.390, 6596.0, 81.2158
12.491991406, 96.390, 5870.0, 76.6159
12.518251971, 96.390, 4479.0, 66.9253
12.544512537, 96.390, 3389.0, 58.2151
12.570773102, 96.390, 2775.0, 52.6783
12.597033667, 96.390, 2441.0, 49.4065
12.623294233, 96.390, 2430.0, 49.2950
12.649554798, 96.390, 2427.0, 49.2646
12.675815364, 96.390, 2283.0, 47.7807
12.702075929, 96.390, 2242.0, 47.3498
12.728336494, 96.390, 2147.0, 46.3357
12.754597060, 96.390, 2086.0, 45.6727
12.780857625, 96.390, 2151.0, 46.3789
12.807118190, 96.390, 2129.0, 46.1411
12.833378756, 96.390, 2105.0, 45.8803
12.859639321, 96.390, 2041.0, 45.1774
12.885899886, 96.390, 2000.0, 44.7214
12.912160452, 96.390, 2086.0, 45.6727
12.938421017, 96.390, 1923.0, 43.8520
12.964681582, 96.390, 1982.0, 44.5197
12.990942148, 96.390, 1927.0, 43.8976
13.017202713, 96.390, 1967.0, 44.3509
13.043463279, 96.390, 1992.0, 44.6318
13.069723844, 96.390, 1991.0, 44.6206
13.095984409, 96.390, 1987.0, 44.5758
13.122244975, 96.390, 2000.0, 44.7214
13.148505540, 96.390, 1970.0, 44.3847
13.174766105, 96.390, 1957.0, 44.2380
13.201026671, 96.390, 1970.0, 44.3847
13.227287236, 96.390, 1923.0, 43.8520
13.253547801, 96.390, 1898.0, 43.5660
13.279808367, 96.390, 2022.0, 44.9667
13.306068932, 96.390, 1954.0, 44.2041
13.332329497, 96.390, 1991.0, 44.6206
13.358590063, 96.390, 2125.0, 46.0977
13.384850628, 96.390, 2116.0, 46.0000
13.411111193, 96.390, 2225.0, 47.1699
13.437371759, 96.390, 2374.0, 48.7237
13.463632324, 96.390, 2741.0, 52.3546
13.489892890, 96.390, 2870.0, 53.5724
13.516153455, 96.390, 2557.0, 50.5668
13.542414020, 96.390, 2203.0, 46.9361
13.568674586, 96.390, 2067.0, 45.4643
13.594935151, 96.390, 2011.0, 44.8442
13.621195716, 96.390, 1900.0, 43.5890
13.647456282, 96.390, 1912.0, 43.7264
13.673716847, 96.390, 1798.0, 42.4028
13.699977412, 96.390, 1896.0, 43.5431
13.726237978, 96.390, 1792.0, 42.3320
13.752498543, 96.390, 1863.0, 43.1625
13.778759108, 96.390, 1858.0, 43.1045
13.805019674, 96.390, 1940.0, 44.0454
13.831280239, 96.390, 2040.0, 45.1664
13.857540805, 96.390, 2124.0, 46.0869
13.883801370, 96.390, 2170.0, 46.5833
13.910061935, 96.390, 2232.0, 47.2440
13.936322501, 96.390, 2079.0, 45.5961
13.962583066, 96.390, 1897.0, 43.5546
13.988843631, 96.390, 1834.0, 42.8252
14.015104197, 96.390, 1811.0, 42.5558
14.041364762, 96.390, 1792.0, 42.3320
14.067625327, 96.390, 1877.0, 43.3244
14.093885893, 96.390, 1895.0, 43.5316
14.120146458, 96.390, 1967.0, 44.3509
14.146407023, 96.390, 2102.0, 45.8476
14.172667589, 96.390, 2247.0, 47.4025
14.198928154, 96.390, 2561.0, 50.6063
14.225188719, 96.390, 2797.0, 52.8867
14.251449285, 96.390, 2992.0, 54.6992
14.277709850, 96.390, 2891.0, 53.7680
14.303970416, 96.390, 2470.0, 49.6991
14.330230981, 96.390, 1900.0, 43.5890
14.356491546, 96.390, 1837.0, 42.8602
14.382752112, 96.390, 1753.0, 41.8688
14.409012677, 96.390, 1789.0, 42.2966
14.435273242, 96.390, 1796.0, 42.3792
14.461533808, 96.390, 1800.0, 42.4264
14.487794373, 96.390, 1872.0, 43.2666
14.514054938, 96.390, 1839.0, 42.8836
14.540315504, 96.390, 1872.0, 43.2666
14.566576069, 96.390, 1878.0, 43.3359
14.592836634, 96.390, 1702.0, 41.2553
14.619097200, 96.390, 1577.0, 39.7115
14.645357765, 96.390, 1570.0, 39.6232
14.671618331, 96.390, 1641.0, 40.5093
14.697878896, 96.390, 1728.0, 41.5692
14.724139461, 96.390, 1700.0, 41.2311
14.750400027, 96.390, 1639.0, 40.4846
14.776660592, 96.390, 1747.0, 41.7971
14.802921157, 96.390, 1651.0, 40.6325
14.829181723, 96.390, 1670.0, 40.8656
14.855442288, 96.390, 1640.0, 40.4969
14.881702853, 96.390, 1760.0, 41.9524
14.907963419, 96.390, 1730.0, 41.5933
14.934223984, 96.390, 1765.0, 42.0119
14.960484549, 96.390, 1688.0, 41.0853
14.986745115, 96.390, 1646.0, 40.5709
15.013005680, 96.390, 1635.0, 40.4351
15.039266245, 96.390, 1736.0, 41.6653
15.065526811, 96.390, 1757.0, 41.9166
15.091787376, 96.390, 1821.0, 42.6732
15.118047942, 96.390, 1809.0, 42.5323
15.144308507, 96.390, 1936.0, 44.0000
15.170569072, 96.390, 2252.0, 47.4552
15.196829638, 96.390, 2440.0, 49.3964
15.223090203, 96.390, 2871.0, 53.5817
15.249350768, 96.390, 3141.0, 56.0446
15.275611334, 96.390, 3317.0, 57.5934
15.301871899, 96.390, 2760.0, 52.5357
15.328132464, 96.390, 2330.0, 48.2701
15.354393030, 96.390, 1900.0, 43.5890
15.380653595, 96.390, 1766.0, 42.0238
15.406914160, 96.390, 1715.0, 41.4126
15.433174726, 96.390, 1564.0, 39.5474
15.459435291, 96.390, 1630.0, 40.3733
15.485695857, 96.390, 1612.0, 40.1497
15.511956422, 96.390, 1480.0, 38.4708
15.538216987, 96.390, 1595.0, 39.9375
15.564477553, 96.390, 1572.0, 39.6485
15.590738118, 96.390, 1594.0, 39.9249
15.616998683, 96.390, 1601.0, 40.0125
15.643259249, 96.390, 1483.0, 38.5097
15.669519814, 96.390, 1577.0, 39.7115
15.695780379, 96.390, 1630.0, 40.3733
15.722040945, 96.390, 1578.0, 39.7240
15.748301510, 96.390, 1605.0, 40.0625
15.774562075, 96.390, 1595.0, 39.9375
15.800822641, 96.390, 1680.0, 40.9878
15.827083206, 96.390, 1666.0, 40.8167
15.853343771, 96.390, 1669.0, 40.8534
15.879604337, 96.390, 1707.0, 41.3159
15.905864902, 96.390, 1764.0, 42.0000
15.932125468, 96.390, 1918.0, 43.7950
15.958386033, 96.390, 2051.0, 45.2880
15.984646598, 96.390, 2310.0, 48.0625
16.010907164, 96.390, 2492.0, 49.9199
16.037167729, 96.390, 2934.0, 54.1664
16.063428294, 96.390, 3497.0, 59.1354
16.089688860, 96.390, 3999.0, 63.2376
16.115949425, 96.390, 4285.0, 65.4599
16.142209990, 96.390, 4011.0, 63.3325
16.168470556, 96.390, 3109.0, 55.7584
16.194731121, 96.390, 2496.0, 49.9600
16.220991686, 96.390, 2008.0, 44.8107
16.247252252, 96.390, 1805.0, 42.4853
16.273512817, 96.390, 1812.0, 42.5676
16.299773382, 96.390, 1797.0, 42.3910
16.326033948, 96.390, 1774.0, 42.1189
16.352294513, 96.390, 1810.0, 42.5441
16.378555079, 96.390, 1747.0, 41.7971
16.404815644, 96.390, 1744.0, 41.7612
16.431076209, 96.390, 1655.0, 40.6817
16.457336775, 96.390, 1640.0, 40.4969
16.483597340, 96.390, 1585.0, 39.8121
16.509857905, 96.390, 1634.0, 40.4228
16.536118471, 96.390, 1566.0, 39.5727
16.562379036, 96.390, 1576.0, 39.6989
16.588639601, 96.390, 1498.0, 38.7040
16.614900167, 96.390, 1557.0, 39.4588
16.641160732, 96.390, 1463.0, 38.2492
16.667421297, 96.390, 1477.0, 38.4318
16.693681863, 96.390, 1516.0, 38.9358
16.719942428, 96.390, 1540.0, 39.2428
16.746202994, 96.390, 1468.0, 38.3145
16.772463559, 96.390, 1569.0, 39.6106
16.798724124, 96.390, 1468.0, 38.3145
16.824984690, 96.390, 1481.0, 38.4838
16.851245255, 96.390, 1543.0, 39.2810
16.877505820, 96.390, 1499.0, 38.7169
16.903766386, 96.390, 1487.0, 38.5616
16.930026951, 96.390, 1463.0, 38.2492
16.956287516, 96.390, 1484.0, 38.5227
16.982548082, 96.390, 1419.0, 37.6696
17.008808647, 96.390, 1353.0, 36.7831
17.035069212, 96.390, 1418.0, 37.6563
17.061329778, 96.390, 1387.0, 37.2424
17.087590343, 96.390, 1332.0, 36.4966
17.113850908, 96.390, 1293.0, 35.9583
17.140111474, 96.390, 1376.0, 37.0945
17.166372039, 96.390, 1365.0, 36.9459
17.192632605, 96.390, 1468.0, 38.3145
17.218893170, 96.390, 1410.0, 37.5500
17.245153735, 96.390, 1330.0, 36.4692
17.271414301, 96.390, 1355.0, 36.8103
17.297674866, 96.390, 1344.0, 36.6606
17.323935431, 96.390, 1324.0, 36.3868
17.350195997, 96.390, 1367.0, 36.9730
17.376456562, 96.390, 1322.0, 36.3593
17.402717127, 96.390, 1314.0, 36.2491
17.428977693, 96.390, 1391.0, 37.2961
17.455238258, 96.390, 1392.0, 37.3095
17.481498823, 96.390, 1369.0, 37.0000
17.507759389, 96.390, 1333.0, 36.5103
17.534019954, 96.390, 1428.0, 37.7889
17.560280520, 96.390, 1490.0, 38.6005
17.586541085, 96.390, 1420.0, 37.6829
17.612801650, 96.390, 1531.0, 39.1280
17.639062216, 96.390, 1633.0, 40.4104
17.665322781, 96.390, 1610.0, 40.1248
17.691583346, 96.390, 1558.0, 39.4715
17.717843912, 96.390, 1504.0, 38.7814
17.744104477, 96.390, 1446.0, 38.0263
17.770365042, 96.390, 1447.0, 38.0395
17.796625608, 96.390, 1480.0, 38.4708
17.822886173, 96.390, 1416.0, 37.6298
17.849146738, 96.390, 1384.0, 37.2022
17.875407304, 96.390, 1475.0, 38.4057
17.901667869, 96.390, 1369.0, 37.0000
17.927928434, 96.390, 1519.0, 38.9744
17.954189000, 96.390, 1491.0, 38.6135
17.980449565, 96.390, 1472.0, 38.3667
18.006710131, 96.390, 1573.0, 39.6611
18.032970696, 96.390, 1550.0, 39.3700
18.059231261, 96.390, 1641.0, 40.5093
18.085491827, 96.390, 1676.0, 40.9390
18.111752392, 96.390, 1749.0, 41.8210
18.138012957, 96.390, 1771.0, 42.0833
18.164273523, 96.390, 1911.0, 43.7150
18.190534088, 96.390, 2018.0, 44.9222
18.216794653, 96.390, 2184.0, 46.7333
18.243055219, 96.390, 2345.0, 48.4252
18.269315784, 96.390, 2580.0, 50.7937
18.295576349, 96.390, 2837.0, 53.2635
18.321836915, 96.390, 3052.0, 55.2449
18.348097480, 96.390, 3408.0, 58.3781
18.374358046, 96.390, 3691.0, 60.7536
18.400618611, 96.390, 4018.0, 63.3877
18.426879176, 96.390, 4604.0, 67.8528
18.453139742, 96.390, 4963.0, 70.4486
18.479400307, 96.390, 5330.0, 73.0068
18.505660872, 96.390, 5739.0, 75.7562
18.531921438, 96.390, 5811.0, 76.2299
18.558182003, 96.390, 6021.0, 77.5951
18.584442568, 96.390, 6198.0, 78.7274
18.610703134, 96.390, 6372.0, 79.8248
18.636963699, 96.390, 6669.0, 81.6639
18.663224264, 96.390, 6704.0, 81.8780
18.689484830, 96.390, 7076.0, 84.1190
18.715745395, 96.390, 7325.0, 85.5862
18.742005960, 96.390, 7474.0, 86.4523
18.768266526, 96.390, 7119.0, 84.3742
18.794527091, 96.390, 6445.0, 80.2808
18.820787657, 96.390, 5309.0, 72.8629
18.847048222, 96.390, 4323.0, 65.7495
18.873308787, 96.390, 3527.0, 59.3886
18.899569353, 96.390, 2974.0, 54.5344
18.925829918, 96.390, 2583.0, 50.8232
18.952090483, 96.390, 2365.0, 48.6313
18.978351049, 96.390, 2113.0, 45.9674
19.004611614, 96.390, 1891.0, 43.4856
19.030872179, 96.390, 1844.0, 42.9418
19.057132745, 96.390, 1697.0, 41.1947
19.083393310, 96.390, 1704.0, 41.2795
19.109653875, 96.390, 1669.0, 40.8534
19.135914441, 96.390, 1702.0, 41.2553
19.162175006, 96.390, 1614.0, 40.1746
19.188435572, 96.390, 1482.0, 38.4968
19.214696137, 96.390, 1463.0, 38.2492
19.240956702, 96.390, 1497.0, 38.6911
19.267217268, 96.390, 1560.0, 39.4968
19.293477833, 96.390, 1598.0, 39.9750
19.319738398, 96.390, 1626.0, 40.3237
19.345998964, 96.390, 1819.0, 42.6497
19.372259529, 96.390, 2039.0, 45.1553
19.398520094, 96.390, 2134.0, 46.1952
19.424780660, 96.390, 2217.0, 47.0850
19.451041225, 96.390, 1992.0, 44.6318
19.477301790, 96.390, 1828.0, 42.7551
19.503562356, 96.390, 1680.0, 40.9878
19.529822921, 96.390, 1551.0, 39.3827
19.556083486, 96.390, 1483.0, 38.5097
19.582344052, 96.390, 1569.0, 39.6106
19.608604617, 96.390, 1676.0, 40.9390
19.634865183, 96.390, 1699.0, 41.2189
19.661125748, 96.390, 1755.0, 41.8927
19.687386313, 96.390, 1798.0, 42.4028
19.713646879, 96.390, 1693.0, 41.1461
19.739907444, 96.390, 1711.0, 41.3642
19.766168009, 96.390, 1706.0, 41.3038
19.792428575, 96.390, 1805.0, 42.4853
19.818689140, 96.390, 1966.0, 44.3396
19.844949705, 96.390, 2274.0, 47.6865
19.871210271, 96.390, 2529.0, 50.2892
19.897470836, 96.390, 3152.0, 56.1427
19.923731401, 96.390, 3803.0, 61.6685
19.949991967, 96.390, 4453.0, 66.7308
19.976252532, 96.390, 4394.0, 66.2873
20.002513098, 96.390, 3688.0, 60.7289
20.028773663, 96.390, 3035.0, 55.0908
20.055034228, 96.390, 2519.0, 50.1896
20.081294794, 96.390, 2511.0, 50.1099
20.107555359, 96.390, 2856.0, 53.4416
20.133815924, 96.390, 3149.0, 56.1160
20.160076490, 96.390, 3739.0, 61.1474
20.186337055, 96.390, 4398.0, 66.3174
20.212597620, 96.390, 5475.0, 73.9932
20.238858186, 96.390, 6495.0, 80.5916
20.265118751, 96.390, 7292.0, 85.3932
20.291379316, 96.390, 7810.0, 88.3742
20.317639882, 96.390, 7418.0, 86.1278
20.343900447, 96.390, 7162.0, 84.6286
20.370161012, 96.390, 6555.0, 80.9630
20.396421578, 96.390, 6284.0, 79.2717
20.422682143, 96.390, 6074.0, 77.9359
20.448942709, 96.390, 5628.0, 75.0200
20.475203274, 96.390, 4763.0, 69.0145
20.501463839, 96.390, 4220.0, 64.9615
20.527724405, 96.390, 3895.0, 62.4099
20.553984970, 96.390, 3814.0, 61.7576
20.580245535, 96.390, 4089.0, 63.9453
20.606506101, 96.390, 4692.0, 68.4982
20.632766666, 96.390, 6016.0, 77.5629
20.659027231, 96.390, 7681.0, 87.6413
20.685287797, 96.390, 9484.0, 97.3858
20.711548362, 96.390, 9423.0, 97.0721
20.737808927, 96.390, 7340.0, 85.6738
20.764069493, 96.390, 5611.0, 74.9066
20.790330058, 96.390, 3627.0, 60.2246
20.816590623, 96.390, 2510.0, 50.0999
20.842851189, 96.390, 2214.0, 47.0532
20.869111754, 96.390, 1912.0, 43.7264
20.895372320, 96.390, 1728.0, 41.5692
20.921632885, 96.390, 1661.0, 40.7554
20.947893450, 96.390, 1651.0, 40.6325
20.974154016, 96.390, 1618.0, 40.2244
21.000414581, 96.390, 1480.0, 38.4708
21.026675146, 96.390, 1464.0, 38.2623
21.052935712, 96.390, 1432.0, 37.8418
21.079196277, 96.390, 1398.0, 37.3898
21.105456842, 96.390, 1356.0, 36.8239
21.131717408, 96.390, 1479.0, 38.4578
21.157977973, 96.390, 1402.0, 37.4433
21.184238538, 96.390, 1418.0, 37.6563
21.210499104, 96.390, 1427.0, 37.7757
21.236759669, 96.390, 1414.0, 37.6032
21.263020235, 96.390, 1453.0, 38.1182
21.289280800, 96.390, 1562.0, 39.5221
21.315541365, 96.390, 1646.0, 40.5709
21.341801931, 96.390, 1691.0, 41.1218
21.368062496, 96.390, 1653.0, 40.6571
21.394323061, 96.390, 1700.0, 41.2311
21.420583627, 96.390, 1657.0, 40.7063
21.446844192, 96.390, 1661.0, 40.7554
21.473104757, 96.390, 1746.0, 41.7852
21.499365323, 96.390, 1825.0, 42.7200
21.525625888, 96.390, 2060.0, 45.3872
21.551886453, 96.390, 2373.0, 48.7134
21.578147019, 96.390, 2804.0, 52.9528
21.604407584, 96.390, 3387.0, 58.1979
21.630668149, 96.390, 4157.0, 64.4748
21.656928715, 96.390, 4812.0, 69.3686
21.683189280, 96.390, 5196.0, 72.0833
21.709449846, 96.390, 4558.0, 67.5130
21.735710411, 96.390, 3644.0, 60.3656
21.761970976, 96.390, 2871.0, 53.5817
21.788231542, 96.390, 2105.0, 45.8803
21.814492107, 96.390, 1659.0, 40.7308
21.840752672, 96.390, 1522.0, 39.0128
21.867013238, 96.390, 1473.0, 38.3797
21.893273803, 96.390, 1351.0, 36.7560
21.919534368, 96.390, 1367.0, 36.9730
21.945794934, 96.390, 1317.0, 36.2905
21.972055499, 96.390, 1309.0, 36.1801
21.998316064, 96.390, 1273.0, 35.6791
22.024576630, 96.390, 1253.0, 35.3977
22.050837195, 96.390, 1277.0, 35.7351
22.077097761, 96.390, 1256.0, 35.4401
22.103358326, 96.390, 1205.0, 34.7131
22.129618891, 96.390, 1212.0, 34.8138
22.155879457, 96.390, 1287.0, 35.8748
22.182140022, 96.390, 1271.0, 35.6511
22.208400587, 96.390, 1305.0, 36.1248
22.234661153, 96.390, 1251.0, 35.3695
22.260921718, 96.390, 1188.0, 34.4674
22.287182283, 96.390, 1251.0, 35.3695
22.313442849, 96.390, 1184.0, 34.4093
22.339703414, 96.390, 1152.0, 33.9411
22.365963979, 96.390, 1170.0, 34.2053
22.392224545, 96.390, 1181.0, 34.3657
22.418485110, 96.390, 1183.0, 34.3948
22.444745675, 96.390, 1246.0, 35.2987
22.471006241, 96.390, 1209.0, 34.7707
22.497266806, 96.390, 1242.0, 35.2420
22.523527372, 96.390, 1246.0, 35.2987
22.549787937, 96.390, 1264.0, 35.5528
22.576048502, 96.390, 1275.0, 35.7071
22.602309068, 96.390, 1282.0, 35.8050
22.628569633, 96.390, 1329.0, 36.4555
22.654830198, 96.390, 1341.0, 36.6197
22.681090764, 96.390, 1404.0, 37.4700
22.707351329, 96.390, 1354.0, 36.7967
22.733611894, 96.390, 1470.0, 38.3406
22.759872460, 96.390, 1491.0, 38.6135
22.786133025, 96.390, 1622.0, 40.2741
22.812393590, 96.390, 1685.0, 41.0488
22.838654156, 96.390, 1773.0, 42.1070
22.864914721, 96.390, 1864.0, 43.1741
22.891175287, 96.390, 1872.0, 43.2666
22.917435852, 96.390, 1814.0, 42.5911
22.943696417, 96.390, 1809.0, 42.5323
22.969956983, 96.390, 1602.0, 40.0250
22.996217548, 96.390, 1585.0, 39.8121
23.022478113, 96.390, 1611.0, 40.1373
23.048738679, 96.390, 1688.0, 41.0853
23.074999244, 96.390, 1748.0, 41.8091
23.101259809, 96.390, 1753.0, 41.8688
23.127520375, 96.390, 1887.0, 43.4396
23.153780940, 96.390, 2017.0, 44.9110
23.180041505, 96.390, 1998.0, 44.6990
23.206302071, 96.390, 2112.0, 45.9565
23.232562636, 96.390, 2153.0, 46.4004
23.258823201, 96.390, 2232.0, 47.2440
23.285083767, 96.390, 2262.0, 47.5605
23.311344332, 96.390, 2488.0, 49.8799
23.337604898, 96.390, 2478.0, 49.7795
23.363865463, 96.390, 2688.0, 51.8459
23.390126028, 96.390, 2571.0, 50.7050
23.416386594, 96.390, 2687.0, 51.8363
23.442647159, 96.390, 2709.0, 52.0481
23.468907724, 96.390, 2716.0, 52.1153
23.495168290, 96.390, 2698.0, 51.9423
23.521428855, 96.390, 2777.0, 52.6972
23.547689420, 96.390, 2712.0, 52.0769
23.573949986, 96.390, 2674.0, 51.7107
23.600210551, 96.390, 2592.0, 50.9117
23.626471116, 96.390, 2494.0, 49.9400
23.652731682, 96.390, 2391.0, 48.8979
23.678992247, 96.390, 2281.0, 47.7598
23.705252813, 96.390, 2249.0, 47.4236
23.731513378, 96.390, 2171.0, 46.5940
23.757773943, 96.390, 2221.0, 47.1275
23.784034509, 96.390, 2220.0, 47.1169
23.810295074, 96.390, 2397.0, 48.9592
23.836555639, 96.390, 2654.0, 51.5170
23.862816205, 96.390, 2985.0, 54.6352
23.889076770, 96.390, 3534.0, 59.4475
23.915337335, 96.390, 4285.0, 65.4599
23.941597901, 96.390, 5375.0, 73.3144
23.967858466, 96.390, 6720.0, 81.9756
23.994119031, 96.390, 7490.0, 86.5448
24.020379597, 96.390, 6978.0, 83.5344
24.046640162, 96.390, 5858.0, 76.5376
24.072900727, 96.390, 4876.0, 69.8284
24.099161293, 96.390, 3666.0, 60.5475
24.125421858, 96.390, 3004.0, 54.8088
24.151682424, 96.390, 2606.0, 51.0490
24.177942989, 96.390, 2337.0, 48.3425
24.204203554, 96.390, 2025.0, 45.0000
24.230464120, 96.390, 1851.0, 43.0232
24.256724685, 96.390, 1715.0, 41.4126
24.282985250, 96.390, 1414.0, 37.6032
24.309245816, 96.390, 1328.0, 36.4417
24.335506381, 96.390, 1303.0, 36.0971
24.361766946, 96.390, 1361.0, 36.8917
24.388027512, 96.390, 1221.0, 34.9428
24.414288077, 96.390, 1239.0, 35.1994
24.440548642, 96.390, 1196.0, 34.5832
24.466809208, 96.390, 1153.0, 33.9559
24.493069773, 96.390, 1081.0, 32.8786
24.519330338, 96.390, 1151.0, 33.9264
24.545590904, 96.390, 1114.0, 33.3766
24.571851469, 96.390, 1069.0, 32.6956
24.598112035, 96.390, 1064.0, 32.6190
24.624372600, 96.390, 1065.0, 32.6343
24.650633165, 96.390, 1096.0, 33.1059
24.676893731, 96.390, 1047.0, 32.3574
24.703154296, 96.390, 1048.0, 32.3728
24.729414861, 96.390, 1122.0, 33.4963
24.755675427, 96.390, 1096.0, 33.1059
24.781935992, 96.390, 1023.0, 31.9844
24.808196557, 96.390, 1050.0, 32.4037
24.834457123, 96.390, 1035.0, 32.1714
24.860717688, 96.390, 1010.0, 31.7805
24.886978253, 96.390, 1082.0, 32.8938
24.913238819, 96.390, 1064.0, 32.6190
24.939499384, 96.390, 1021.0, 31.9531
24.965759950, 96.390, 1035.0, 32.1714
24.992020515, 96.390, 1077.0, 32.8177
25.018281080, 96.390, 1065.0, 32.6343
25.044541646, 96.390, 1084.0, 32.9242
25.070802211, 96.390, 1165.0, 34.1321
25.097062776, 96.390, 1149.0, 33.8969
25.123323342, 96.390, 1131.0, 33.6303
25.149583907, 96.390, 1085.0, 32.9393
25.175844472, 96.390, 1071.0, 32.7261
25.202105038, 96.390, 1136.0, 33.7046
25.228365603, 96.390, 1126.0, 33.5559
25.254626168, 96.390, 1157.0, 34.0147
25.280886734, 96.390, 1225.0, 35.0000
25.307147299, 96.390, 1369.0, 37.0000
25.333407864, 96.390, 1556.0, 39.4462
25.359668430, 96.390, 1860.0, 43.1277
25.385928995, 96.390, 2190.0, 46.7974
25.412189561, 96.390, 2559.0, 50.5866
25.438450126, 96.390, 2593.0, 50.9215
25.464710691, 96.390, 2353.0, 48.5077
25.490971257, 96.390, 1946.0, 44.1135
25.517231822, 96.390, 1648.0, 40.5956
25.543492387, 96.390, 1295.0, 35.9861
25.569752953, 96.390, 1167.0, 34.1614
25.596013518, 96.390, 1159.0, 34.0441
25.622274083, 96.390, 1092.0, 33.0454
25.648534649, 96.390, 1049.0, 32.3883
25.674795214, 96.390, 1046.0, 32.3419
25.701055779, 96.390, 1069.0, 32.6956
25.727316345, 96.390, 1020.0, 31.9374
25.753576910, 96.390, 1169.0, 34.1906
25.779837476, 96.390, 1062.0, 32.5883
25.806098041, 96.390, 1100.0, 33.1662
25.832358606, 96.390, 1061.0, 32.5730
25.858619172, 96.390, 1192.0, 34.5254
25.884879737, 96.390, 1267.0, 35.5949
25.911140302, 96.390, 1366.0, 36.9594
25.937400868, 96.390, 1400.0, 37.4166
25.963661433, 96.390, 1479.0, 38.4578
25.989921998, 96.390, 1524.0, 39.0384
26.016182564, 96.390, 1702.0, 41.2553
26.042443129, 96.390, 1872.0, 43.2666
26.068703694, 96.390, 2308.0, 48.0416
26.094964260, 96.390, 2531.0, 50.3090
26.121224825, 96.390, 2714.0, 52.0961
26.147485390, 96.390, 2611.0, 51.0979
26.173745956, 96.390, 2317.0, 48.1352
26.200006521, 96.390, 1981.0, 44.5084
26.226267087, 96.390, 1684.0, 41.0366
26.252527652, 96.390, 1426.0, 37.7624
26.278788217, 96.390, 1269.0, 35.6230
26.305048783, 96.390, 1268.0, 35.6090
26.331309348, 96.390, 1205.0, 34.7131
26.357569913, 96.390, 1236.0, 35.1568
26.383830479, 96.390, 1179.0, 34.3366
26.410091044, 96.390, 1194.0, 34.5543
26.436351609, 96.390, 1210.0, 34.7851
26.462612175, 96.390, 1148.0, 33.8821
26.488872740, 96.390, 1201.0, 34.6554
26.515133305, 96.390, 1198.0, 34.6121
26.541393871, 96.390, 1212.0, 34.8138
26.567654436, 96.390, 1135.0, 33.6898
26.593915002, 96.390, 1214.0, 34.8425
26.620175567, 96.390, 1156.0, 34.0000
26.646436132, 96.390, 1174.0, 34.2637
26.672696698, 96.390, 1181.0, 34.3657
26.698957263, 96.390, 1272.0, 35.6651
26.725217828, 96.390, 1313.0, 36.2353
26.751478394, 96.390, 1390.0, 37.2827
26.777738959, 96.390, 1487.0, 38.5616
26.803999524, 96.390, 1576.0, 39.6989
26.830260090, 96.390, 1564.0, 39.5474
26.856520655, 96.390, 1717.0, 41.4367
26.882781220, 96.390, 1671.0, 40.8779
26.909041786, 96.390, 1856.0, 43.0813
26.935302351, 96.390, 1938.0, 44.0227
26.961562916, 96.390, 2218.0, 47.0956
26.987823482, 96.390, 2520.0, 50.1996
27.014084047, 96.390, 3096.0, 55.6417
27.040344613, 96.390, 3882.0, 62.3057
27.066605178, 96.390, 5135.0, 71.6589
27.092865743, 96.390, 6297.0, 79.3536
27.119126309, 96.390, 7532.0, 86.7871
27.145386874, 96.390, 7885.0, 88.7975
27.171647439, 96.390, 7592.0, 87.1321
27.197908005, 96.390, 6569.0, 81.0494
27.224168570, 96.390, 5063.0, 71.1548
27.250429135, 96.390, 3845.0, 62.0081
27.276689701, 96.390, 2802.0, 52.9339
27.302950266, 96.390, 2161.0, 46.4866
27.329210831, 96.390, 1850.0, 43.0116
27.355471397, 96.390, 1763.0, 41.9881
27.381731962, 96.390, 1714.0, 41.4005
27.407992528, 96.390, 1577.0, 39.7115
27.434253093, 96.390, 1586.0, 39.8246
27.460513658, 96.390, 1571.0, 39.6358
27.486774224, 96.390, 1716.0, 41.4246
27.513034789, 96.390, 1646.0, 40.5709
27.539295354, 96.390, 1696.0, 41.1825
27.565555920, 96.390, 1657.0, 40.7063
27.591816485, 96.390, 1750.0, 41.8330
27.618077050, 96.390, 1884.0, 43.4051
27.644337616, 96.390, 1979.0, 44.4860
27.670598181, 96.390, 2098.0, 45.8039
27.696858746, 96.390, 2240.0, 47.3286
27.723119312, 96.390, 2288.0, 47.8330
27.749379877, 96.390, 2433.0, 49.3254
27.775640442, 96.390, 2457.0, 49.5681
27.801901008, 96.390, 2343.0, 48.4045
27.828161573, 96.390, 2376.0, 48.7442
27.854422139, 96.390, 2309.0, 48.0521
27.880682704, 96.390, 2210.0, 47.0106
27.906943269, 96.390, 2003.0, 44.7549
27.933203835, 96.390, 1887.0, 43.4396
27.959464400, 96.390, 1856.0, 43.0813
27.985724965, 96.390, 1848.0, 42.9884
28.011985531, 96.390, 1691.0, 41.1218
28.038246096, 96.390, 1541.0, 39.2556
28.064506661, 96.390, 1566.0, 39.5727
28.090767227, 96.390, 1472.0, 38.3667
28.117027792, 96.390, 1490.0, 38.6005
28.143288357, 96.390, 1423.0, 37.7227
28.169548923, 96.390, 1326.0, 36.4143
28.195809488, 96.390, 1268.0, 35.6090
28.222070054, 96.390, 1156.0, 34.0000
28.248330619, 96.390, 1164.0, 34.1174
28.274591184, 96.390, 1198.0, 34.6121
28.300851750, 96.390, 1203.0, 34.6843
28.327112315, 96.390, 1176.0, 34.2929
28.353372880, 96.390, 1161.0, 34.0735
28.379633446, 96.390, 1210.0, 34.7851
28.405894011, 96.390, 1122.0, 33.4963
28.432154576, 96.390, 1148.0, 33.8821
28.458415142, 96.390, 1150.0, 33.9116
28.484675707, 96.390, 1129.0, 33.6006
28.510936272, 96.390, 1160.0, 34.0588
28.537196838, 96.390, 1147.0, 33.8674
28.563457403, 96.390, 1134.0, 33.6749
28.589717968, 96.390, 1180.0, 34.3511
28.615978534, 96.390, 1184.0, 34.4093
28.642239099, 96.390, 1275.0, 35.7071
28.668499665, 96.390, 1325.0, 36.4005
28.694760230, 96.390, 1448.0, 38.0526
28.721020795, 96.390, 1497.0, 38.6911
28.747281361, 96.390, 1603.0, 40.0375
28.773541926, 96.390, 1576.0, 39.6989
28.799802491, 96.390, 1460.0, 38.2099
28.826063057, 96.390, 1375.0, 37.0810
28.852323622, 96.390, 1284.0, 35.8329
28.878584187, 96.390, 1199.0, 34.6266
28.904844753, 96.390, 1199.0, 34.6266
28.931105318, 96.390, 1175.0, 34.2783
28.957365883, 96.390, 1325.0, 36.4005
28.983626449, 96.390, 1404.0, 37.4700
29.009887014, 96.390, 1502.0, 38.7556
29.036147579, 96.390, 1699.0, 41.2189
29.062408145, 96.390, 1908.0, 43.6807
29.088668710, 96.390, 2010.0, 44.8330
29.114929276, 96.390, 1951.0, 44.1701
29.141189841, 96.390, 1748.0, 41.8091
29.167450406, 96.390, 1653.0, 40.6571
29.193710972, 96.390, 1489.0, 38.5876
29.219971537, 96.390, 1367.0, 36.9730
29.246232102, 96.390, 1279.0, 35.7631
29.272492668, 96.390, 1312.0, 36.2215
29.298753233, 96.390, 1344.0, 36.6606
29.325013798, 96.390, 1372.0, 37.0405
29.351274364, 96.390, 1393.0, 37.3229
29.377534929, 96.390, 1347.0, 36.7015
29.403795494, 96.390, 1306.0, 36.1386
29.430056060, 96.390, 1321.0, 36.3456
29.456316625, 96.390, 1258.0, 35.4683
29.482577191, 96.390, 1329.0, 36.4555
29.508837756, 96.390, 1343.0, 36.6470
29.535098321, 96.390, 1272.0, 35.6651
29.561358887, 96.390, 1267.0, 35.5949
29.587619452, 96.390, 1307.0, 36.1525
29.613880017, 96.390, 1378.0, 37.1214
29.640140583, 96.390, 1373.0, 37.0540
29.666401148, 96.390, 1353.0, 36.7831
29.692661713, 96.390, 1407.0, 37.5100
29.718922279, 96.390, 1504.0, 38.7814
29.745182844, 96.390, 1649.0, 40.6079
29.771443409, 96.390, 1904.0, 43.6348
29.797703975, 96.390, 2217.0, 47.0850
29.823964540, 96.390, 2663.0, 51.6043
29.850225105, 96.390, 3337.0, 57.7668
29.876485671, 96.390, 4282.0, 65.4370
29.902746236, 96.390, 5258.0, 72.5121
29.929006802, 96.390, 6529.0, 80.8022
29.955267367, 96.390, 7281.0, 85.3288
29.981527932, 96.390, 7103.0, 84.2793
30.007788498, 96.390, 5979.0, 77.3240
30.034049063, 96.390, 4937.0, 70.2638
30.060309628, 96.390, 3972.0, 63.0238
30.086570194, 96.390, 2947.0, 54.2863
30.112830759, 96.390, 2174.0, 46.6262
30.139091324, 96.390, 1804.0, 42.4735
30.165351890, 96.390, 1600.0, 40.0000
30.191612455, 96.390, 1458.0, 38.1838
30.217873020, 96.390, 1357.0, 36.8375
30.244133586, 96.390, 1349.0, 36.7287
30.270394151, 96.390, 1262.0, 35.5246
30.296654717, 96.390, 1184.0, 34.4093
30.322915282, 96.390, 1144.0, 33.8231
30.349175847, 96.390, 1162.0, 34.0881
30.375436413, 96.390, 1180.0, 34.3511
30.401696978, 96.390, 1147.0, 33.8674
30.427957543, 96.390, 1147.0, 33.8674
30.454218109, 96.390, 1202.0, 34.6699
30.480478674, 96.390, 1158.0, 34.0294
30.506739239, 96.390, 1214.0, 34.8425
30.532999805, 96.390, 1229.0, 35.0571
30.559260370, 96.390, 1318.0, 36.3043
30.585520935, 96.390, 1449.0, 38.0657
30.611781501, 96.390, 1644.0, 40.5463
30.638042066, 96.390, 1746.0, 41.7852
30.664302631, 96.390, 1805.0, 42.4853
30.690563197, 96.390, 1724.0, 41.5211
30.716823762, 96.390, 1827.0, 42.7434
30.743084328, 96.390, 1906.0, 43.6578
30.769344893, 96.390, 1994.0, 44.6542
30.795605458, 96.390, 2246.0, 47.3920
30.821866024, 96.390, 2473.0, 49.7293
30.848126589, 96.390, 2499.0, 49.9900
30.874387154, 96.390, 2310.0, 48.0625
30.900647720, 96.390, 2071.0, 45.5082
30.926908285, 96.390, 1954.0, 44.2041
30.953168850, 96.390, 1643.0, 40.5339
30.979429416, 96.390, 1488.0, 38.5746
31.005689981, 96.390, 1407.0, 37.5100
31.031950546, 96.390, 1332.0, 36.4966
31.058211112, 96.390, 1338.0, 36.5787
31.084471677, 96.390, 1486.0, 38.5487
31.110732243, 96.390, 1716.0, 41.4246
31.136992808, 96.390, 2097.0, 45.7930
31.163253373, 96.390, 2584.0, 50.8331
31.189513939, 96.390, 2907.0, 53.9166
31.215774504, 96.390, 2944.0, 54.2586
31.242035069, 96.390, 2506.0, 50.0600
31.268295635, 96.390, 2381.0, 48.7955
31.294556200, 96.390, 2183.0, 46.7226
31.320816765, 96.390, 1870.0, 43.2435
31.347077331, 96.390, 1642.0, 40.5216
31.373337896, 96.390, 1552.0, 39.3954
31.399598461, 96.390, 1456.0, 38.1576
31.425859027, 96.390, 1501.0, 38.7427
31.452119592, 96.390, 1501.0, 38.7427
31.478380157, 96.390, 1589.0, 39.8623
31.504640723, 96.390, 1698.0, 41.2068
31.530901288, 96.390, 1697.0, 41.1947
31.557161854, 96.390, 1678.0, 40.9634
31.583422419, 96.390, 1685.0, 41.0488
31.609682984, 96.390, 1647.0, 40.5832
31.635943550, 96.390, 1721.0, 41.4849
31.662204115, 96.390, 1483.0, 38.5097
31.688464680, 96.390, 1371.0, 37.0270
31.714725246, 96.390, 1342.0, 36.6333
31.740985811, 96.390, 1311.0, 36.2077
31.767246376, 96.390, 1312.0, 36.2215
31.793506942, 96.390, 1329.0, 36.4555
31.819767507, 96.390, 1434.0, 37.8682
31.846028072, 96.390, 1517.0, 38.9487
31.872288638, 96.390, 1898.0, 43.5660
31.898549203, 96.390, 2074.0, 45.5412
31.924809769, 96.390, 2525.0, 50.2494
31.951070334, 96.390, 3363.0, 57.9914
31.977330899, 96.390, 4518.0, 67.2161
32.003591465, 96.390, 5793.0, 76.1118
32.029852030, 96.390, 7241.0, 85.0941
32.056112595, 96.390, 7797.0, 88.3006
32.082373161, 96.390, 6954.0, 83.3906
32.108633726, 96.390, 5720.0, 75.6307
32.134894291, 96.390, 4811.0, 69.3614
32.161154857, 96.390, 4009.0, 63.3167
32.187415422, 96.390, 2866.0, 53.5350
32.213675987, 96.390, 2182.0, 46.7119
32.239936553, 96.390, 1925.0, 43.8748
32.266197118, 96.390, 1838.0, 42.8719
32.292457683, 96.390, 1802.0, 42.4500
32.318718249, 96.390, 1662.0, 40.7676
32.344978814, 96.390, 1642.0, 40.5216
32.371239380, 96.390, 1578.0, 39.7240
32.397499945, 96.390, 1555.0, 39.4335
32.423760510, 96.390, 1547.0, 39.3319
32.450021076, 96.390, 1676.0, 40.9390
32.476281641, 96.390, 1770.0, 42.0714
32.502542206, 96.390, 2105.0, 45.8803
32.528802772, 96.390, 2149.0, 46.3573
32.555063337, 96.390, 2345.0, 48.4252
32.581323902, 96.390, 2230.0, 47.2229
32.607584468, 96.390, 2064.0, 45.4313
32.633845033, 96.390, 1977.0, 44.4635
32.660105598, 96.390, 1734.0, 41.6413
32.686366164, 96.390, 1463.0, 38.2492
32.712626729, 96.390, 1385.0, 37.2156
32.738887295, 96.390, 1304.0, 36.1109
32.765147860, 96.390, 1264.0, 35.5528
32.791408425, 96.390, 1143.0, 33.8083
32.817668991, 96.390, 1125.0, 33.5410
32.843929556, 96.390, 1093.0, 33.0606
32.870190121, 96.390, 1087.0, 32.9697
32.896450687, 96.390, 1103.0, 33.2114
32.922711252, 96.390, 1081.0, 32.8786
32.948971817, 96.390, 1199.0, 34.6266
32.975232383, 96.390, 1159.0, 34.0441
33.001492948, 96.390, 1204.0, 34.6987
33.027753513, 96.390, 1286.0, 35.8608
33.054014079, 96.390, 1195.0, 34.5688
33.080274644, 96.390, 1242.0, 35.2420
33.106535209, 96.390, 1306.0, 36.1386
33.132795775, 96.390, 1346.0, 36.6879
33.159056340, 96.390, 1253.0, 35.3977
33.185316906, 96.390, 1343.0, 36.6470
33.211577471, 96.390, 1371.0, 37.0270
33.237838036, 96.390, 1373.0, 37.0540
33.264098602, 96.390, 1442.0, 37.9737
33.290359167, 96.390, 1458.0, 38.1838
33.316619732, 96.390, 1450.0, 38.0789
33.342880298, 96.390, 1570.0, 39.6232
33.369140863, 96.390, 1579.0, 39.7366
33.395401428, 96.390, 1678.0, 40.9634
33.421661994, 96.390, 1684.0, 41.0366
33.447922559, 96.390, 1547.0, 39.3319
33.474183124, 96.390, 1528.0, 39.0896
33.500443690, 96.390, 1463.0, 38.2492
33.526704255, 96.390, 1411.0, 37.5633
33.552964820, 96.390, 1386.0, 37.2290
33.579225386, 96.390, 1289.0, 35.9026
33.605485951, 96.390, 1352.0, 36.7696
33.631746517, 96.390, 1315.0, 36.2629
33.658007082, 96.390, 1394.0, 37.3363
33.684267647, 96.390, 1295.0, 35.9861
33.710528213, 96.390, 1326.0, 36.4143
33.736788778, 96.390, 1338.0, 36.5787
33.763049343, 96.390, 1381.0, 37.1618
33.789309909, 96.390, 1547.0, 39.3319
33.815570474, 96.390, 1760.0, 41.9524
33.841831039, 96.390, 1885.0, 43.4166
33.868091605, 96.390, 2292.0, 47.8748
33.894352170, 96.390, 2836.0, 53.2541
33.920612735, 96.390, 3247.0, 56.9825
33.946873301, 96.390, 3731.0, 61.0819
33.973133866, 96.390, 3526.0, 59.3801
33.999394432, 96.390, 3273.0, 57.2101
34.025654997, 96.390, 3275.0, 57.2276
34.051915562, 96.390, 3237.0, 56.8946
34.078176128, 96.390, 3096.0, 55.6417
34.104436693, 96.390, 3299.0, 57.4369
34.130697258, 96.390, 3886.0, 62.3378
34.156957824, 96.390, 4609.0, 67.8896
34.183218389, 96.390, 5084.0, 71.3022
34.209478954, 96.390, 5343.0, 73.0958
34.235739520, 96.390, 4639.0, 68.1102
34.262000085, 96.390, 4226.0, 65.0077
34.288260650, 96.390, 3739.0, 61.1474
34.314521216, 96.390, 3308.0, 57.5152
34.340781781, 96.390, 2756.0, 52.4976
34.367042346, 96.390, 2420.0, 49.1935
34.393302912, 96.390, 2413.0, 49.1223
34.419563477, 96.390, 2446.0, 49.4571
34.445824043, 96.390, 2346.0, 48.4355
34.472084608, 96.390, 2457.0, 49.5681
34.498345173, 96.390, 2351.0, 48.4871
34.524605739, 96.390, 2266.0, 47.6025
34.550866304, 96.390, 2364.0, 48.6210
34.577126869, 96.390, 2187.0, 46.7654
34.603387435, 96.390, 2208.0, 46.9894
34.629648000, 96.390, 2052.0, 45.2990
34.655908565, 96.390, 2053.0, 45.3100
34.682169131, 96.390, 2163.0, 46.5081
34.708429696, 96.390, 2215.0, 47.0638
34.734690261, 96.390, 2154.0, 46.4112
34.760950827, 96.390, 2383.0, 48.8160
34.787211392, 96.390, 2770.0, 52.6308
34.813471958, 96.390, 2981.0, 54.5985
34.839732523, 96.390, 3501.0, 59.1692
34.865993088, 96.390, 4143.0, 64.3661
34.892253654, 96.390, 4441.0, 66.6408
34.918514219, 96.390, 4674.0, 68.3667
34.944774784, 96.390, 4243.0, 65.1383
34.971035350, 96.390, 3904.0, 62.4820
34.997295915, 96.390, 3455.0, 58.7792
35.023556480, 96.390, 3065.0, 55.3624
35.049817046, 96.390, 2479.0, 49.7896
35.076077611, 96.390, 2116.0, 46.0000
35.102338176, 96.390, 1858.0, 43.1045
35.128598742, 96.390, 1753.0, 41.8688
35.154859307, 96.390, 1710.0, 41.3521
35.181119872, 96.390, 1647.0, 40.5832
35.207380438, 96.390, 1514.0, 38.9102
35.233641003, 96.390, 1508.0, 38.8330
35.259901569, 96.390, 1481.0, 38.4838
35.286162134, 96.390, 1444.0, 38.0000
35.312422699, 96.390, 1406.0, 37.4967
35.338683265, 96.390, 1436.0, 37.8946
35.364943830, 96.390, 1358.0, 36.8511
35.391204395, 96.390, 1394.0, 37.3363
35.417464961, 96.390, 1395.0, 37.3497
35.443725526, 96.390, 1353.0, 36.7831
35.469986091, 96.390, 1334.0, 36.5240
35.496246657, 96.390, 1287.0, 35.8748
35.522507222, 96.390, 1323.0, 36.3731
35.548767787, 96.390, 1370.0, 37.0135
35.575028353, 96.390, 1449.0, 38.0657
35.601288918, 96.390, 1565.0, 39.5601
35.627549484, 96.390, 1550.0, 39.3700
35.653810049, 96.390, 1490.0, 38.6005
35.680070614, 96.390, 1622.0, 40.2741
35.706331180, 96.390, 1675.0, 40.9268
35.732591745, 96.390, 1799.0, 42.4146
35.758852310, 96.390, 1824.0, 42.7083
35.785112876, 96.390, 1825.0, 42.7200
35.811373441, 96.390, 1680.0, 40.9878
35.837634006, 96.390, 1631.0, 40.3856
35.863894572, 96.390, 1592.0, 39.8999
35.890155137, 96.390, 1538.0, 39.2173
35.916415702, 96.390, 1509.0, 38.8458
35.942676268, 96.390, 1435.0, 37.8814
35.968936833, 96.390, 1318.0, 36.3043
35.995197398, 96.390, 1315.0, 36.2629
36.021457964, 96.390, 1314.0, 36.2491
36.047718529, 96.390, 1214.0, 34.8425
36.073979095, 96.390, 1318.0, 36.3043
36.100239660, 96.390, 1251.0, 35.3695
36.126500225, 96.390, 1340.0, 36.6060
36.152760791, 96.390, 1338.0, 36.5787
36.179021356, 96.390, 1410.0, 37.5500
36.205281921, 96.390, 1377.0, 37.1080
36.231542487, 96.390, 1364.0, 36.9324
36.257803052, 96.390, 1344.0, 36.6606
36.284063617, 96.390, 1338.0, 36.5787
36.310324183, 96.390, 1260.0, 35.4965
36.336584748, 96.390, 1233.0, 35.1141
36.362845313, 96.390, 1243.0, 35.2562
36.389105879, 96.390, 1254.0, 35.4119
36.415366444, 96.390, 1311.0, 36.2077
36.441627010, 96.390, 1287.0, 35.8748
36.467887575, 96.390, 1425.0, 37.7492
36.494148140, 96.390, 1485.0, 38.5357
36.520408706, 96.390, 1438.0, 37.9210
36.546669271, 96.390, 1560.0, 39.4968
36.572929836, 96.390, 1475.0, 38.4057
36.599190402, 96.390, 1449.0, 38.0657
36.625450967, 96.390, 1399.0, 37.4032
36.651711532, 96.390, 1264.0, 35.5528
36.677972098, 96.390, 1216.0, 34.8712
36.704232663, 96.390, 1199.0, 34.6266
36.730493228, 96.390, 1103.0, 33.2114
36.756753794, 96.390, 1031.0, 32.1092
36.783014359, 96.390, 1047.0, 32.3574
36.809274924, 96.390, 978.0, 31.2730
36.835535490, 96.390, 972.0, 31.1769
36.861796055, 96.390, 1023.0, 31.9844
36.888056621, 96.390, 910.0, 30.1662
36.914317186, 96.390, 948.0, 30.7896
36.940577751, 96.390, 968.0, 31.1127
36.966838317, 96.390, 992.0, 31.4960
36.993098882, 96.390, 980.0, 31.3050
37.019359447, 96.390, 1007.0, 31.7333
37.045620013, 96.390, 974.0, 31.2090
37.071880578, 96.390, 1028.0, 32.0624
37.098141143, 96.390, 1001.0, 31.6386
37.124401709, 96.390, 1049.0, 32.3883
37.150662274, 96.390, 1073.0, 32.7567
37.176922839, 96.390, 1007.0, 31.7333
37.203183405, 96.390, 1049.0, 32.3883
37.229443970, 96.390, 1045.0, 32.3265
37.255704535, 96.390, 1167.0, 34.1614
37.281965101, 96.390, 1114.0, 33.3766
37.308225666, 96.390, 1035.0, 32.1714
37.334486232, 96.390, 1225.0, 35.0000
37.360746797, 96.390, 1124.0, 33.5261
37.387007362, 96.390, 1155.0, 33.9853
37.413267928, 96.390, 1175.0, 34.2783
37.439528493, 96.390, 1174.0, 34.2637
37.465789058, 96.390, 1197.0, 34.5977
37.492049624, 96.390, 1270.0, 35.6371
37.518310189, 96.390, 1311.0, 36.2077
37.544570754, 96.390, 1385.0, 37.2156
37.570831320, 96.390, 1442.0, 37.9737
37.597091885, 96.390, 1484.0, 38.5227
37.623352450, 96.390, 1631.0, 40.3856
37.649613016, 96.390, 1735.0, 41.6533
37.675873581, 96.390, 1924.0, 43.8634
37.702134147, 96.390, 2033.0, 45.0888
37.728394712, 96.390, 2090.0, 45.7165
37.754655277, 96.390, 2074.0, 45.5412
37.780915843, 96.390, 1937.0, 44.0114
37.807176408, 96.390, 1973.0, 44.4185
37.833436973, 96.390, 1984.0, 44.5421
37.859697539, 96.390, 1768.0, 42.0476
37.885958104, 96.390, 1610.0, 40.1248
37.912218669, 96.390, 1548.0, 39.3446
37.938479235, 96.390, 1644.0, 40.5463
37.964739800, 96.390, 1610.0, 40.1248
37.991000365, 96.390, 1727.0, 41.5572
38.017260931, 96.390, 1832.0, 42.8019
38.043521496, 96.390, 1721.0, 41.4849
38.069782061, 96.390, 1681.0, 41.0000
38.096042627, 96.390, 1675.0, 40.9268
38.122303192, 96.390, 1609.0, 40.1123
38.148563758, 96.390, 1589.0, 39.8623
38.174824323, 96.390, 1653.0, 40.6571
38.201084888, 96.390, 1553.0, 39.4081
38.227345454, 96.390, 1407.0, 37.5100
38.253606019, 96.390, 1424.0, 37.7359
38.279866584, 96.390, 1307.0, 36.1525
38.306127150, 96.390, 1253.0, 35.3977
38.332387715, 96.390, 1174.0, 34.2637
38.358648280, 96.390, 1216.0, 34.8712
38.384908846, 96.390, 1270.0, 35.6371
38.411169411, 96.390, 1213.0, 34.8281
38.437429976, 96.390, 1248.0, 35.3270
38.463690542, 96.390, 1306.0, 36.1386
38.489951107, 96.390, 1245.0, 35.2846
38.516211673, 96.390, 1338.0, 36.5787
38.542472238, 96.390, 1298.0, 36.0278
38.568732803, 96.390, 1380.0, 37.1484
38.594993369, 96.390, 1335.0, 36.5377
38.621253934, 96.390, 1347.0, 36.7015
38.647514499, 96.390, 1489.0, 38.5876
38.673775065, 96.390, 1625.0, 40.3113
38.700035630, 96.390, 1701.0, 41.2432
38.726296195, 96.390, 1709.0, 41.3401
38.752556761, 96.390, 1854.0, 43.0581
38.778817326, 96.390, 1808.0, 42.5206
38.805077891, 96.390, 1635.0, 40.4351
38.831338457, 96.390, 1526.0, 39.0640
38.857599022, 96.390, 1526.0, 39.0640
38.883859587, 96.390, 1464.0, 38.2623
38.910120153, 96.390, 1321.0, 36.3456
38.936380718, 96.390, 1242.0, 35.2420
38.962641284, 96.390, 1220.0, 34.9285
38.988901849, 96.390, 1223.0, 34.9714
39.015162414, 96.390, 1261.0, 35.5106
39.041422980, 96.390, 1256.0, 35.4401
39.067683545, 96.390, 1225.0, 35.0000
39.093944110, 96.390, 1209.0, 34.7707
39.120204676, 96.390, 1256.0, 35.4401
39.146465241, 96.390, 1310.0, 36.1939
39.172725806, 96.390, 1443.0, 37.9868
39.198986372, 96.390, 1337.0, 36.5650
39.225246937, 96.390, 1433.0, 37.8550
39.251507502, 96.390, 1513.0, 38.8973
39.277768068, 96.390, 1573.0, 39.6611
39.304028633, 96.390, 1731.0, 41.6053
39.330289199, 96.390, 1954.0, 44.2041
39.356549764, 96.390, 2178.0, 46.6690
39.382810329, 96.390, 2505.0, 50.0500
39.409070895, 96.390, 2788.0, 52.8015
39.435331460, 96.390, 2880.0, 53.6656
39.461592025, 96.390, 2643.0, 51.4101
39.487852591, 96.390, 2487.0, 49.8698
39.514113156, 96.390, 2368.0, 48.6621
39.540373721, 96.390, 2258.0, 47.5184
39.566634287, 96.390, 2225.0, 47.1699
39.592894852, 96.390, 1828.0, 42.7551
39.619155417, 96.390, 1809.0, 42.5323
39.645415983, 96.390, 1715.0, 41.4126
39.671676548, 96.390, 1644.0, 40.5463
39.697937113, 96.390, 1546.0, 39.3192
39.724197679, 96.390, 1484.0, 38.5227
39.750458244, 96.390, 1510.0, 38.8587
39.776718810, 96.390, 1505.0, 38.7943
39.802979375, 96.390, 1401.0, 37.4299
39.829239940, 96.390, 1493.0, 38.6394
39.855500506, 96.390, 1477.0, 38.4318
39.881761071, 96.390, 1465.0, 38.2753
39.908021636, 96.390, 1437.0, 37.9078
39.934282202, 96.390, 1519.0, 38.9744
39.960542767, 96.390, 1490.0, 38.6005
39.986803332, 96.390, 1557.0, 39.4588
40.013063898, 96.390, 1671.0, 40.8779
40.039324463, 96.390, 1780.0, 42.1900
40.065585028, 96.390, 1844.0, 42.9418
40.091845594, 96.390, 2045.0, 45.2217
40.118106159, 96.390, 2147.0, 46.3357
40.144366725, 96.390, 2240.0, 47.3286
40.170627290, 96.390, 2275.0, 47.6970
40.196887855, 96.390, 2233.0, 47.2546
40.223148421, 96.390, 2367.0, 48.6518
40.249408986, 96.390, 2521.0, 50.2096
40.275669551, 96.390, 2469.0, 49.6890
40.301930117, 96.390, 2597.0, 50.9608
40.328190682, 96.390, 2710.0, 52.0577
40.354451247, 96.390, 3055.0, 55.2721
40.380711813, 96.390, 3208.0, 56.6392
40.406972378, 96.390, 3442.0, 58.6686
40.433232943, 96.390, 3833.0, 61.9112
40.459493509, 96.390, 4080.0, 63.8749
40.485754074, 96.390, 4251.0, 65.1997
40.512014639, 96.390, 4592.0, 67.7643
40.538275205, 96.390, 4694.0, 68.5128
40.564535770, 96.390, 4722.0, 68.7168
40.590796336, 96.390, 4566.0, 67.5722
40.617056901, 96.390, 4322.0, 65.7419
40.643317466, 96.390, 3921.0, 62.6179
40.669578032, 96.390, 3691.0, 60.7536
40.695838597, 96.390, 3345.0, 57.8360
40.722099162, 96.390, 3001.0, 54.7814
40.748359728, 96.390, 2502.0, 50.0200
40.774620293, 96.390, 2295.0, 47.9062
40.800880858, 96.390, 1955.0, 44.2154
40.827141424, 96.390, 1929.0, 43.9204
40.853401989, 96.390, 1717.0, 41.4367
40.879662554, 96.390, 1595.0, 39.9375
40.905923120, 96.390, 1482.0, 38.4968
40.932183685, 96.390, 1416.0, 37.6298
40.958444251, 96.390, 1445.0, 38.0132
40.984704816, 96.390, 1403.0, 37.4566
41.010965381, 96.390, 1444.0, 38.0000
41.037225947, 96.390, 1263.0, 35.5387
41.063486512, 96.390, 1328.0, 36.4417
41.089747077, 96.390, 1285.0, 35.8469
41.116007643, 96.390, 1232.0, 35.0999
41.142268208, 96.390, 1244.0, 35.2704
41.168528773, 96.390, 1373.0, 37.0540
41.194789339, 96.390, 1312.0, 36.2215
41.221049904, 96.390, 1413.0, 37.5899
41.247310469, 96.390, 1506.0, 38.8072
41.273571035, 96.390, 1663.0, 40.7799
41.299831600, 96.390, 1903.0, 43.6234
41.326092165, 96.390, 2168.0, 46.5618
41.352352731, 96.390, 2264.0, 47.5815
41.378613296, 96.390, 2279.0, 47.7389
41.404873862, 96.390, 2130.0, 46.1519
41.431134427, 96.390, 2005.0, 44.7772
41.457394992, 96.390, 2072.0, 45.5192
41.483655558, 96.390, 2057.0, 45.3542
41.509916123, 96.390, 2005.0, 44.7772
41.536176688, 96.390, 1979.0, 44.4860
41.562437254, 96.390, 1805.0, 42.4853
41.588697819, 96.390, 1678.0, 40.9634
41.614958384, 96.390, 1672.0, 40.8901
41.641218950, 96.390, 1559.0, 39.4842
41.667479515, 96.390, 1443.0, 37.9868
41.693740080, 96.390, 1352.0, 36.7696
41.720000646, 96.390, 1328.0, 36.4417
41.746261211, 96.390, 1241.0, 35.2278
41.772521776, 96.390, 1193.0, 34.5398
41.798782342, 96.390, 1133.0, 33.6601
41.825042907, 96.390, 1212.0, 34.8138
41.851303473, 96.390, 1088.0, 32.9848
41.877564038, 96.390, 1093.0, 33.0606
41.903824603, 96.390, 1110.0, 33.3167
41.930085169, 96.390, 1129.0, 33.6006
41.956345734, 96.390, 1171.0, 34.2199
41.982606299, 96.390, 1035.0, 32.1714
42.008866865, 96.390, 1118.0, 33.4365
42.035127430, 96.390, 1260.0, 35.4965
42.061387995, 96.390, 1344.0, 36.6606
42.087648561, 96.390, 1387.0, 37.2424
42.113909126, 96.390, 1561.0, 39.5095
42.140169691, 96.390, 1643.0, 40.5339
42.166430257, 96.390, 1588.0, 39.8497
42.192690822, 96.390, 1546.0, 39.3192
42.218951388, 96.390, 1638.0, 40.4722
42.245211953, 96.390, 1553.0, 39.4081
42.271472518, 96.390, 1511.0, 38.8716
42.297733084, 96.390, 1290.0, 35.9166
42.323993649, 96.390, 1267.0, 35.5949
42.350254214, 96.390, 1231.0, 35.0856
42.376514780, 96.390, 1097.0, 33.1210
42.402775345, 96.390, 1065.0, 32.6343
42.429035910, 96.390, 1091.0, 33.0303
42.455296476, 96.390, 1125.0, 33.5410
42.481557041, 96.390, 1192.0, 34.5254
42.507817606, 96.390, 1228.0, 35.0428
42.534078172, 96.390, 1297.0, 36.0139
42.560338737, 96.390, 1229.0, 35.0571
42.586599302, 96.390, 1241.0, 35.2278
42.612859868, 96.390, 1158.0, 34.0294
42.639120433, 96.390, 1126.0, 33.5559
42.665380999, 96.390, 1143.0, 33.8083
42.691641564, 96.390, 1059.0, 32.5423
42.717902129, 96.390, 989.0, 31.4484
42.744162695, 96.390, 957.0, 30.9354
42.770423260, 96.390, 1009.0, 31.7648
42.796683825, 96.390, 1021.0, 31.9531
42.822944391, 96.390, 1100.0, 33.1662
42.849204956, 96.390, 1136.0, 33.7046
42.875465521, 96.390, 1152.0, 33.9411
42.901726087, 96.390, 1103.0, 33.2114
42.927986652, 96.390, 1112.0, 33.3467
42.954247217, 96.390, 991.0, 31.4802
42.980507783, 96.390, 1054.0, 32.4654
43.006768348, 96.390, 949.0, 30.8058
43.033028914, 96.390, 922.0, 30.3645
43.059289479, 96.390, 921.0, 30.3480
43.085550044, 96.390, 902.0, 30.0333
43.111810610, 96.390, 973.0, 31.1929
43.138071175, 96.390, 931.0, 30.5123
43.164331740, 96.390, 878.0, 29.6311
43.190592306, 96.390, 876.0, 29.5973
43.216852871, 96.390, 892.0, 29.8664
43.243113436, 96.390, 882.0, 29.6985
43.269374002, 96.390, 948.0, 30.7896
43.295634567, 96.390, 916.0, 30.2655
43.321895132, 96.390, 839.0, 28.9655
43.348155698, 96.390, 876.0, 29.5973
43.374416263, 96.390, 974.0, 31.2090
43.400676828, 96.390, 936.0, 30.5941
43.426937394, 96.390, 949.0, 30.8058
43.453197959, 96.390, 1017.0, 31.8904
43.479458525, 96.390, 1106.0, 33.2566
43.505719090, 96.390, 1121.0, 33.4813
43.531979655, 96.390, 1238.0, 35.1852
43.558240221, 96.390, 1249.0, 35.3412
43.584500786, 96.390, 1300.0, 36.0555
43.610761351, 96.390, 1297.0, 36.0139
43.637021917, 96.390, 1494.0, 38.6523
43.663282482, 96.390, 1473.0, 38.3797
43.689543047, 96.390, 1752.0, 41.8569
43.715803613, 96.390, 1904.0, 43.6348
43.742064178, 96.390, 1921.0, 43.8292
43.768324743, 96.390, 1886.0, 43.4281
43.794585309, 96.390, 1666.0, 40.8167
43.820845874, 96.390, 1613.0, 40.1622
43.847106440, 96.390, 1619.0, 40.2368
43.873367005, 96.390, 1524.0, 39.0384
43.899627570, 96.390, 1443.0, 37.9868
43.925888136, 96.390, 1307.0, 36.1525
43.952148701, 96.390, 1138.0, 33.7343
43.978409266, 96.390, 1157.0, 34.0147
44.004669832, 96.390, 1115.0, 33.3916
44.030930397, 96.390, 1154.0, 33.9706
44.057190962, 96.390, 1173.0, 34.2491
44.083451528, 96.390, 1235.0, 35.1426
44.109712093, 96.390, 1349.0, 36.7287
44.135972658, 96.390, 1473.0, 38.3797
44.162233224, 96.390, 1511.0, 38.8716
44.188493789, 96.390, 1617.0, 40.2119
44.214754354, 96.390, 1624.0, 40.2989
44.241014920, 96.390, 1619.0, 40.2368
44.267275485, 96.390, 1593.0, 39.9124
44.293536051, 96.390, 1572.0, 39.6485
44.319796616, 96.390, 1587.0, 39.8372
44.346057181, 96.390, 1651.0, 40.6325
44.372317747, 96.390, 1566.0, 39.5727
44.398578312, 96.390, 1443.0, 37.9868
44.424838877, 96.390, 1386.0, 37.2290
44.451099443, 96.390, 1261.0, 35.5106
44.477360008, 96.390, 1249.0, 35.3412
44.503620573, 96.390, 1147.0, 33.8674
44.529881139, 96.390, 1097.0, 33.1210
44.556141704, 96.390, 994.0, 31.5278
44.582402269, 96.390, 925.0, 30.4138
44.608662835, 96.390, 916.0, 30.2655
44.634923400, 96.390, 881.0, 29.6816
44.661183966, 96.390, 861.0, 29.3428
44.687444531, 96.390, 899.0, 29.9833
44.713705096, 96.390, 923.0, 30.3809
44.739965662, 96.390, 937.0, 30.6105
44.766226227, 96.390, 989.0, 31.4484
44.792486792, 96.390, 1044.0, 32.3110
44.818747358, 96.390, 1091.0, 33.0303
44.845007923, 96.390, 1082.0, 32.8938
44.871268488, 96.390, 1112.0, 33.3467
44.897529054, 96.390, 1081.0, 32.8786
44.923789619, 96.390, 1052.0, 32.4345
44.950050184, 96.390, 1109.0, 33.3017
44.976310750, 96.390, 1057.0, 32.5115
45.002571315, 96.390, 1090.0, 33.0151
45.028831880, 96.390, 1228.0, 35.0428
45.055092446, 96.390, 1318.0, 36.3043
45.081353011, 96.390, 1383.0, 37.1887
45.107613577, 96.390, 1463.0, 38.2492
45.133874142, 96.390, 1416.0, 37.6298
45.160134707, 96.390, 1372.0, 37.0405
45.186395273, 96.390, 1315.0, 36.2629
45.212655838, 96.390, 1409.0, 37.5366
45.238916403, 96.390, 1469.0, 38.3275
45.265176969, 96.390, 1478.0, 38.4448
45.291437534, 96.390, 1458.0, 38.1838
45.317698099, 96.390, 1510.0, 38.8587
45.343958665, 96.390, 1458.0, 38.1838
45.370219230, 96.390, 1433.0, 37.8550
45.396479795, 96.390, 1466.0, 38.2884
45.422740361, 96.390, 1653.0, 40.6571
45.449000926, 96.390, 1594.0, 39.9249
45.475261492, 96.390, 1696.0, 41.1825
45.501522057, 96.390, 1515.0, 38.9230
45.527782622, 96.390, 1357.0, 36.8375
45.554043188, 96.390, 1362.0, 36.9053
45.580303753, 96.390, 1396.0, 37.3631
45.606564318, 96.390, 1335.0, 36.5377
45.632824884, 96.390, 1275.0, 35.7071
45.659085449, 96.390, 1125.0, 33.5410
45.685346014, 96.390, 1134.0, 33.6749
45.711606580, 96.390, 1125.0, 33.5410
45.737867145, 96.390, 1101.0, 33.1813
45.764127710, 96.390, 1103.0, 33.2114
45.790388276, 96.390, 1086.0, 32.9545
45.816648841, 96.390, 1193.0, 34.5398
45.842909406, 96.390, 1099.0, 33.1512
45.869169972, 96.390, 1066.0, 32.6497
45.895430537, 96.390, 1116.0, 33.4066
45.921691103, 96.390, 1077.0, 32.8177
45.947951668, 96.390, 1022.0, 31.9687
45.974212233, 96.390, 1075.0, 32.7872
46.000472799, 96.390, 1059.0, 32.5423
46.026733364, 96.390, 1100.0, 33.1662
46.052993929, 96.390, 1035.0, 32.1714
46.079254495, 96.390, 1134.0, 33.6749
46.105515060, 96.390, 1124.0, 33.5261
46.131775625, 96.390, 1080.0, 32.8634
46.158036191, 96.390, 1149.0, 33.8969
46.184296756, 96.390, 1230.0, 35.0714
46.210557321, 96.390, 1326.0, 36.4143
46.236817887, 96.390, 1412.0, 37.5766
46.263078452, 96.390, 1308.0, 36.1663
46.289339017, 96.390, 1292.0, 35.9444
46.315599583, 96.390, 1199.0, 34.6266
46.341860148, 96.390, 1255.0, 35.4260
46.368120714, 96.390, 1250.0, 35.3553
46.394381279, 96.390, 1222.0, 34.9571
46.420641844, 96.390, 1142.0, 33.7935
46.446902410, 96.390, 1110.0, 33.3167
46.473162975, 96.390, 1042.0, 32.2800
46.499423540, 96.390, 971.0, 31.1609
46.525684106, 96.390, 1043.0, 32.2955
46.551944671, 96.390, 1009.0, 31.7648
46.578205236, 96.390, 1022.0, 31.9687
46.604465802, 96.390, 1051.0, 32.4191
46.630726367, 96.390, 1090.0, 33.0151
46.656986932, 96.390, 1057.0, 32.5115
46.683247498, 96.390, 1084.0, 32.9242
46.709508063, 96.390, 1144.0, 33.8231
46.735768629, 96.390, 1096.0, 33.1059
46.762029194, 96.390, 1147.0, 33.8674
46.788289759, 96.390, 1180.0, 34.3511
46.814550325, 96.390, 1246.0, 35.2987
46.840810890, 96.390, 1370.0, 37.0135
46.867071455, 96.390, 1337.0, 36.5650
46.893332021, 96.390, 1410.0, 37.5500
46.919592586, 96.390, 1525.0, 39.0512
46.945853151, 96.390, 1659.0, 40.7308
46.972113717, 96.390, 1747.0, 41.7971
46.998374282, 96.390, 1716.0, 41.4246
47.024634847, 96.390, 1645.0, 40.5586
47.050895413, 96.390, 1558.0, 39.4715
47.077155978, 96.390, 1614.0, 40.1746
47.103416543, 96.390, 1512.0, 38.8844
47.129677109, 96.390, 1538.0, 39.2173
47.155937674, 96.390, 1427.0, 37.7757
47.182198240, 96.390, 1450.0, 38.0789
47.208458805, 96.390, 1544.0, 39.2938
47.234719370, 96.390, 1501.0, 38.7427
47.260979936, 96.390, 1583.0, 39.7869
47.287240501, 96.390, 1737.0, 41.6773
47.313501066, 96.390, 1654.0, 40.6694
47.339761632, 96.390, 1629.0, 40.3609
47.366022197, 96.390, 1604.0, 40.0500
47.392282762, 96.390, 1466.0, 38.2884
47.418543328, 96.390, 1399.0, 37.4032
47.444803893, 96.390, 1430.0, 37.8153
47.471064458, 96.390, 1357.0, 36.8375
47.497325024, 96.390, 1247.0, 35.3129
47.523585589, 96.390, 1137.0, 33.7194
47.549846155, 96.390, 1056.0, 32.4962
47.576106720, 96.390, 1012.0, 31.8119
47.602367285, 96.390, 962.0, 31.0161
47.628627851, 96.390, 940.0, 30.6594
47.654888416, 96.390, 930.0, 30.4959
47.681148981, 96.390, 967.0, 31.0966
47.707409547, 96.390, 923.0, 30.3809
47.733670112, 96.390, 924.0, 30.3974
47.759930677, 96.390, 944.0, 30.7246
47.786191243, 96.390, 913.0, 30.2159
47.812451808, 96.390, 1015.0, 31.8591
47.838712373, 96.390, 1031.0, 32.1092
47.864972939, 96.390, 1004.0, 31.6860
47.891233504, 96.390, 1178.0, 34.3220
47.917494069, 96.390, 1202.0, 34.6699
47.943754635, 96.390, 1212.0, 34.8138
47.970015200, 96.390, 1192.0, 34.5254
47.996275766, 96.390, 1227.0, 35.0286
48.022536331, 96.390, 1201.0, 34.6554
48.048796896, 96.390, 1201.0, 34.6554
48.075057462, 96.390, 1249.0, 35.3412
48.101318027, 96.390, 1314.0, 36.2491
48.127578592, 96.390, 1256.0, 35.4401
48.153839158, 96.390, 1104.0, 33.2265
48.180099723, 96.390, 1038.0, 32.2180
48.206360288, 96.390, 1093.0, 33.0606
48.232620854, 96.390, 1059.0, 32.5423
48.258881419, 96.390, 968.0, 31.1127
48.285141984, 96.390, 931.0, 30.5123
48.311402550, 96.390, 893.0, 29.8831
48.337663115, 96.390, 929.0, 30.4795
48.363923681, 96.390, 929.0, 30.4795
48.390184246, 96.390, 1016.0, 31.8748
48.416444811, 96.390, 1079.0, 32.8481
48.442705377, 96.390, 1137.0, 33.7194
48.468965942, 96.390, 1186.0, 34.4384
48.495226507, 96.390, 1229.0, 35.0571
48.521487073, 96.390, 1173.0, 34.2491
48.547747638, 96.390, 1089.0, 33.0000
48.574008203, 96.390, 1023.0, 31.9844
48.600268769, 96.390, 1055.0, 32.4808
48.626529334, 96.390, 991.0, 31.4802
48.652789899, 96.390, 951.0, 30.8383
48.679050465, 96.390, 851.0, 29.1719
48.705311030, 96.390, 827.0, 28.7576
48.731571595, 96.390, 838.0, 28.9482
48.757832161, 96.390, 787.0, 28.0535
48.784092726, 96.390, 781.0, 27.9464
48.810353292, 96.390, 777.0, 27.8747
48.836613857, 96.390, 797.0, 28.2312
48.862874422, 96.390, 767.0, 27.6948
48.889134988, 96.390, 803.0, 28.3373
48.915395553, 96.390, 779.0, 27.9106
48.941656118, 96.390, 827.0, 28.7576
48.967916684, 96.390, 850.0, 29.1548
48.994177249, 96.390, 849.0, 29.1376
49.020437814, 96.390, 823.0, 28.6880
49.046698380, 96.390, 836.0, 28.9137
49.072958945, 96.390, 890.0, 29.8329
49.099219510, 96.390, 903.0, 30.0500
49.125480076, 96.390, 947.0, 30.7734
49.151740641, 96.390, 902.0, 30.0333
49.178001207, 96.390, 955.0, 30.9031
49.204261772, 96.390, 951.0, 30.8383
49.230522337, 96.390, 862.0, 29.3598
49.256782903, 96.390, 940.0, 30.6594
49.283043468, 96.390, 847.0, 29.1033
49.309304033, 96.390, 859.0, 29.3087
49.335564599, 96.390, 864.0, 29.3939
49.361825164, 96.390, 802.0, 28.3196
49.388085729, 96.390, 836.0, 28.9137
49.414346295, 96.390, 789.0, 28.0891
49.440606860, 96.390, 808.0, 28.4253
49.466867425, 96.390, 819.0, 28.6182
49.493127991, 96.390, 854.0, 29.2233
49.519388556, 96.390, 846.0, 29.0861
49.545649121, 96.390, 847.0, 29.1033
49.571909687, 96.390, 843.0, 29.0345
49.598170252, 96.390, 843.0, 29.0345
49.624430818, 96.390, 851.0, 29.1719
49.650691383, 96.390, 969.0, 31.1288
49.676951948, 96.390, 950.0, 30.8221
49.703212514, 96.390, 969.0, 31.1288
49.729473079, 96.390, 1021.0, 31.9531
49.755733644, 96.390, 938.0, 30.6268
49.781994210, 96.390, 915.0, 30.2490
49.808254775, 96.390, 901.0, 30.0167
49.834515340, 96.390, 882.0, 29.6985
49.860775906, 96.390, 919.0, 30.3150
49.887036471, 96.390, 852.0, 29.1890
49.913297036, 96.390, 826.0, 28.7402
49.939557602, 96.390, 780.0, 27.9285
49.965818167, 96.390, 767.0, 27.6948
49.992078733, 96.390, 727.0, 26.9629
50.018339298, 96.390, 765.0, 27.6586
50.044599863, 96.390, 788.0, 28.0713
50.070860429, 96.390, 746.0, 27.3130
50.097120994, 96.390, 759.0, 27.5500
50.123381559, 96.390, 847.0, 29.1033
50.149642125, 96.390, 915.0, 30.2490
50.175902690, 96.390, 1049.0, 32.3883
50.202163255, 96.390, 1131.0, 33.6303
50.228423821, 96.390, 1151.0, 33.9264
50.254684386, 96.390, 1202.0, 34.6699
50.280944951, 96.390, 1103.0, 33.2114
50.307205517, 96.390, 1037.0, 32.2025
50.333466082, 96.390, 979.0, 31.2890
50.359726647, 96.390, 950.0, 30.8221
50.385987213, 96.390, 978.0, 31.2730
50.412247778, 96.390, 886.0, 29.7658
50.438508344, 96.390, 871.0, 29.5127
50.464768909, 96.390, 855.0, 29.2404
50.491029474, 96.390, 810.0, 28.4605
50.517290040, 96.390, 818.0, 28.6007
50.543550605, 96.390, 749.0, 27.3679
50.569811170, 96.390, 762.0, 27.6043
50.596071736, 96.390, 737.0, 27.1477
50.622332301, 96.390, 741.0, 27.2213
50.648592866, 96.390, 758.0, 27.5318
50.674853432, 96.390, 727.0, 26.9629
50.701113997, 96.390, 752.0, 27.4226
50.727374562, 96.390, 757.0, 27.5136
50.753635128, 96.390, 775.0, 27.8388
50.779895693, 96.390, 709.0, 26.6271
50.806156258, 96.390, 765.0, 27.6586
50.832416824, 96.390, 733.0, 27.0740
50.858677389, 96.390, 790.0, 28.1069
50.884937955, 96.390, 755.0, 27.4773
50.911198520, 96.390, 786.0, 28.0357
50.937459085, 96.390, 748.0, 27.3496
50.963719651, 96.390, 783.0, 27.9821
50.989980216, 96.390, 730.0, 27.0185
51.016240781, 96.390, 795.0, 28.1957
51.042501347, 96.390, 822.0, 28.6705
51.068761912, 96.390, 845.0, 29.0689
51.095022477, 96.390, 826.0, 28.7402
51.121283043, 96.390, 851.0, 29.1719
51.147543608, 96.390, 914.0, 30.2324
51.173804173, 96.390, 937.0, 30.6105
51.200064739, 96.390, 987.0, 31.4166
51.226325304, 96.390, 1003.0, 31.6702
51.252585870, 96.390, 980.0, 31.3050
51.278846435, 96.390, 910.0, 30.1662
51.305107000, 96.390, 885.0, 29.7489
51.331367566, 96.390, 855.0, 29.2404
51.357628131, 96.390, 868.0, 29.4618
51.383888696, 96.390, 839.0, 28.9655
51.410149262, 96.390, 769.0, 27.7308
51.436409827, 96.390, 801.0, 28.3019
51.462670392, 96.390, 766.0, 27.6767
51.488930958, 96.390, 780.0, 27.9285
51.515191523, 96.390, 743.0, 27.2580
51.541452088, 96.390, 758.0, 27.5318
51.567712654, 96.390, 774.0, 27.8209
51.593973219, 96.390, 722.0, 26.8701
51.620233784, 96.390, 753.0, 27.4408
51.646494350, 96.390, 766.0, 27.6767
51.672754915, 96.390, 691.0, 26.2869
51.699015481, 96.390, 844.0, 29.0517
51.725276046, 96.390, 796.0, 28.2135
51.751536611, 96.390, 859.0, 29.3087
51.777797177, 96.390, 862.0, 29.3598
51.804057742, 96.390, 891.0, 29.8496
51.830318307, 96.390, 858.0, 29.2916
51.856578873, 96.390, 838.0, 28.9482
51.882839438, 96.390, 858.0, 29.2916
51.909100003, 96.390, 802.0, 28.3196
51.935360569, 96.390, 891.0, 29.8496
51.961621134, 96.390, 892.0, 29.8664
51.987881699, 96.390, 962.0, 31.0161
52.014142265, 96.390, 1046.0, 32.3419
52.040402830, 96.390, 1001.0, 31.6386
52.066663396, 96.390, 1070.0, 32.7109
52.092923961, 96.390, 1175.0, 34.2783
52.119184526, 96.390, 1194.0, 34.5543
52.145445092, 96.390, 1319.0, 36.3180
52.171705657, 96.390, 1397.0, 37.3765
52.197966222, 96.390, 1363.0, 36.9188
52.224226788, 96.390, 1443.0, 37.9868
52.250487353, 96.390, 1395.0, 37.3497
52.276747918, 96.390, 1382.0, 37.1753
52.303008484, 96.390, 1434.0, 37.8682
52.329269049, 96.390, 1286.0, 35.8608
52.355529614, 96.390, 1356.0, 36.8239
52.381790180, 96.390, 1318.0, 36.3043
52.408050745, 96.390, 1201.0, 34.6554
52.434311310, 96.390, 1168.0, 34.1760
52.460571876, 96.390, 1210.0, 34.7851
52.486832441, 96.390, 1244.0, 35.2704
52.513093007, 96.390, 1266.0, 35.5809
52.539353572, 96.390, 1536.0, 39.1918
52.565614137, 96.390, 1652.0, 40.6448
52.591874703, 96.390, 1817.0, 42.6263
52.618135268, 96.390, 2034.0, 45.0999
52.644395833, 96.390, 1981.0, 44.5084
52.670656399, 96.390, 2041.0, 45.1774
52.696916964, 96.390, 1908.0, 43.6807
52.723177529, 96.390, 1909.0, 43.6921
52.749438095, 96.390, 1782.0, 42.2137
52.775698660, 96.390, 1720.0, 41.4729
52.801959225, 96.390, 1726.0, 41.5452
52.828219791, 96.390, 1713.0, 41.3884
52.854480356, 96.390, 1672.0, 40.8901
52.880740922, 96.390, 1652.0, 40.6448
52.907001487, 96.390, 1662.0, 40.7676
52.933262052, 96.390, 1655.0, 40.6817
52.959522618, 96.390, 1697.0, 41.1947
52.985783183, 96.390, 1824.0, 42.7083
53.012043748, 96.390, 1871.0, 43.2551
53.038304314, 96.390, 1943.0, 44.0795
53.064564879, 96.390, 2011.0, 44.8442
53.090825444, 96.390, 2138.0, 46.2385
53.117086010, 96.390, 2106.0, 45.8912
53.143346575, 96.390, 2156.0, 46.4327
53.169607140, 96.390, 2171.0, 46.5940
53.195867706, 96.390, 2058.0, 45.3652
53.222128271, 96.390, 1986.0, 44.5646
53.248388836, 96.390, 1840.0, 42.8952
53.274649402, 96.390, 1768.0, 42.0476
53.300909967, 96.390, 1651.0, 40.6325
53.327170533, 96.390, 1610.0, 40.1248
53.353431098, 96.390, 1502.0, 38.7556
53.379691663, 96.390, 1384.0, 37.2022
53.405952229, 96.390, 1272.0, 35.6651
53.432212794, 96.390, 1224.0, 34.9857
53.458473359, 96.390, 1183.0, 34.3948
53.484733925, 96.390, 1091.0, 33.0303
53.510994490, 96.390, 1113.0, 33.3617
53.537255055, 96.390, 1062.0, 32.5883
53.563515621, 96.390, 924.0, 30.3974
53.589776186, 96.390, 913.0, 30.2159
53.616036751, 96.390, 878.0, 29.6311
53.642297317, 96.390, 872.0, 29.5296
53.668557882, 96.390, 843.0, 29.0345
53.694818448, 96.390, 820.0, 28.6356
53.721079013, 96.390, 842.0, 29.0172
53.747339578, 96.390, 791.0, 28.1247
53.773600144, 96.390, 835.0, 28.8964
53.799860709, 96.390, 840.0, 28.9828
53.826121274, 96.390, 800.0, 28.2843
53.852381840, 96.390, 827.0, 28.7576
53.878642405, 96.390, 849.0, 29.1376
53.904902970, 96.390, 856.0, 29.2575
53.931163536, 96.390, 829.0, 28.7924
53.957424101, 96.390, 862.0, 29.3598
53.983684666, 96.390, 849.0, 29.1376
54.009945232, 96.390, 858.0, 29.2916
54.036205797, 96.390, 901.0, 30.0167
54.062466362, 96.390, 958.0, 30.9516
54.088726928, 96.390, 1032.0, 32.1248
54.114987493, 96.390, 1071.0, 32.7261
54.141248059, 96.390, 1056.0, 32.4962
54.167508624, 96.390, 1086.0, 32.9545
54.193769189, 96.390, 1121.0, 33.4813
54.220029755, 96.390, 1250.0, 35.3553
54.246290320, 96.390, 1273.0, 35.6791
54.272550885, 96.390, 1406.0, 37.4967
54.298811451, 96.390, 1377.0, 37.1080
54.325072016, 96.390, 1422.0, 37.7094
54.351332581, 96.390, 1357.0, 36.8375
54.377593147, 96.390, 1223.0, 34.9714
54.403853712, 96.390, 1208.0, 34.7563
54.430114277, 96.390, 1118.0, 33.4365
54.456374843, 96.390, 1050.0, 32.4037
54.482635408, 96.390, 1045.0, 32.3265
54.508895973, 96.390, 975.0, 31.2250
54.535156539, 96.390, 869.0, 29.4788
54.561417104, 96.390, 814.0, 28.5307
54.587677670, 96.390, 780.0, 27.9285
54.613938235, 96.390, 763.0, 27.6225
54.640198800, 96.390, 692.0, 26.3059
54.666459366, 96.390, 691.0, 26.2869
54.692719931, 96.390, 725.0, 26.9258
54.718980496, 96.390, 713.0, 26.7021
54.745241062, 96.390, 676.0, 26.0000
54.771501627, 96.390, 680.0, 26.0768
54.797762192, 96.390, 680.0, 26.0768
54.824022758, 96.390, 691.0, 26.2869
54.850283323, 96.390, 726.0, 26.9444
54.876543888, 96.390, 736.0, 27.1293
54.902804454, 96.390, 707.0, 26.5895
54.929065019, 96.390, 697.0, 26.4008
54.955325585, 96.390, 647.0, 25.4362
54.981586150, 96.390, 633.0, 25.1595
55.007846715, 96.390, 702.0, 26.4953
55.034107281, 96.390, 704.0, 26.5330
55.060367846, 96.390, 622.0, 24.9399
55.086628411, 96.390, 641.0, 25.3180
55.112888977, 96.390, 619.0, 24.8797
55.139149542, 96.390, 599.0, 24.4745
55.165410107, 96.390, 683.0, 26.1343
55.191670673, 96.390, 622.0, 24.9399
55.217931238, 96.390, 534.0, 23.1084
55.244191803, 96.390, 565.0, 23.7697
55.270452369, 96.390, 644.0, 25.3772
55.296712934, 96.390, 620.0, 24.8998
55.322973499, 96.390, 638.0, 25.2587
55.349234065, 96.390, 643.0, 25.3574
55.375494630, 96.390, 643.0, 25.3574
55.401755196, 96.390, 628.0, 25.0599
55.428015761, 96.390, 657.0, 25.6320
55.454276326, 96.390, 725.0, 26.9258
55.480536892, 96.390, 725.0, 26.9258
55.506797457, 96.390, 723.0, 26.8887
55.533058022, 96.390, 801.0, 28.3019
55.559318588, 96.390, 794.0, 28.1780
55.585579153, 96.390, 835.0, 28.8964
55.611839718, 96.390, 790.0, 28.1069
55.638100284, 96.390, 763.0, 27.6225
55.664360849, 96.390, 831.0, 28.8271
55.690621414, 96.390, 714.0, 26.7208
55.716881980, 96.390, 804.0, 28.3549
55.743142545, 96.390, 756.0, 27.4955
55.769403111, 96.390, 827.0, 28.7576
55.795663676, 96.390, 807.0, 28.4077
55.821924241, 96.390, 753.0, 27.4408
55.848184807, 96.390, 702.0, 26.4953
55.874445372, 96.390, 726.0, 26.9444
55.900705937, 96.390, 712.0, 26.6833
55.926966503, 96.390, 691.0, 26.2869
55.953227068, 96.390, 718.0, 26.7955
55.979487633, 96.390, 698.0, 26.4197
56.005748199, 96.390, 655.0, 25.5930
56.032008764, 96.390, 654.0, 25.5734
56.058269329, 96.390, 696.0, 26.3818
56.084529895, 96.390, 728.0, 26.9815
56.110790460, 96.390, 675.0, 25.9808
56.137051025, 96.390, 646.0, 25.4165
56.163311591, 96.390, 656.0, 25.6125
56.189572156, 96.390, 649.0, 25.4755
56.215832722, 96.390, 646.0, 25.4165
56.242093287, 96.390, 635.0, 25.1992
56.268353852, 96.390, 651.0, 25.5147
56.294614418, 96.390, 593.0, 24.3516
56.320874983, 96.390, 672.0, 25.9230
56.347135548, 96.390, 684.0, 26.1534
56.373396114, 96.390, 616.0, 24.8193
56.399656679, 96.390, 709.0, 26.6271
56.425917244, 96.390, 834.0, 28.8791
56.452177810, 96.390, 858.0, 29.2916
56.478438375, 96.390, 780.0, 27.9285
56.504698940, 96.390, 925.0, 30.4138
56.530959506, 96.390, 899.0, 29.9833
56.557220071, 96.390, 844.0, 29.0517
56.583480637, 96.390, 816.0, 28.5657
56.609741202, 96.390, 807.0, 28.4077
56.636001767, 96.390, 773.0, 27.8029
56.662262333, 96.390, 766.0, 27.6767
56.688522898, 96.390, 842.0, 29.0172
56.714783463, 96.390, 734.0, 27.0924
56.741044029, 96.390, 727.0, 26.9629
56.767304594, 96.390, 648.0, 25.4558
56.793565159, 96.390, 657.0, 25.6320
56.819825725, 96.390, 751.0, 27.4044
56.846086290, 96.390, 750.0, 27.3861
56.872346855, 96.390, 713.0, 26.7021
56.898607421, 96.390, 738.0, 27.1662
56.924867986, 96.390, 666.0, 25.8070
56.951128551, 96.390, 631.0, 25.1197
56.977389117, 96.390, 666.0, 25.8070
57.003649682, 96.390, 740.0, 27.2029
57.029910248, 96.390, 755.0, 27.4773
57.056170813, 96.390, 770.0, 27.7489
57.082431378, 96.390, 704.0, 26.5330
57.108691944, 96.390, 780.0, 27.9285
57.134952509, 96.390, 754.0, 27.4591
57.161213074, 96.390, 792.0, 28.1425
57.187473640, 96.390, 791.0, 28.1247
57.213734205, 96.390, 775.0, 27.8388
57.239994770, 96.390, 777.0, 27.8747
57.266255336, 96.390, 754.0, 27.4591
57.292515901, 96.390, 833.0, 28.8617
57.318776466, 96.390, 833.0, 28.8617
57.345037032, 96.390, 806.0, 28.3901
57.371297597, 96.390, 799.0, 28.2666
57.397558163, 96.390, 889.0, 29.8161
57.423818728, 96.390, 832.0, 28.8444
57.450079293, 96.390, 982.0, 31.3369
57.476339859, 96.390, 932.0, 30.5287
57.502600424, 96.390, 1018.0, 31.9061
57.528860989, 96.390, 1062.0, 32.5883
57.555121555, 96.390, 1128.0, 33.5857
57.581382120, 96.390, 1096.0, 33.1059
57.607642685, 96.390, 995.0, 31.5436
57.633903251, 96.390, 987.0, 31.4166
57.660163816, 96.390, 964.0, 31.0483
57.686424381, 96.390, 957.0, 30.9354
57.712684947, 96.390, 973.0, 31.1929
57.738945512, 96.390, 892.0, 29.8664
57.765206077, 96.390, 830.0, 28.8097
57.791466643, 96.390, 835.0, 28.8964
57.817727208, 96.390, 758.0, 27.5318
57.843987774, 96.390, 693.0, 26.3249
57.870248339, 96.390, 739.0, 27.1846
57.896508904, 96.390, 783.0, 27.9821
57.922769470, 96.390, 720.0, 26.8328
57.949030035, 96.390, 763.0, 27.6225
57.975290600, 96.390, 832.0, 28.8444
58.001551166, 96.390, 827.0, 28.7576
58.027811731, 96.390, 942.0, 30.6920
58.054072296, 96.390, 896.0, 29.9333
58.080332862, 96.390, 907.0, 30.1164
58.106593427, 96.390, 774.0, 27.8209
58.132853992, 96.390, 820.0, 28.6356
58.159114558, 96.390, 738.0, 27.1662
58.185375123, 96.390, 797.0, 28.2312
58.211635689, 96.390, 819.0, 28.6182
58.237896254, 96.390, 743.0, 27.2580
58.264156819, 96.390, 710.0, 26.6458
58.290417385, 96.390, 672.0, 25.9230
58.316677950, 96.390, 608.0, 24.6577
58.342938515, 96.390, 641.0, 25.3180
58.369199081, 96.390, 623.0, 24.9600
58.395459646, 96.390, 604.0, 24.5764
58.421720211, 96.390, 641.0, 25.3180
58.447980777, 96.390, 663.0, 25.7488
58.474241342, 96.390, 694.0, 26.3439
58.500501907, 96.390, 784.0, 28.0000
58.526762473, 96.390, 894.0, 29.8998
58.553023038, 96.390, 889.0, 29.8161
58.579283603, 96.390, 982.0, 31.3369
58.605544169, 96.390, 978.0, 31.2730
58.631804734, 96.390, 1111.0, 33.3317
58.658065300, 96.390, 1046.0, 32.3419
58.684325865, 96.390, 985.0, 31.3847
58.710586430, 96.390, 914.0, 30.2324
58.736846996, 96.390, 941.0, 30.6757
58.763107561, 96.390, 927.0, 30.4467
58.789368126, 96.390, 853.0, 29.2062
58.815628692, 96.390, 893.0, 29.8831
58.841889257, 96.390, 817.0, 28.5832
58.868149822, 96.390, 746.0, 27.3130
58.894410388, 96.390, 723.0, 26.8887
58.920670953, 96.390, 700.0, 26.4575
58.946931518, 96.390, 740.0, 27.2029
58.973192084, 96.390, 659.0, 25.6710
58.999452649, 96.390, 714.0, 26.7208
59.025713214, 96.390, 677.0, 26.0192
59.051973780, 96.390, 691.0, 26.2869
59.078234345, 96.390, 706.0, 26.5707
59.104494911, 96.390, 765.0, 27.6586
59.130755476, 96.390, 762.0, 27.6043
59.157016041, 96.390, 785.0, 28.0179
59.183276607, 96.390, 803.0, 28.3373
59.209537172, 96.390, 807.0, 28.4077
59.235797737, 96.390, 870.0, 29.4958
59.262058303, 96.390, 829.0, 28.7924
59.288318868, 96.390, 820.0, 28.6356
59.314579433, 96.390, 819.0, 28.6182
59.340839999, 96.390, 738.0, 27.1662
59.367100564, 96.390, 742.0, 27.2397
59.393361129, 96.390, 755.0, 27.4773
59.419621695, 96.390, 786.0, 28.0357
59.445882260, 96.390, 760.0, 27.5681
59.472142826, 96.390, 756.0, 27.4955
59.498403391, 96.390, 713.0, 26.7021
59.524663956, 96.390, 761.0, 27.5862
59.550924522, 96.390, 688.0, 26.2298
59.577185087, 96.390, 739.0, 27.1846
59.603445652, 96.390, 679.0, 26.0576
59.629706218, 96.390, 695.0, 26.3629
59.655966783, 96.390, 635.0, 25.1992
59.682227348, 96.390, 658.0, 25.6515
59.708487914, 96.390, 686.0, 26.1916
59.734748479, 96.390, 724.0, 26.9072
59.761009044, 96.390, 721.0, 26.8514
59.787269610, 96.390, 747.0, 27.3313
59.813530175, 96.390, 726.0, 26.9444
59.839790740, 96.390, 710.0, 26.6458
59.866051306, 96.390, 682.0, 26.1151
59.892311871, 96.390, 682.0, 26.1151
59.918572437, 96.390, 691.0, 26.2869
59.944833002, 96.390, 734.0, 27.0924
59.971093567, 96.390, 678.0, 26.0384
59.997354133, 96.390, 727.0, 26.9629
60.023614698, 96.390, 735.0, 27.1109
60.049875263, 96.390, 687.0, 26.2107
60.076135829, 96.390, 736.0, 27.1293
60.102396394, 96.390, 694.0, 26.3439
60.128656959, 96.390, 727.0, 26.9629
60.154917525, 96.390, 710.0, 26.6458
60.181178090, 96.390, 822.0, 28.6705
60.207438655, 96.390, 807.0, 28.4077
60.233699221, 96.390, 709.0, 26.6271
60.259959786, 96.390, 782.0, 27.9643
60.286220352, 96.390, 786.0, 28.0357
60.312480917, 96.390, 699.0, 26.4386
60.338741482, 96.390, 745.0, 27.2947
60.365002048, 96.390, 716.0, 26.7582
60.391262613, 96.390, 664.0, 25.7682
60.417523178, 96.390, 689.0, 26.2488
60.443783744, 96.390, 657.0, 25.6320
60.470044309, 96.390, 671.0, 25.9037
60.496304874, 96.390, 693.0, 26.3249
60.522565440, 96.390, 671.0, 25.9037
60.548826005, 96.390, 713.0, 26.7021
60.575086570, 96.390, 726.0, 26.9444
60.601347136, 96.390, 826.0, 28.7402
60.627607701, 96.390, 829.0, 28.7924
60.653868266, 96.390, 947.0, 30.7734
60.680128832, 96.390, 1017.0, 31.8904
60.706389397, 96.390, 1060.0, 32.5576
60.732649963, 96.390, 1238.0, 35.1852
60.758910528, 96.390, 1315.0, 36.2629
60.785171093, 96.390, 1365.0, 36.9459
60.811431659, 96.390, 1411.0, 37.5633
60.837692224, 96.390, 1453.0, 38.1182
60.863952789, 96.390, 1352.0, 36.7696
60.890213355, 96.390, 1284.0, 35.8329
60.916473920, 96.390, 1173.0, 34.2491
60.942734485, 96.390, 1140.0, 33.7639
60.968995051, 96.390, 1143.0, 33.8083
60.995255616, 96.390, 1062.0, 32.5883
61.021516181, 96.390, 987.0, 31.4166
61.047776747, 96.390, 907.0, 30.1164
61.074037312, 96.390, 832.0, 28.8444
61.100297878, 96.390, 823.0, 28.6880
61.126558443, 96.390, 767.0, 27.6948
61.152819008, 96.390, 774.0, 27.8209
61.179079574, 96.390, 746.0, 27.3130
61.205340139, 96.390, 750.0, 27.3861
61.231600704, 96.390, 746.0, 27.3130
61.257861270, 96.390, 794.0, 28.1780
61.284121835, 96.390, 749.0, 27.3679
61.310382400, 96.390, 765.0, 27.6586
61.336642966, 96.390, 712.0, 26.6833
61.362903531, 96.390, 752.0, 27.4226
61.389164096, 96.390, 791.0, 28.1247
61.415424662, 96.390, 780.0, 27.9285
61.441685227, 96.390, 863.0, 29.3769
61.467945792, 96.390, 797.0, 28.2312
61.494206358, 96.390, 747.0, 27.3313
61.520466923, 96.390, 726.0, 26.9444
61.546727489, 96.390, 690.0, 26.2679
61.572988054, 96.390, 673.0, 25.9422
61.599248619, 96.390, 697.0, 26.4008
61.625509185, 96.390, 691.0, 26.2869
61.651769750, 96.390, 707.0, 26.5895
61.678030315, 96.390, 692.0, 26.3059
61.704290881, 96.390, 690.0, 26.2679
61.730551446, 96.390, 674.0, 25.9615
61.756812011, 96.390, 663.0, 25.7488
61.783072577, 96.390, 686.0, 26.1916
61.809333142, 96.390, 748.0, 27.3496
61.835593707, 96.390, 679.0, 26.0576
61.861854273, 96.390, 687.0, 26.2107
61.888114838, 96.390, 732.0, 27.0555
61.914375404, 96.390, 737.0, 27.1477
61.940635969, 96.390, 757.0, 27.5136
61.966896534, 96.390, 759.0, 27.5500
61.993157100, 96.390, 797.0, 28.2312
62.019417665, 96.390, 893.0, 29.8831
62.045678230, 96.390, 963.0, 31.0322
62.071938796, 96.390, 1016.0, 31.8748
62.098199361, 96.390, 1097.0, 33.1210
62.124459926, 96.390, 1105.0, 33.2415
62.150720492, 96.390, 1225.0, 35.0000
62.176981057, 96.390, 1270.0, 35.6371
62.203241622, 96.390, 1204.0, 34.6987
62.229502188, 96.390, 1224.0, 34.9857
62.255762753, 96.390, 1177.0, 34.3074
62.282023318, 96.390, 1123.0, 33.5112
62.308283884, 96.390, 1106.0, 33.2566
62.334544449, 96.390, 1086.0, 32.9545
62.360805015, 96.390, 994.0, 31.5278
62.387065580, 96.390, 947.0, 30.7734
62.413326145, 96.390, 893.0, 29.8831
62.439586711, 96.390, 870.0, 29.4958
62.465847276, 96.390, 820.0, 28.6356
62.492107841, 96.390, 730.0, 27.0185
62.518368407, 96.390, 784.0, 28.0000
62.544628972, 96.390, 713.0, 26.7021
62.570889537, 96.390, 800.0, 28.2843
62.597150103, 96.390, 783.0, 27.9821
62.623410668, 96.390, 787.0, 28.0535
62.649671233, 96.390, 798.0, 28.2489
62.675931799, 96.390, 844.0, 29.0517
62.702192364, 96.390, 885.0, 29.7489
62.728452930, 96.390, 825.0, 28.7228
62.754713495, 96.390, 844.0, 29.0517
62.780974060, 96.390, 833.0, 28.8617
62.807234626, 96.390, 785.0, 28.0179
62.833495191, 96.390, 797.0, 28.2312
62.859755756, 96.390, 707.0, 26.5895
62.886016322, 96.390, 693.0, 26.3249
62.912276887, 96.390, 696.0, 26.3818
62.938537452, 96.390, 669.0, 25.8650
62.964798018, 96.390, 641.0, 25.3180
62.991058583, 96.390, 619.0, 24.8797
63.017319148, 96.390, 565.0, 23.7697
63.043579714, 96.390, 575.0, 23.9792
63.069840279, 96.390, 567.0, 23.8118
63.096100844, 96.390, 536.0, 23.1517
63.122361410, 96.390, 517.0, 22.7376
63.148621975, 96.390, 590.0, 24.2899
63.174882541, 96.390, 543.0, 23.3024
63.201143106, 96.390, 547.0, 23.3880
63.227403671, 96.390, 629.0, 25.0799
63.253664237, 96.390, 643.0, 25.3574
63.279924802, 96.390, 593.0, 24.3516
63.306185367, 96.390, 570.0, 23.8747
63.332445933, 96.390, 636.0, 25.2190
63.358706498, 96.390, 634.0, 25.1794
63.384967063, 96.390, 621.0, 24.9199
63.411227629, 96.390, 625.0, 25.0000
63.437488194, 96.390, 633.0, 25.1595
63.463748759, 96.390, 671.0, 25.9037
63.490009325, 96.390, 665.0, 25.7876
63.516269890, 96.390, 697.0, 26.4008
63.542530455, 96.390, 710.0, 26.6458
63.568791021, 96.390, 730.0, 27.0185
63.595051586, 96.390, 783.0, 27.9821
63.621312152, 96.390, 875.0, 29.5804
63.647572717, 96.390, 932.0, 30.5287
63.673833282, 96.390, 986.0, 31.4006
63.700093848, 96.390, 1085.0, 32.9393
63.726354413, 96.390, 1154.0, 33.9706
63.752614978, 96.390, 1193.0, 34.5398
63.778875544, 96.390, 1214.0, 34.8425
63.805136109, 96.390, 1227.0, 35.0286
63.831396674, 96.390, 1229.0, 35.0571
63.857657240, 96.390, 1161.0, 34.0735
63.883917805, 96.390, 1091.0, 33.0303
63.910178370, 96.390, 1053.0, 32.4500
63.936438936, 96.390, 1074.0, 32.7719
63.962699501, 96.390, 1087.0, 32.9697
63.988960067, 96.390, 1030.0, 32.0936
64.015220632, 96.390, 956.0, 30.9192
64.041481197, 96.390, 877.0, 29.6142
64.067741763, 96.390, 914.0, 30.2324
64.094002328, 96.390, 836.0, 28.9137
64.120262893, 96.390, 856.0, 29.2575
64.146523459, 96.390, 868.0, 29.4618
64.172784024, 96.390, 878.0, 29.6311
64.199044589, 96.390, 986.0, 31.4006
64.225305155, 96.390, 940.0, 30.6594
64.251565720, 96.390, 997.0, 31.5753
64.277826285, 96.390, 974.0, 31.2090
64.304086851, 96.390, 993.0, 31.5119
64.330347416, 96.390, 993.0, 31.5119
64.356607981, 96.390, 937.0, 30.6105
64.382868547, 96.390, 870.0, 29.4958
64.409129112, 96.390, 894.0, 29.8998
64.435389678, 96.390, 803.0, 28.3373
64.461650243, 96.390, 834.0, 28.8791
64.487910808, 96.390, 793.0, 28.1603
64.514171374, 96.390, 762.0, 27.6043
64.540431939, 96.390, 714.0, 26.7208
64.566692504, 96.390, 637.0, 25.2389
64.592953070, 96.390, 670.0, 25.8844
64.619213635, 96.390, 602.0, 24.5357
64.645474200, 96.390, 641.0, 25.3180
64.671734766, 96.390, 601.0, 24.5153
64.697995331, 96.390, 555.0, 23.5584
64.724255896, 96.390, 589.0, 24.2693
64.750516462, 96.390, 619.0, 24.8797
64.776777027, 96.390, 644.0, 25.3772
64.803037593, 96.390, 618.0, 24.8596
64.829298158, 96.390, 603.0, 24.5561
64.855558723, 96.390, 590.0, 24.2899
64.881819289, 96.390, 603.0, 24.5561
64.908079854, 96.390, 579.0, 24.0624
64.934340419, 96.390, 547.0, 23.3880
64.960600985, 96.390, 572.0, 23.9165
64.986861550, 96.390, 604.0, 24.5764
