[Measurement conditions],,,
Sample identification,AlCorner31Jan22_Act12Feb23_B1_0833M_NaOH_LS0153,,
Comment - 1,"Configuration=Reflection-Transmission Spinner 3.0, Owner=arr19, Creation date=3/22/2023 1:21:48 PM",,
Comment - 2,Goniometer=Theta/Theta; Minimum step size 2Theta:0.0001; Minimum step size Omega:0.0001,,
Comment - 3,Sample stage=Reflection-transmission spinner 3.0; Minimum step size Phi:0.1,,
Comment - 5,"Measurement program=X:\XRD\Cement\Spinner_for_cement.xrdmp, Created identifier={6DF360EA-8E6E-4CFC-907C-F1BFECF51AA2}, Created by=Titus Reed, Id=tmr79, Creation date=2/15/2023 11:27:56 AM",,
Anode material,Cu,,
K-Alpha1 wavelength,1.540598,,
K-Alpha2 wavelength,1.544426,,
Ratio K-Alpha2/K-Alpha1,0.5,,
Divergence slit,Fixed,0.125,
Monochromator used,NO,,
Generator voltage,45,,
Tube current,40,,
File date and time,3/22/2023 14:37,,
Unit cell,,,
h k l, 0 0 0,,
Scan axis,Gonio,,
Scan range,4.994599997,64.99999183,
Scan step size,0.0262606,,
No. of points,2285,,
Scan type,CONTINUOUS,,
Phi,263.4,,
Time per step,96.39,,
[Scan points],,,
Angle, TimePerStep, Intensity, ESD
5.00773028,96.39,1166,34.1467
5.033990845,96.39,1104,33.2265
5.060251411,96.39,1169,34.1906
5.086511976,96.39,1123,33.5112
5.112772541,96.39,1137,33.7194
5.139033107,96.39,1109,33.3017
5.165293672,96.39,1093,33.0606
5.191554237,96.39,1083,32.909
5.217814803,96.39,1120,33.4664
5.244075368,96.39,1018,31.9061
5.270335934,96.39,1064,32.619
5.296596499,96.39,1085,32.9393
5.322857064,96.39,1069,32.6956
5.34911763,96.39,1031,32.1092
5.375378195,96.39,1053,32.45
5.40163876,96.39,1058,32.5269
5.427899326,96.39,999,31.607
5.454159891,96.39,1070,32.7109
5.480420456,96.39,1047,32.3574
5.506681022,96.39,1055,32.4808
5.532941587,96.39,1052,32.4345
5.559202152,96.39,1069,32.6956
5.585462718,96.39,1000,31.6228
5.611723283,96.39,1005,31.7017
5.637983849,96.39,1054,32.4654
5.664244414,96.39,1058,32.5269
5.690504979,96.39,998,31.5911
5.716765545,96.39,1080,32.8634
5.74302611,96.39,1052,32.4345
5.769286675,96.39,1029,32.078
5.795547241,96.39,1038,32.218
5.821807806,96.39,1027,32.0468
5.848068371,96.39,1010,31.7805
5.874328937,96.39,1037,32.2025
5.900589502,96.39,994,31.5278
5.926850067,96.39,994,31.5278
5.953110633,96.39,968,31.1127
5.979371198,96.39,1002,31.6544
6.005631763,96.39,1002,31.6544
6.031892329,96.39,989,31.4484
6.058152894,96.39,948,30.7896
6.08441346,96.39,1031,32.1092
6.110674025,96.39,1037,32.2025
6.13693459,96.39,1020,31.9374
6.163195156,96.39,1002,31.6544
6.189455721,96.39,1074,32.7719
6.215716286,96.39,952,30.8545
6.241976852,96.39,1028,32.0624
6.268237417,96.39,1009,31.7648
6.294497982,96.39,988,31.4325
6.320758548,96.39,980,31.305
6.347019113,96.39,1114,33.3766
6.373279678,96.39,1140,33.7639
6.399540244,96.39,1028,32.0624
6.425800809,96.39,986,31.4006
6.452061375,96.39,937,30.6105
6.47832194,96.39,997,31.5753
6.504582505,96.39,975,31.225
6.530843071,96.39,1032,32.1248
6.557103636,96.39,1039,32.2335
6.583364201,96.39,1001,31.6386
6.609624767,96.39,1035,32.1714
6.635885332,96.39,1040,32.249
6.662145897,96.39,1014,31.8434
6.688406463,96.39,998,31.5911
6.714667028,96.39,1074,32.7719
6.740927593,96.39,1007,31.7333
6.767188159,96.39,1166,34.1467
6.793448724,96.39,1086,32.9545
6.819709289,96.39,1133,33.6601
6.845969855,96.39,1187,34.4529
6.87223042,96.39,1263,35.5387
6.898490986,96.39,1287,35.8748
6.924751551,96.39,1379,37.1349
6.951012116,96.39,1388,37.2559
6.977272682,96.39,1537,39.2046
7.003533247,96.39,1611,40.1373
7.029793812,96.39,1785,42.2493
7.056054378,96.39,2062,45.4093
7.082314943,96.39,2260,47.5395
7.108575508,96.39,2597,50.9608
7.134836074,96.39,3069,55.3986
7.161096639,96.39,3462,58.8388
7.187357204,96.39,3813,61.7495
7.21361777,96.39,3038,55.1181
7.239878335,96.39,2077,45.5741
7.2661389,96.39,1527,39.0768
7.292399466,96.39,1213,34.8281
7.318660031,96.39,1224,34.9857
7.344920597,96.39,1024,32
7.371181162,96.39,1044,32.311
7.397441727,96.39,953,30.8707
7.423702293,96.39,965,31.0644
7.449962858,96.39,944,30.7246
7.476223423,96.39,928,30.4631
7.502483989,96.39,903,30.05
7.528744554,96.39,875,29.5804
7.555005119,96.39,945,30.7409
7.581265685,96.39,834,28.8791
7.60752625,96.39,882,29.6985
7.633786815,96.39,808,28.4253
7.660047381,96.39,863,29.3769
7.686307946,96.39,820,28.6356
7.712568512,96.39,826,28.7402
7.738829077,96.39,837,28.931
7.765089642,96.39,876,29.5973
7.791350208,96.39,860,29.3258
7.817610773,96.39,854,29.2233
7.843871338,96.39,807,28.4077
7.870131904,96.39,803,28.3373
7.896392469,96.39,856,29.2575
7.922653034,96.39,881,29.6816
7.9489136,96.39,861,29.3428
7.975174165,96.39,860,29.3258
8.00143473,96.39,806,28.3901
8.027695296,96.39,824,28.7054
8.053955861,96.39,787,28.0535
8.080216426,96.39,834,28.8791
8.106476992,96.39,812,28.4956
8.132737557,96.39,778,27.8927
8.158998123,96.39,797,28.2312
8.185258688,96.39,832,28.8444
8.211519253,96.39,815,28.5482
8.237779819,96.39,821,28.6531
8.264040384,96.39,793,28.1603
8.290300949,96.39,852,29.189
8.316561515,96.39,814,28.5307
8.34282208,96.39,788,28.0713
8.369082645,96.39,757,27.5136
8.395343211,96.39,755,27.4773
8.421603776,96.39,777,27.8747
8.447864341,96.39,785,28.0179
8.474124907,96.39,867,29.4449
8.500385472,96.39,801,28.3019
8.526646038,96.39,783,27.9821
8.552906603,96.39,745,27.2947
8.579167168,96.39,785,28.0179
8.605427734,96.39,774,27.8209
8.631688299,96.39,743,27.258
8.657948864,96.39,759,27.55
8.68420943,96.39,797,28.2312
8.710469995,96.39,785,28.0179
8.73673056,96.39,746,27.313
8.762991126,96.39,729,27
8.789251691,96.39,800,28.2843
8.815512256,96.39,764,27.6405
8.841772822,96.39,805,28.3725
8.868033387,96.39,750,27.3861
8.894293952,96.39,783,27.9821
8.920554518,96.39,701,26.4764
8.946815083,96.39,784,28
8.973075649,96.39,783,27.9821
8.999336214,96.39,717,26.7769
9.025596779,96.39,788,28.0713
9.051857345,96.39,714,26.7208
9.07811791,96.39,782,27.9643
9.104378475,96.39,723,26.8887
9.130639041,96.39,761,27.5862
9.156899606,96.39,757,27.5136
9.183160171,96.39,763,27.6225
9.209420737,96.39,800,28.2843
9.235681302,96.39,773,27.8029
9.261941867,96.39,759,27.55
9.288202433,96.39,761,27.5862
9.314462998,96.39,781,27.9464
9.340723564,96.39,787,28.0535
9.366984129,96.39,768,27.7128
9.393244694,96.39,752,27.4226
9.41950526,96.39,781,27.9464
9.445765825,96.39,744,27.2764
9.47202639,96.39,711,26.6646
9.498286956,96.39,736,27.1293
9.524547521,96.39,727,26.9629
9.550808086,96.39,750,27.3861
9.577068652,96.39,763,27.6225
9.603329217,96.39,786,28.0357
9.629589782,96.39,771,27.7669
9.655850348,96.39,717,26.7769
9.682110913,96.39,737,27.1477
9.708371478,96.39,758,27.5318
9.734632044,96.39,757,27.5136
9.760892609,96.39,812,28.4956
9.787153175,96.39,829,28.7924
9.81341374,96.39,793,28.1603
9.839674305,96.39,854,29.2233
9.865934871,96.39,835,28.8964
9.892195436,96.39,924,30.3974
9.918456001,96.39,933,30.545
9.944716567,96.39,1027,32.0468
9.970977132,96.39,1020,31.9374
9.997237697,96.39,1105,33.2415
10.02349826,96.39,1169,34.1906
10.04975883,96.39,1358,36.8511
10.07601939,96.39,1563,39.5348
10.10227996,96.39,1693,41.1461
10.12854052,96.39,2029,45.0444
10.15480109,96.39,2334,48.3115
10.18106166,96.39,2263,47.571
10.20732222,96.39,1813,42.5793
10.23358279,96.39,1324,36.3868
10.25984335,96.39,1054,32.4654
10.28610392,96.39,912,30.1993
10.31236448,96.39,859,29.3087
10.33862505,96.39,840,28.9828
10.36488561,96.39,833,28.8617
10.39114618,96.39,767,27.6948
10.41740674,96.39,786,28.0357
10.44366731,96.39,864,29.3939
10.46992787,96.39,770,27.7489
10.49618844,96.39,783,27.9821
10.522449,96.39,735,27.1109
10.54870957,96.39,781,27.9464
10.57497014,96.39,782,27.9643
10.6012307,96.39,733,27.074
10.62749127,96.39,790,28.1069
10.65375183,96.39,720,26.8328
10.6800124,96.39,777,27.8747
10.70627296,96.39,764,27.6405
10.73253353,96.39,803,28.3373
10.75879409,96.39,778,27.8927
10.78505466,96.39,813,28.5132
10.81131522,96.39,757,27.5136
10.83757579,96.39,784,28
10.86383635,96.39,832,28.8444
10.89009692,96.39,881,29.6816
10.91635749,96.39,755,27.4773
10.94261805,96.39,809,28.4429
10.96887862,96.39,858,29.2916
10.99513918,96.39,823,28.688
11.02139975,96.39,839,28.9655
11.04766031,96.39,856,29.2575
11.07392088,96.39,935,30.5778
11.10018144,96.39,886,29.7658
11.12644201,96.39,872,29.5296
11.15270257,96.39,921,30.348
11.17896314,96.39,979,31.289
11.2052237,96.39,952,30.8545
11.23148427,96.39,936,30.5941
11.25774483,96.39,1016,31.8748
11.2840054,96.39,1043,32.2955
11.31026597,96.39,989,31.4484
11.33652653,96.39,1077,32.8177
11.3627871,96.39,1130,33.6155
11.38904766,96.39,1270,35.6371
11.41530823,96.39,1296,36
11.44156879,96.39,1237,35.171
11.46782936,96.39,1293,35.9583
11.49408992,96.39,1334,36.524
11.52035049,96.39,1424,37.7359
11.54661105,96.39,1438,37.921
11.57287162,96.39,1434,37.8682
11.59913218,96.39,1462,38.2361
11.62539275,96.39,1443,37.9868
11.65165332,96.39,1426,37.7624
11.67791388,96.39,1495,38.6652
11.70417445,96.39,1486,38.5487
11.73043501,96.39,1405,37.4833
11.75669558,96.39,1415,37.6165
11.78295614,96.39,1290,35.9166
11.80921671,96.39,1314,36.2491
11.83547727,96.39,1215,34.8569
11.86173784,96.39,1158,34.0294
11.8879984,96.39,1122,33.4963
11.91425897,96.39,1090,33.0151
11.94051953,96.39,1059,32.5423
11.9667801,96.39,931,30.5123
11.99304066,96.39,952,30.8545
12.01930123,96.39,983,31.3528
12.0455618,96.39,911,30.1828
12.07182236,96.39,910,30.1662
12.09808293,96.39,866,29.4279
12.12434349,96.39,855,29.2404
12.15060406,96.39,875,29.5804
12.17686462,96.39,883,29.7153
12.20312519,96.39,858,29.2916
12.22938575,96.39,929,30.4795
12.25564632,96.39,862,29.3598
12.28190688,96.39,956,30.9192
12.30816745,96.39,1040,32.249
12.33442801,96.39,1040,32.249
12.36068858,96.39,1114,33.3766
12.38694915,96.39,1214,34.8425
12.41320971,96.39,1498,38.704
12.43947028,96.39,1737,41.6773
12.46573084,96.39,1686,41.0609
12.49199141,96.39,1551,39.3827
12.51825197,96.39,1206,34.7275
12.54451254,96.39,971,31.1609
12.5707731,96.39,839,28.9655
12.59703367,96.39,735,27.1109
12.62329423,96.39,720,26.8328
12.6495548,96.39,682,26.1151
12.67581536,96.39,735,27.1109
12.70207593,96.39,661,25.7099
12.72833649,96.39,646,25.4165
12.75459706,96.39,669,25.865
12.78085763,96.39,607,24.6374
12.80711819,96.39,616,24.8193
12.83337876,96.39,625,25
12.85963932,96.39,623,24.96
12.88589989,96.39,638,25.2587
12.91216045,96.39,617,24.8395
12.93842102,96.39,605,24.5967
12.96468158,96.39,617,24.8395
12.99094215,96.39,613,24.7588
13.01720271,96.39,587,24.2281
13.04346328,96.39,618,24.8596
13.06972384,96.39,598,24.454
13.09598441,96.39,607,24.6374
13.12224498,96.39,558,23.622
13.14850554,96.39,575,23.9792
13.17476611,96.39,559,23.6432
13.20102667,96.39,570,23.8747
13.22728724,96.39,569,23.8537
13.2535478,96.39,552,23.4947
13.27980837,96.39,559,23.6432
13.30606893,96.39,622,24.9399
13.3323295,96.39,561,23.6854
13.35859006,96.39,532,23.0651
13.38485063,96.39,538,23.1948
13.41111119,96.39,528,22.9783
13.43737176,96.39,554,23.5372
13.46363232,96.39,551,23.4734
13.48989289,96.39,553,23.516
13.51615346,96.39,549,23.4307
13.54241402,96.39,574,23.9583
13.56867459,96.39,572,23.9165
13.59493515,96.39,552,23.4947
13.62119572,96.39,529,23
13.64745628,96.39,550,23.4521
13.67371685,96.39,569,23.8537
13.69997741,96.39,518,22.7596
13.72623798,96.39,549,23.4307
13.75249854,96.39,623,24.96
13.77875911,96.39,532,23.0651
13.80501967,96.39,519,22.7816
13.83128024,96.39,570,23.8747
13.85754081,96.39,545,23.3452
13.88380137,96.39,476,21.8174
13.91006194,96.39,539,23.2164
13.9363225,96.39,511,22.6053
13.96258307,96.39,523,22.8692
13.98884363,96.39,537,23.1733
14.0151042,96.39,557,23.6008
14.04136476,96.39,559,23.6432
14.06762533,96.39,583,24.1454
14.09388589,96.39,493,22.2036
14.12014646,96.39,515,22.6936
14.14640702,96.39,555,23.5584
14.17266759,96.39,504,22.4499
14.19892815,96.39,461,21.4709
14.22518872,96.39,477,21.8403
14.25144929,96.39,488,22.0907
14.27770985,96.39,538,23.1948
14.30397042,96.39,464,21.5407
14.33023098,96.39,503,22.4277
14.35649155,96.39,531,23.0434
14.38275211,96.39,512,22.6274
14.40901268,96.39,506,22.4944
14.43527324,96.39,496,22.2711
14.46153381,96.39,501,22.383
14.48779437,96.39,489,22.1133
14.51405494,96.39,527,22.9565
14.5403155,96.39,532,23.0651
14.56657607,96.39,534,23.1084
14.59283663,96.39,485,22.0227
14.6190972,96.39,505,22.4722
14.64535777,96.39,525,22.9129
14.67161833,96.39,500,22.3607
14.6978789,96.39,470,21.6795
14.72413946,96.39,490,22.1359
14.75040003,96.39,526,22.9347
14.77666059,96.39,497,22.2935
14.80292116,96.39,518,22.7596
14.82918172,96.39,492,22.1811
14.85544229,96.39,494,22.2261
14.88170285,96.39,481,21.9317
14.90796342,96.39,462,21.4942
14.93422398,96.39,481,21.9317
14.96048455,96.39,494,22.2261
14.98674512,96.39,509,22.561
15.01300568,96.39,529,23
15.03926625,96.39,500,22.3607
15.06552681,96.39,442,21.0238
15.09178738,96.39,441,21
15.11804794,96.39,484,22
15.14430851,96.39,502,22.4054
15.17056907,96.39,482,21.9545
15.19682964,96.39,459,21.4243
15.2230902,96.39,454,21.3073
15.24935077,96.39,479,21.8861
15.27561133,96.39,461,21.4709
15.3018719,96.39,464,21.5407
15.32813246,96.39,472,21.7256
15.35439303,96.39,471,21.7025
15.3806536,96.39,459,21.4243
15.40691416,96.39,507,22.5167
15.43317473,96.39,525,22.9129
15.45943529,96.39,450,21.2132
15.48569586,96.39,430,20.7364
15.51195642,96.39,438,20.9284
15.53821699,96.39,448,21.166
15.56447755,96.39,497,22.2935
15.59073812,96.39,446,21.1187
15.61699868,96.39,484,22
15.64325925,96.39,467,21.6102
15.66951981,96.39,458,21.4009
15.69578038,96.39,492,22.1811
15.72204095,96.39,499,22.3383
15.74830151,96.39,462,21.4942
15.77456208,96.39,463,21.5174
15.80082264,96.39,488,22.0907
15.82708321,96.39,516,22.7156
15.85334377,96.39,490,22.1359
15.87960434,96.39,525,22.9129
15.9058649,96.39,531,23.0434
15.93212547,96.39,568,23.8328
15.95838603,96.39,618,24.8596
15.9846466,96.39,701,26.4764
16.01090716,96.39,775,27.8388
16.03716773,96.39,876,29.5973
16.06342829,96.39,907,30.1164
16.08968886,96.39,1082,32.8938
16.11594943,96.39,1180,34.3511
16.14220999,96.39,988,31.4325
16.16847056,96.39,838,28.9482
16.19473112,96.39,714,26.7208
16.22099169,96.39,581,24.1039
16.24725225,96.39,561,23.6854
16.27351282,96.39,546,23.3666
16.29977338,96.39,535,23.1301
16.32603395,96.39,494,22.2261
16.35229451,96.39,467,21.6102
16.37855508,96.39,441,21
16.40481564,96.39,455,21.3307
16.43107621,96.39,504,22.4499
16.45733678,96.39,504,22.4499
16.48359734,96.39,484,22
16.50985791,96.39,468,21.6333
16.53611847,96.39,468,21.6333
16.56237904,96.39,415,20.3715
16.5886396,96.39,514,22.6716
16.61490017,96.39,463,21.5174
16.64116073,96.39,464,21.5407
16.6674213,96.39,433,20.8087
16.69368186,96.39,479,21.8861
16.71994243,96.39,448,21.166
16.74620299,96.39,464,21.5407
16.77246356,96.39,452,21.2603
16.79872412,96.39,401,20.025
16.82498469,96.39,425,20.6155
16.85124526,96.39,470,21.6795
16.87750582,96.39,447,21.1424
16.90376639,96.39,425,20.6155
16.93002695,96.39,452,21.2603
16.95628752,96.39,420,20.4939
16.98254808,96.39,417,20.4206
17.00880865,96.39,441,21
17.03506921,96.39,438,20.9284
17.06132978,96.39,425,20.6155
17.08759034,96.39,398,19.9499
17.11385091,96.39,397,19.9249
17.14011147,96.39,432,20.7846
17.16637204,96.39,421,20.5183
17.19263261,96.39,393,19.8242
17.21889317,96.39,401,20.025
17.24515374,96.39,447,21.1424
17.2714143,96.39,451,21.2368
17.29767487,96.39,393,19.8242
17.32393543,96.39,385,19.6214
17.350196,96.39,403,20.0749
17.37645656,96.39,409,20.2237
17.40271713,96.39,438,20.9284
17.42897769,96.39,459,21.4243
17.45523826,96.39,425,20.6155
17.48149882,96.39,419,20.4695
17.50775939,96.39,439,20.9523
17.53401995,96.39,472,21.7256
17.56028052,96.39,461,21.4709
17.58654109,96.39,478,21.8632
17.61280165,96.39,409,20.2237
17.63906222,96.39,511,22.6053
17.66532278,96.39,503,22.4277
17.69158335,96.39,448,21.166
17.71784391,96.39,472,21.7256
17.74410448,96.39,462,21.4942
17.77036504,96.39,454,21.3073
17.79662561,96.39,460,21.4476
17.82288617,96.39,441,21
17.84914674,96.39,469,21.6564
17.8754073,96.39,485,22.0227
17.90166787,96.39,408,20.199
17.92792843,96.39,471,21.7025
17.954189,96.39,475,21.7945
17.98044957,96.39,442,21.0238
18.00671013,96.39,493,22.2036
18.0329707,96.39,535,23.1301
18.05923126,96.39,484,22
18.08549183,96.39,513,22.6495
18.11175239,96.39,545,23.3452
18.13801296,96.39,628,25.0599
18.16427352,96.39,572,23.9165
18.19053409,96.39,686,26.1916
18.21679465,96.39,720,26.8328
18.24305522,96.39,763,27.6225
18.26931578,96.39,887,29.7825
18.29557635,96.39,801,28.3019
18.32183692,96.39,927,30.4467
18.34809748,96.39,990,31.4643
18.37435805,96.39,1043,32.2955
18.40061861,96.39,1115,33.3916
18.42687918,96.39,1315,36.2629
18.45313974,96.39,1311,36.2077
18.47940031,96.39,1390,37.2827
18.50566087,96.39,1385,37.2156
18.53192144,96.39,1588,39.8497
18.558182,96.39,1558,39.4715
18.58444257,96.39,1586,39.8246
18.61070313,96.39,1622,40.2741
18.6369637,96.39,1693,41.1461
18.66322426,96.39,1792,42.332
18.68948483,96.39,1771,42.0833
18.7157454,96.39,1917,43.7836
18.74200596,96.39,1738,41.6893
18.76826653,96.39,1620,40.2492
18.79452709,96.39,1563,39.5348
18.82078766,96.39,1289,35.9026
18.84704822,96.39,1057,32.5115
18.87330879,96.39,940,30.6594
18.89956935,96.39,764,27.6405
18.92582992,96.39,639,25.2784
18.95209048,96.39,585,24.1868
18.97835105,96.39,544,23.3238
19.00461161,96.39,568,23.8328
19.03087218,96.39,514,22.6716
19.05713275,96.39,559,23.6432
19.08339331,96.39,471,21.7025
19.10965388,96.39,504,22.4499
19.13591444,96.39,472,21.7256
19.16217501,96.39,467,21.6102
19.18843557,96.39,448,21.166
19.21469614,96.39,464,21.5407
19.2409567,96.39,398,19.9499
19.26721727,96.39,457,21.3776
19.29347783,96.39,451,21.2368
19.3197384,96.39,415,20.3715
19.34599896,96.39,469,21.6564
19.37225953,96.39,433,20.8087
19.39852009,96.39,467,21.6102
19.42478066,96.39,394,19.8494
19.45104123,96.39,412,20.2978
19.47730179,96.39,464,21.5407
19.50356236,96.39,406,20.1494
19.52982292,96.39,437,20.9045
19.55608349,96.39,462,21.4942
19.58234405,96.39,443,21.0476
19.60860462,96.39,406,20.1494
19.63486518,96.39,450,21.2132
19.66112575,96.39,434,20.8327
19.68738631,96.39,400,20
19.71364688,96.39,441,21
19.73990744,96.39,430,20.7364
19.76616801,96.39,418,20.445
19.79242858,96.39,493,22.2036
19.81868914,96.39,443,21.0476
19.84494971,96.39,468,21.6333
19.87121027,96.39,487,22.0681
19.89747084,96.39,475,21.7945
19.9237314,96.39,465,21.5639
19.94999197,96.39,496,22.2711
19.97625253,96.39,545,23.3452
20.0025131,96.39,585,24.1868
20.02877366,96.39,599,24.4745
20.05503423,96.39,597,24.4336
20.08129479,96.39,692,26.3059
20.10755536,96.39,746,27.313
20.13381592,96.39,860,29.3258
20.16007649,96.39,1024,32
20.18633706,96.39,1187,34.4529
20.21259762,96.39,1432,37.8418
20.23885819,96.39,1543,39.281
20.26511875,96.39,1778,42.1663
20.29137932,96.39,1881,43.3705
20.31763988,96.39,1862,43.1509
20.34390045,96.39,1826,42.7317
20.37016101,96.39,1765,42.0119
20.39642158,96.39,1677,40.9512
20.42268214,96.39,1503,38.7685
20.44894271,96.39,1478,38.4448
20.47520327,96.39,1241,35.2278
20.50146384,96.39,1206,34.7275
20.52772441,96.39,1063,32.6037
20.55398497,96.39,1051,32.4191
20.58024554,96.39,916,30.2655
20.6065061,96.39,890,29.8329
20.63276667,96.39,874,29.5635
20.65902723,96.39,827,28.7576
20.6852878,96.39,783,27.9821
20.71154836,96.39,833,28.8617
20.73780893,96.39,756,27.4955
20.76406949,96.39,781,27.9464
20.79033006,96.39,709,26.6271
20.81659062,96.39,758,27.5318
20.84285119,96.39,774,27.8209
20.86911175,96.39,691,26.2869
20.89537232,96.39,585,24.1868
20.92163289,96.39,608,24.6577
20.94789345,96.39,640,25.2982
20.97415402,96.39,566,23.7908
21.00041458,96.39,563,23.7276
21.02667515,96.39,550,23.4521
21.05293571,96.39,574,23.9583
21.07919628,96.39,511,22.6053
21.10545684,96.39,533,23.0868
21.13171741,96.39,546,23.3666
21.15797797,96.39,514,22.6716
21.18423854,96.39,448,21.166
21.2104991,96.39,541,23.2594
21.23675967,96.39,478,21.8632
21.26302024,96.39,476,21.8174
21.2892808,96.39,483,21.9773
21.31554137,96.39,524,22.891
21.34180193,96.39,512,22.6274
21.3680625,96.39,597,24.4336
21.39432306,96.39,515,22.6936
21.42058363,96.39,559,23.6432
21.44684419,96.39,546,23.3666
21.47310476,96.39,585,24.1868
21.49936532,96.39,629,25.0799
21.52562589,96.39,652,25.5343
21.55188645,96.39,685,26.1725
21.57814702,96.39,810,28.4605
21.60440758,96.39,940,30.6594
21.63066815,96.39,1133,33.6601
21.65692872,96.39,1261,35.5106
21.68318928,96.39,1280,35.7771
21.70944985,96.39,1098,33.1361
21.73571041,96.39,962,31.0161
21.76197098,96.39,774,27.8209
21.78823154,96.39,648,25.4558
21.81449211,96.39,557,23.6008
21.84075267,96.39,518,22.7596
21.86701324,96.39,436,20.8806
21.8932738,96.39,448,21.166
21.91953437,96.39,438,20.9284
21.94579493,96.39,427,20.664
21.9720555,96.39,415,20.3715
21.99831606,96.39,381,19.5192
22.02457663,96.39,388,19.6977
22.0508372,96.39,400,20
22.07709776,96.39,398,19.9499
22.10335833,96.39,412,20.2978
22.12961889,96.39,405,20.1246
22.15587946,96.39,396,19.8997
22.18214002,96.39,407,20.1742
22.20840059,96.39,412,20.2978
22.23466115,96.39,353,18.7883
22.26092172,96.39,384,19.5959
22.28718228,96.39,407,20.1742
22.31344285,96.39,393,19.8242
22.33970341,96.39,435,20.8567
22.36596398,96.39,390,19.7484
22.39222455,96.39,414,20.347
22.41848511,96.39,356,18.868
22.44474568,96.39,386,19.6469
22.47100624,96.39,361,19
22.49726681,96.39,393,19.8242
22.52352737,96.39,380,19.4936
22.54978794,96.39,420,20.4939
22.5760485,96.39,437,20.9045
22.60230907,96.39,419,20.4695
22.62856963,96.39,436,20.8806
22.6548302,96.39,403,20.0749
22.68109076,96.39,395,19.8746
22.70735133,96.39,402,20.0499
22.73361189,96.39,472,21.7256
22.75987246,96.39,455,21.3307
22.78613303,96.39,485,22.0227
22.81239359,96.39,517,22.7376
22.83865416,96.39,549,23.4307
22.86491472,96.39,525,22.9129
22.89117529,96.39,505,22.4722
22.91743585,96.39,517,22.7376
22.94369642,96.39,484,22
22.96995698,96.39,489,22.1133
22.99621755,96.39,504,22.4499
23.02247811,96.39,468,21.6333
23.04873868,96.39,530,23.0217
23.07499924,96.39,512,22.6274
23.10125981,96.39,554,23.5372
23.12752038,96.39,584,24.1661
23.15378094,96.39,559,23.6432
23.18004151,96.39,552,23.4947
23.20630207,96.39,579,24.0624
23.23256264,96.39,607,24.6374
23.2588232,96.39,575,23.9792
23.28508377,96.39,643,25.3574
23.31134433,96.39,637,25.2389
23.3376049,96.39,696,26.3818
23.36386546,96.39,702,26.4953
23.39012603,96.39,706,26.5707
23.41638659,96.39,737,27.1477
23.44264716,96.39,737,27.1477
23.46890772,96.39,734,27.0924
23.49516829,96.39,746,27.313
23.52142886,96.39,740,27.2029
23.54768942,96.39,695,26.3629
23.57394999,96.39,729,27
23.60021055,96.39,738,27.1662
23.62647112,96.39,710,26.6458
23.65273168,96.39,672,25.923
23.67899225,96.39,692,26.3059
23.70525281,96.39,672,25.923
23.73151338,96.39,667,25.8263
23.75777394,96.39,705,26.5518
23.78403451,96.39,764,27.6405
23.81029507,96.39,768,27.7128
23.83655564,96.39,886,29.7658
23.86281621,96.39,909,30.1496
23.88907677,96.39,1108,33.2866
23.91533734,96.39,1319,36.318
23.9415979,96.39,1487,38.5616
23.96785847,96.39,1696,41.1825
23.99411903,96.39,1799,42.4146
24.0203796,96.39,1687,41.0731
24.04664016,96.39,1497,38.6911
24.07290073,96.39,1224,34.9857
24.09916129,96.39,917,30.282
24.12542186,96.39,774,27.8209
24.15168242,96.39,612,24.7386
24.17794299,96.39,537,23.1733
24.20420355,96.39,528,22.9783
24.23046412,96.39,511,22.6053
24.25672469,96.39,465,21.5639
24.28298525,96.39,419,20.4695
24.30924582,96.39,418,20.445
24.33550638,96.39,406,20.1494
24.36176695,96.39,387,19.6723
24.38802751,96.39,366,19.1311
24.41428808,96.39,391,19.7737
24.44054864,96.39,366,19.1311
24.46680921,96.39,385,19.6214
24.49306977,96.39,359,18.9473
24.51933034,96.39,380,19.4936
24.5455909,96.39,335,18.303
24.57185147,96.39,365,19.105
24.59811204,96.39,355,18.8414
24.6243726,96.39,347,18.6279
24.65063317,96.39,340,18.4391
24.67689373,96.39,306,17.4929
24.7031543,96.39,419,20.4695
24.72941486,96.39,336,18.3303
24.75567543,96.39,372,19.2873
24.78193599,96.39,332,18.2209
24.80819656,96.39,353,18.7883
24.83445712,96.39,357,18.8944
24.86071769,96.39,369,19.2094
24.88697825,96.39,330,18.1659
24.91323882,96.39,325,18.0278
24.93949938,96.39,352,18.7617
24.96575995,96.39,373,19.3132
24.99202052,96.39,363,19.0526
25.01828108,96.39,345,18.5742
25.04454165,96.39,368,19.1833
25.07080221,96.39,352,18.7617
25.09706278,96.39,361,19
25.12332334,96.39,350,18.7083
25.14958391,96.39,336,18.3303
25.17584447,96.39,356,18.868
25.20210504,96.39,351,18.735
25.2283656,96.39,362,19.0263
25.25462617,96.39,353,18.7883
25.28088673,96.39,359,18.9473
25.3071473,96.39,373,19.3132
25.33340786,96.39,416,20.3961
25.35966843,96.39,435,20.8567
25.385929,96.39,464,21.5407
25.41218956,96.39,575,23.9792
25.43845013,96.39,627,25.04
25.46471069,96.39,779,27.9106
25.49097126,96.39,956,30.9192
25.51723182,96.39,1176,34.2929
25.54349239,96.39,1435,37.8814
25.56975295,96.39,1599,39.9875
25.59601352,96.39,1309,36.1801
25.62227408,96.39,997,31.5753
25.64853465,96.39,785,28.0179
25.67479521,96.39,527,22.9565
25.70105578,96.39,440,20.9762
25.72731635,96.39,411,20.2731
25.75357691,96.39,358,18.9209
25.77983748,96.39,352,18.7617
25.80609804,96.39,358,18.9209
25.83235861,96.39,368,19.1833
25.85861917,96.39,425,20.6155
25.88487974,96.39,390,19.7484
25.9111403,96.39,391,19.7737
25.93740087,96.39,412,20.2978
25.96366143,96.39,461,21.4709
25.989922,96.39,492,22.1811
26.01618256,96.39,482,21.9545
26.04244313,96.39,580,24.0832
26.06870369,96.39,621,24.9199
26.09496426,96.39,682,26.1151
26.12122483,96.39,750,27.3861
26.14748539,96.39,733,27.074
26.17374596,96.39,650,25.4951
26.20000652,96.39,571,23.8956
26.22626709,96.39,499,22.3383
26.25252765,96.39,437,20.9045
26.27878822,96.39,404,20.0998
26.30504878,96.39,363,19.0526
26.33130935,96.39,382,19.5448
26.35756991,96.39,393,19.8242
26.38383048,96.39,330,18.1659
26.41009104,96.39,389,19.7231
26.43635161,96.39,379,19.4679
26.46261218,96.39,374,19.3391
26.48887274,96.39,384,19.5959
26.51513331,96.39,367,19.1572
26.54139387,96.39,402,20.0499
26.56765444,96.39,417,20.4206
26.593915,96.39,403,20.0749
26.62017557,96.39,427,20.664
26.64643613,96.39,437,20.9045
26.6726967,96.39,424,20.5913
26.69895726,96.39,417,20.4206
26.72521783,96.39,413,20.3224
26.75147839,96.39,434,20.8327
26.77773896,96.39,433,20.8087
26.80399952,96.39,457,21.3776
26.83026009,96.39,435,20.8567
26.85652066,96.39,449,21.1896
26.88278122,96.39,472,21.7256
26.90904179,96.39,549,23.4307
26.93530235,96.39,611,24.7184
26.96156292,96.39,674,25.9615
26.98782348,96.39,707,26.5895
27.01408405,96.39,915,30.249
27.04034461,96.39,1005,31.7017
27.06660518,96.39,1219,34.9142
27.09286574,96.39,1515,38.923
27.11912631,96.39,1589,39.8623
27.14538687,96.39,1468,38.3145
27.17164744,96.39,1363,36.9188
27.19790801,96.39,1191,34.5109
27.22416857,96.39,916,30.2655
27.25042914,96.39,759,27.55
27.2766897,96.39,600,24.4949
27.30295027,96.39,567,23.8118
27.32921083,96.39,582,24.1247
27.3554714,96.39,494,22.2261
27.38173196,96.39,469,21.6564
27.40799253,96.39,457,21.3776
27.43425309,96.39,454,21.3073
27.46051366,96.39,458,21.4009
27.48677422,96.39,489,22.1133
27.51303479,96.39,485,22.0227
27.53929535,96.39,479,21.8861
27.56555592,96.39,499,22.3383
27.59181649,96.39,507,22.5167
27.61807705,96.39,561,23.6854
27.64433762,96.39,546,23.3666
27.67059818,96.39,640,25.2982
27.69685875,96.39,584,24.1661
27.72311931,96.39,588,24.2487
27.74937988,96.39,569,23.8537
27.77564044,96.39,619,24.8797
27.80190101,96.39,599,24.4745
27.82816157,96.39,589,24.2693
27.85442214,96.39,578,24.0416
27.8806827,96.39,573,23.9374
27.90694327,96.39,546,23.3666
27.93320384,96.39,481,21.9317
27.9594644,96.39,467,21.6102
27.98572497,96.39,463,21.5174
28.01198553,96.39,463,21.5174
28.0382461,96.39,438,20.9284
28.06450666,96.39,416,20.3961
28.09076723,96.39,393,19.8242
28.11702779,96.39,403,20.0749
28.14328836,96.39,366,19.1311
28.16954892,96.39,390,19.7484
28.19580949,96.39,412,20.2978
28.22207005,96.39,351,18.735
28.24833062,96.39,360,18.9737
28.27459118,96.39,344,18.5472
28.30085175,96.39,360,18.9737
28.32711232,96.39,354,18.8149
28.35337288,96.39,332,18.2209
28.37963345,96.39,361,19
28.40589401,96.39,373,19.3132
28.43215458,96.39,361,19
28.45841514,96.39,346,18.6011
28.48467571,96.39,333,18.2483
28.51093627,96.39,322,17.9444
28.53719684,96.39,340,18.4391
28.5634574,96.39,330,18.1659
28.58971797,96.39,341,18.4662
28.61597853,96.39,354,18.8149
28.6422391,96.39,369,19.2094
28.66849967,96.39,347,18.6279
28.69476023,96.39,334,18.2757
28.7210208,96.39,327,18.0831
28.74728136,96.39,369,19.2094
28.77354193,96.39,382,19.5448
28.79980249,96.39,371,19.2614
28.82606306,96.39,351,18.735
28.85232362,96.39,345,18.5742
28.87858419,96.39,336,18.3303
28.90484475,96.39,344,18.5472
28.93110532,96.39,347,18.6279
28.95736588,96.39,353,18.7883
28.98362645,96.39,372,19.2873
29.00988701,96.39,338,18.3848
29.03614758,96.39,324,18
29.06240815,96.39,373,19.3132
29.08866871,96.39,396,19.8997
29.11492928,96.39,391,19.7737
29.14118984,96.39,361,19
29.16745041,96.39,350,18.7083
29.19371097,96.39,333,18.2483
29.21997154,96.39,359,18.9473
29.2462321,96.39,329,18.1384
29.27249267,96.39,378,19.4422
29.29875323,96.39,369,19.2094
29.3250138,96.39,328,18.1108
29.35127436,96.39,383,19.5704
29.37753493,96.39,315,17.7482
29.40379549,96.39,404,20.0998
29.43005606,96.39,341,18.4662
29.45631663,96.39,377,19.4165
29.48257719,96.39,358,18.9209
29.50883776,96.39,412,20.2978
29.53509832,96.39,385,19.6214
29.56135889,96.39,422,20.5426
29.58761945,96.39,403,20.0749
29.61388002,96.39,401,20.025
29.64014058,96.39,423,20.567
29.66640115,96.39,433,20.8087
29.69266171,96.39,533,23.0868
29.71892228,96.39,524,22.891
29.74518284,96.39,621,24.9199
29.77144341,96.39,696,26.3818
29.79770398,96.39,791,28.1247
29.82396454,96.39,872,29.5296
29.85022511,96.39,1062,32.5883
29.87648567,96.39,1280,35.7771
29.90274624,96.39,1535,39.1791
29.9290068,96.39,1656,40.694
29.95526737,96.39,1759,41.9404
29.98152793,96.39,1740,41.7133
30.0077885,96.39,1506,38.8072
30.03404906,96.39,1262,35.5246
30.06030963,96.39,1034,32.1559
30.08657019,96.39,826,28.7402
30.11283076,96.39,692,26.3059
30.13909132,96.39,546,23.3666
30.16535189,96.39,541,23.2594
30.19161246,96.39,451,21.2368
30.21787302,96.39,444,21.0713
30.24413359,96.39,457,21.3776
30.27039415,96.39,386,19.6469
30.29665472,96.39,414,20.347
30.32291528,96.39,384,19.5959
30.34917585,96.39,396,19.8997
30.37543641,96.39,426,20.6398
30.40169698,96.39,386,19.6469
30.42795754,96.39,384,19.5959
30.45421811,96.39,351,18.735
30.48047867,96.39,329,18.1384
30.50673924,96.39,336,18.3303
30.53299981,96.39,331,18.1934
30.55926037,96.39,362,19.0263
30.58552094,96.39,371,19.2614
30.6117815,96.39,367,19.1572
30.63804207,96.39,386,19.6469
30.66430263,96.39,398,19.9499
30.6905632,96.39,423,20.567
30.71682376,96.39,399,19.975
30.74308433,96.39,450,21.2132
30.76934489,96.39,478,21.8632
30.79560546,96.39,515,22.6936
30.82186602,96.39,555,23.5584
30.84812659,96.39,506,22.4944
30.87438715,96.39,492,22.1811
30.90064772,96.39,454,21.3073
30.92690829,96.39,547,23.388
30.95316885,96.39,403,20.0749
30.97942942,96.39,379,19.4679
31.00568998,96.39,377,19.4165
31.03195055,96.39,330,18.1659
31.05821111,96.39,341,18.4662
31.08447168,96.39,364,19.0788
31.11073224,96.39,343,18.5203
31.13699281,96.39,319,17.8606
31.16325337,96.39,353,18.7883
31.18951394,96.39,328,18.1108
31.2157745,96.39,316,17.7764
31.24203507,96.39,320,17.8885
31.26829564,96.39,338,18.3848
31.2945562,96.39,326,18.0555
31.32081677,96.39,349,18.6815
31.34707733,96.39,312,17.6635
31.3733379,96.39,325,18.0278
31.39959846,96.39,346,18.6011
31.42585903,96.39,349,18.6815
31.45211959,96.39,341,18.4662
31.47838016,96.39,303,17.4069
31.50464072,96.39,321,17.9165
31.53090129,96.39,342,18.4932
31.55716185,96.39,324,18
31.58342242,96.39,358,18.9209
31.60968298,96.39,337,18.3576
31.63594355,96.39,351,18.735
31.66220412,96.39,320,17.8885
31.68846468,96.39,313,17.6918
31.71472525,96.39,336,18.3303
31.74098581,96.39,307,17.5214
31.76724638,96.39,296,17.2047
31.79350694,96.39,321,17.9165
31.81976751,96.39,350,18.7083
31.84602807,96.39,337,18.3576
31.87228864,96.39,366,19.1311
31.8985492,96.39,330,18.1659
31.92480977,96.39,326,18.0555
31.95107033,96.39,349,18.6815
31.9773309,96.39,335,18.303
32.00359147,96.39,341,18.4662
32.02985203,96.39,373,19.3132
32.0561126,96.39,331,18.1934
32.08237316,96.39,324,18
32.10863373,96.39,324,18
32.13489429,96.39,407,20.1742
32.16115486,96.39,381,19.5192
32.18741542,96.39,427,20.664
32.21367599,96.39,409,20.2237
32.23993655,96.39,394,19.8494
32.26619712,96.39,442,21.0238
32.29245768,96.39,418,20.445
32.31871825,96.39,434,20.8327
32.34497881,96.39,427,20.664
32.37123938,96.39,440,20.9762
32.39749995,96.39,462,21.4942
32.42376051,96.39,480,21.9089
32.45002108,96.39,522,22.8473
32.47628164,96.39,555,23.5584
32.50254221,96.39,582,24.1247
32.52880277,96.39,613,24.7588
32.55506334,96.39,616,24.8193
32.5813239,96.39,597,24.4336
32.60758447,96.39,589,24.2693
32.63384503,96.39,516,22.7156
32.6601056,96.39,467,21.6102
32.68636616,96.39,417,20.4206
32.71262673,96.39,380,19.4936
32.7388873,96.39,354,18.8149
32.76514786,96.39,368,19.1833
32.79140843,96.39,359,18.9473
32.81766899,96.39,379,19.4679
32.84392956,96.39,375,19.3649
32.87019012,96.39,388,19.6977
32.89645069,96.39,392,19.799
32.92271125,96.39,357,18.8944
32.94897182,96.39,355,18.8414
32.97523238,96.39,402,20.0499
33.00149295,96.39,389,19.7231
33.02775351,96.39,425,20.6155
33.05401408,96.39,381,19.5192
33.08027464,96.39,412,20.2978
33.10653521,96.39,427,20.664
33.13279578,96.39,414,20.347
33.15905634,96.39,433,20.8087
33.18531691,96.39,470,21.6795
33.21157747,96.39,408,20.199
33.23783804,96.39,439,20.9523
33.2640986,96.39,438,20.9284
33.29035917,96.39,474,21.7715
33.31661973,96.39,520,22.8035
33.3428803,96.39,513,22.6495
33.36914086,96.39,517,22.7376
33.39540143,96.39,541,23.2594
33.42166199,96.39,554,23.5372
33.44792256,96.39,526,22.9347
33.47418312,96.39,529,23
33.50044369,96.39,533,23.0868
33.52670426,96.39,494,22.2261
33.55296482,96.39,470,21.6795
33.57922539,96.39,490,22.1359
33.60548595,96.39,518,22.7596
33.63174652,96.39,493,22.2036
33.65800708,96.39,567,23.8118
33.68426765,96.39,526,22.9347
33.71052821,96.39,546,23.3666
33.73678878,96.39,582,24.1247
33.76304934,96.39,612,24.7386
33.78930991,96.39,610,24.6982
33.81557047,96.39,666,25.807
33.84183104,96.39,693,26.3249
33.86809161,96.39,656,25.6125
33.89435217,96.39,719,26.8142
33.92061274,96.39,771,27.7669
33.9468733,96.39,773,27.8029
33.97313387,96.39,805,28.3725
33.99939443,96.39,920,30.3315
34.025655,96.39,963,31.0322
34.05191556,96.39,1023,31.9844
34.07817613,96.39,1181,34.3657
34.10443669,96.39,1348,36.7151
34.13069726,96.39,1378,37.1214
34.15695782,96.39,1502,38.7556
34.18321839,96.39,1677,40.9512
34.20947895,96.39,1666,40.8167
34.23573952,96.39,1540,39.2428
34.26200009,96.39,1375,37.081
34.28826065,96.39,1314,36.2491
34.31452122,96.39,1166,34.1467
34.34078178,96.39,1004,31.686
34.36704235,96.39,921,30.348
34.39330291,96.39,865,29.4109
34.41956348,96.39,860,29.3258
34.44582404,96.39,772,27.7849
34.47208461,96.39,788,28.0713
34.49834517,96.39,757,27.5136
34.52460574,96.39,764,27.6405
34.5508663,96.39,721,26.8514
34.57712687,96.39,717,26.7769
34.60338744,96.39,675,25.9808
34.629648,96.39,648,25.4558
34.65590857,96.39,656,25.6125
34.68216913,96.39,705,26.5518
34.7084297,96.39,686,26.1916
34.73469026,96.39,668,25.8457
34.76095083,96.39,702,26.4953
34.78721139,96.39,713,26.7021
34.81347196,96.39,709,26.6271
34.83973252,96.39,748,27.3496
34.86599309,96.39,852,29.189
34.89225365,96.39,810,28.4605
34.91851422,96.39,818,28.6007
34.94477478,96.39,904,30.0666
34.97103535,96.39,930,30.4959
34.99729592,96.39,1024,32
35.02355648,96.39,1215,34.8569
35.04981705,96.39,1332,36.4966
35.07607761,96.39,1683,41.0244
35.10233818,96.39,2017,44.911
35.12859874,96.39,2235,47.2758
35.15485931,96.39,1949,44.1475
35.18111987,96.39,1577,39.7115
35.20738044,96.39,1425,37.7492
35.233641,96.39,1242,35.242
35.25990157,96.39,862,29.3598
35.28616213,96.39,673,25.9422
35.3124227,96.39,578,24.0416
35.33868327,96.39,532,23.0651
35.36494383,96.39,506,22.4944
35.3912044,96.39,493,22.2036
35.41746496,96.39,441,21
35.44372553,96.39,463,21.5174
35.46998609,96.39,462,21.4942
35.49624666,96.39,458,21.4009
35.52250722,96.39,439,20.9523
35.54876779,96.39,434,20.8327
35.57502835,96.39,421,20.5183
35.60128892,96.39,398,19.9499
35.62754948,96.39,407,20.1742
35.65381005,96.39,476,21.8174
35.68007061,96.39,442,21.0238
35.70633118,96.39,449,21.1896
35.73259175,96.39,456,21.3542
35.75885231,96.39,457,21.3776
35.78511288,96.39,483,21.9773
35.81137344,96.39,456,21.3542
35.83763401,96.39,452,21.2603
35.86389457,96.39,449,21.1896
35.89015514,96.39,440,20.9762
35.9164157,96.39,392,19.799
35.94267627,96.39,407,20.1742
35.96893683,96.39,388,19.6977
35.9951974,96.39,405,20.1246
36.02145796,96.39,398,19.9499
36.04771853,96.39,425,20.6155
36.0739791,96.39,404,20.0998
36.10023966,96.39,407,20.1742
36.12650023,96.39,387,19.6723
36.15276079,96.39,405,20.1246
36.17902136,96.39,415,20.3715
36.20528192,96.39,369,19.2094
36.23154249,96.39,384,19.5959
36.25780305,96.39,408,20.199
36.28406362,96.39,381,19.5192
36.31032418,96.39,375,19.3649
36.33658475,96.39,431,20.7605
36.36284531,96.39,404,20.0998
36.38910588,96.39,421,20.5183
36.41536644,96.39,446,21.1187
36.44162701,96.39,444,21.0713
36.46788758,96.39,445,21.095
36.49414814,96.39,474,21.7715
36.52040871,96.39,498,22.3159
36.54666927,96.39,446,21.1187
36.57292984,96.39,435,20.8567
36.5991904,96.39,404,20.0998
36.62545097,96.39,378,19.4422
36.65171153,96.39,371,19.2614
36.6779721,96.39,403,20.0749
36.70423266,96.39,389,19.7231
36.73049323,96.39,334,18.2757
36.75675379,96.39,357,18.8944
36.78301436,96.39,365,19.105
36.80927492,96.39,354,18.8149
36.83553549,96.39,329,18.1384
36.86179606,96.39,355,18.8414
36.88805662,96.39,355,18.8414
36.91431719,96.39,344,18.5472
36.94057775,96.39,336,18.3303
36.96683832,96.39,356,18.868
36.99309888,96.39,314,17.72
37.01935945,96.39,326,18.0555
37.04562001,96.39,332,18.2209
37.07188058,96.39,327,18.0831
37.09814114,96.39,338,18.3848
37.12440171,96.39,407,20.1742
37.15066227,96.39,333,18.2483
37.17692284,96.39,322,17.9444
37.20318341,96.39,361,19
37.22944397,96.39,346,18.6011
37.25570454,96.39,368,19.1833
37.2819651,96.39,363,19.0526
37.30822567,96.39,388,19.6977
37.33448623,96.39,349,18.6815
37.3607468,96.39,390,19.7484
37.38700736,96.39,377,19.4165
37.41326793,96.39,446,21.1187
37.43952849,96.39,387,19.6723
37.46578906,96.39,418,20.445
37.49204962,96.39,408,20.199
37.51831019,96.39,447,21.1424
37.54457075,96.39,475,21.7945
37.57083132,96.39,508,22.5389
37.59709189,96.39,487,22.0681
37.62335245,96.39,601,24.5153
37.64961302,96.39,645,25.3969
37.67587358,96.39,725,26.9258
37.70213415,96.39,852,29.189
37.72839471,96.39,1047,32.3574
37.75465528,96.39,1168,34.176
37.78091584,96.39,1040,32.249
37.80717641,96.39,879,29.6479
37.83343697,96.39,860,29.3258
37.85969754,96.39,837,28.931
37.8859581,96.39,726,26.9444
37.91221867,96.39,594,24.3721
37.93847924,96.39,543,23.3024
37.9647398,96.39,534,23.1084
37.99100037,96.39,558,23.622
38.01726093,96.39,525,22.9129
38.0435215,96.39,511,22.6053
38.06978206,96.39,497,22.2935
38.09604263,96.39,477,21.8403
38.12230319,96.39,429,20.7123
38.14856376,96.39,474,21.7715
38.17482432,96.39,445,21.095
38.20108489,96.39,368,19.1833
38.22734545,96.39,392,19.799
38.25360602,96.39,423,20.567
38.27986658,96.39,402,20.0499
38.30612715,96.39,360,18.9737
38.33238772,96.39,363,19.0526
38.35864828,96.39,353,18.7883
38.38490885,96.39,362,19.0263
38.41116941,96.39,366,19.1311
38.43742998,96.39,325,18.0278
38.46369054,96.39,365,19.105
38.48995111,96.39,400,20
38.51621167,96.39,347,18.6279
38.54247224,96.39,339,18.412
38.5687328,96.39,425,20.6155
38.59499337,96.39,369,19.2094
38.62125393,96.39,373,19.3132
38.6475145,96.39,360,18.9737
38.67377507,96.39,367,19.1572
38.70003563,96.39,360,18.9737
38.7262962,96.39,384,19.5959
38.75255676,96.39,353,18.7883
38.77881733,96.39,375,19.3649
38.80507789,96.39,373,19.3132
38.83133846,96.39,359,18.9473
38.85759902,96.39,363,19.0526
38.88385959,96.39,340,18.4391
38.91012015,96.39,372,19.2873
38.93638072,96.39,379,19.4679
38.96264128,96.39,393,19.8242
38.98890185,96.39,359,18.9473
39.01516241,96.39,412,20.2978
39.04142298,96.39,371,19.2614
39.06768355,96.39,353,18.7883
39.09394411,96.39,441,21
39.12020468,96.39,385,19.6214
39.14646524,96.39,413,20.3224
39.17272581,96.39,443,21.0476
39.19898637,96.39,433,20.8087
39.22524694,96.39,454,21.3073
39.2515075,96.39,464,21.5407
39.27776807,96.39,442,21.0238
39.30402863,96.39,444,21.0713
39.3302892,96.39,472,21.7256
39.35654976,96.39,504,22.4499
39.38281033,96.39,481,21.9317
39.4090709,96.39,527,22.9565
39.43533146,96.39,567,23.8118
39.46159203,96.39,539,23.2164
39.48785259,96.39,511,22.6053
39.51411316,96.39,567,23.8118
39.54037372,96.39,516,22.7156
39.56663429,96.39,522,22.8473
39.59289485,96.39,476,21.8174
39.61915542,96.39,545,23.3452
39.64541598,96.39,446,21.1187
39.67167655,96.39,482,21.9545
39.69793711,96.39,490,22.1359
39.72419768,96.39,470,21.6795
39.75045824,96.39,484,22
39.77671881,96.39,476,21.8174
39.80297938,96.39,453,21.2838
39.82923994,96.39,450,21.2132
39.85550051,96.39,430,20.7364
39.88176107,96.39,494,22.2261
39.90802164,96.39,441,21
39.9342822,96.39,445,21.095
39.96054277,96.39,472,21.7256
39.98680333,96.39,474,21.7715
40.0130639,96.39,543,23.3024
40.03932446,96.39,469,21.6564
40.06558503,96.39,517,22.7376
40.09184559,96.39,525,22.9129
40.11810616,96.39,563,23.7276
40.14436673,96.39,602,24.5357
40.17062729,96.39,601,24.5153
40.19688786,96.39,675,25.9808
40.22314842,96.39,603,24.5561
40.24940899,96.39,690,26.2679
40.27566955,96.39,759,27.55
40.30193012,96.39,711,26.6646
40.32819068,96.39,734,27.0924
40.35445125,96.39,826,28.7402
40.38071181,96.39,870,29.4958
40.40697238,96.39,938,30.6268
40.43323294,96.39,967,31.0966
40.45949351,96.39,952,30.8545
40.48575407,96.39,1013,31.8277
40.51201464,96.39,1001,31.6386
40.53827521,96.39,999,31.607
40.56453577,96.39,997,31.5753
40.59079634,96.39,941,30.6757
40.6170569,96.39,942,30.692
40.64331747,96.39,845,29.0689
40.66957803,96.39,829,28.7924
40.6958386,96.39,735,27.1109
40.72209916,96.39,728,26.9815
40.74835973,96.39,627,25.04
40.77462029,96.39,588,24.2487
40.80088086,96.39,547,23.388
40.82714142,96.39,544,23.3238
40.85340199,96.39,504,22.4499
40.87966255,96.39,487,22.0681
40.90592312,96.39,454,21.3073
40.93218369,96.39,436,20.8806
40.95844425,96.39,434,20.8327
40.98470482,96.39,448,21.166
41.01096538,96.39,423,20.567
41.03722595,96.39,436,20.8806
41.06348651,96.39,444,21.0713
41.08974708,96.39,410,20.2485
41.11600764,96.39,414,20.347
41.14226821,96.39,420,20.4939
41.16852877,96.39,410,20.2485
41.19478934,96.39,423,20.567
41.2210499,96.39,438,20.9284
41.24731047,96.39,420,20.4939
41.27357104,96.39,418,20.445
41.2998316,96.39,380,19.4936
41.32609217,96.39,397,19.9249
41.35235273,96.39,429,20.7123
41.3786133,96.39,432,20.7846
41.40487386,96.39,436,20.8806
41.43113443,96.39,515,22.6936
41.45739499,96.39,492,22.1811
41.48365556,96.39,518,22.7596
41.50991612,96.39,521,22.8254
41.53617669,96.39,515,22.6936
41.56243725,96.39,473,21.7486
41.58869782,96.39,517,22.7376
41.61495838,96.39,519,22.7816
41.64121895,96.39,482,21.9545
41.66747952,96.39,434,20.8327
41.69374008,96.39,407,20.1742
41.72000065,96.39,406,20.1494
41.74626121,96.39,424,20.5913
41.77252178,96.39,369,19.2094
41.79878234,96.39,388,19.6977
41.82504291,96.39,360,18.9737
41.85130347,96.39,362,19.0263
41.87756404,96.39,399,19.975
41.9038246,96.39,361,19
41.93008517,96.39,343,18.5203
41.95634573,96.39,365,19.105
41.9826063,96.39,359,18.9473
42.00886687,96.39,356,18.868
42.03512743,96.39,383,19.5704
42.061388,96.39,351,18.735
42.08764856,96.39,317,17.8045
42.11390913,96.39,427,20.664
42.14016969,96.39,404,20.0998
42.16643026,96.39,400,20
42.19269082,96.39,392,19.799
42.21895139,96.39,411,20.2731
42.24521195,96.39,417,20.4206
42.27147252,96.39,373,19.3132
42.29773308,96.39,384,19.5959
42.32399365,96.39,376,19.3907
42.35025421,96.39,337,18.3576
42.37651478,96.39,308,17.5499
42.40277535,96.39,323,17.9722
42.42903591,96.39,318,17.8326
42.45529648,96.39,299,17.2916
42.48155704,96.39,306,17.4929
42.50781761,96.39,287,16.9411
42.53407817,96.39,291,17.0587
42.56033874,96.39,300,17.3205
42.5865993,96.39,294,17.1464
42.61285987,96.39,309,17.5784
42.63912043,96.39,270,16.4317
42.665381,96.39,338,18.3848
42.69164156,96.39,324,18
42.71790213,96.39,316,17.7764
42.7441627,96.39,313,17.6918
42.77042326,96.39,329,18.1384
42.79668383,96.39,340,18.4391
42.82294439,96.39,335,18.303
42.84920496,96.39,312,17.6635
42.87546552,96.39,361,19
42.90172609,96.39,353,18.7883
42.92798665,96.39,352,18.7617
42.95424722,96.39,377,19.4165
42.98050778,96.39,367,19.1572
43.00676835,96.39,361,19
43.03302891,96.39,363,19.0526
43.05928948,96.39,355,18.8414
43.08555004,96.39,403,20.0749
43.11181061,96.39,455,21.3307
43.13807118,96.39,469,21.6564
43.16433174,96.39,605,24.5967
43.19059231,96.39,645,25.3969
43.21685287,96.39,831,28.8271
43.24311344,96.39,1022,31.9687
43.269374,96.39,1403,37.4566
43.29563457,96.39,1638,40.4722
43.32189513,96.39,1991,44.6206
43.3481557,96.39,1844,42.9418
43.37441626,96.39,1414,37.6032
43.40067683,96.39,1146,33.8526
43.42693739,96.39,1171,34.2199
43.45319796,96.39,1094,33.0757
43.47945853,96.39,837,28.931
43.50571909,96.39,600,24.4949
43.53197966,96.39,451,21.2368
43.55824022,96.39,395,19.8746
43.58450079,96.39,377,19.4165
43.61076135,96.39,374,19.3391
43.63702192,96.39,334,18.2757
43.66328248,96.39,352,18.7617
43.68954305,96.39,369,19.2094
43.71580361,96.39,345,18.5742
43.74206418,96.39,266,16.3095
43.76832474,96.39,326,18.0555
43.79458531,96.39,317,17.8045
43.82084587,96.39,283,16.8226
43.84710644,96.39,293,17.1172
43.87336701,96.39,316,17.7764
43.89962757,96.39,303,17.4069
43.92588814,96.39,276,16.6132
43.9521487,96.39,294,17.1464
43.97840927,96.39,326,18.0555
44.00466983,96.39,334,18.2757
44.0309304,96.39,325,18.0278
44.05719096,96.39,357,18.8944
44.08345153,96.39,375,19.3649
44.10971209,96.39,358,18.9209
44.13597266,96.39,448,21.166
44.16223322,96.39,431,20.7605
44.18849379,96.39,427,20.664
44.21475435,96.39,431,20.7605
44.24101492,96.39,382,19.5448
44.26727549,96.39,369,19.2094
44.29353605,96.39,369,19.2094
44.31979662,96.39,364,19.0788
44.34605718,96.39,346,18.6011
44.37231775,96.39,316,17.7764
44.39857831,96.39,323,17.9722
44.42483888,96.39,298,17.2627
44.45109944,96.39,297,17.2337
44.47736001,96.39,274,16.5529
44.50362057,96.39,295,17.1756
44.52988114,96.39,282,16.7929
44.5561417,96.39,281,16.7631
44.58240227,96.39,238,15.4272
44.60866284,96.39,262,16.1864
44.6349234,96.39,252,15.8745
44.66118397,96.39,247,15.7162
44.68744453,96.39,277,16.6433
44.7137051,96.39,265,16.2788
44.73996566,96.39,283,16.8226
44.76622623,96.39,259,16.0935
44.79248679,96.39,242,15.5563
44.81874736,96.39,306,17.4929
44.84500792,96.39,296,17.2047
44.87126849,96.39,277,16.6433
44.89752905,96.39,287,16.9411
44.92378962,96.39,280,16.7332
44.95005018,96.39,288,16.9706
44.97631075,96.39,281,16.7631
45.00257132,96.39,327,18.0831
45.02883188,96.39,286,16.9115
45.05509245,96.39,304,17.4356
45.08135301,96.39,293,17.1172
45.10761358,96.39,266,16.3095
45.13387414,96.39,262,16.1864
45.16013471,96.39,303,17.4069
45.18639527,96.39,271,16.4621
45.21265584,96.39,274,16.5529
45.2389164,96.39,296,17.2047
45.26517697,96.39,289,17
45.29143753,96.39,256,16
45.3176981,96.39,277,16.6433
45.34395867,96.39,309,17.5784
45.37021923,96.39,271,16.4621
45.3964798,96.39,289,17
45.42274036,96.39,311,17.6352
45.44900093,96.39,297,17.2337
45.47526149,96.39,286,16.9115
45.50152206,96.39,279,16.7033
45.52778262,96.39,269,16.4012
45.55404319,96.39,309,17.5784
45.58030375,96.39,292,17.088
45.60656432,96.39,322,17.9444
45.63282488,96.39,305,17.4642
45.65908545,96.39,299,17.2916
45.68534601,96.39,293,17.1172
45.71160658,96.39,302,17.3781
45.73786715,96.39,302,17.3781
45.76412771,96.39,293,17.1172
45.79038828,96.39,280,16.7332
45.81664884,96.39,297,17.2337
45.84290941,96.39,279,16.7033
45.86916997,96.39,275,16.5831
45.89543054,96.39,275,16.5831
45.9216911,96.39,262,16.1864
45.94795167,96.39,285,16.8819
45.97421223,96.39,321,17.9165
46.0004728,96.39,301,17.3494
46.02673336,96.39,318,17.8326
46.05299393,96.39,275,16.5831
46.0792545,96.39,297,17.2337
46.10551506,96.39,289,17
46.13177563,96.39,334,18.2757
46.15803619,96.39,305,17.4642
46.18429676,96.39,324,18
46.21055732,96.39,298,17.2627
46.23681789,96.39,322,17.9444
46.26307845,96.39,327,18.0831
46.28933902,96.39,313,17.6918
46.31559958,96.39,300,17.3205
46.34186015,96.39,334,18.2757
46.36812071,96.39,320,17.8885
46.39438128,96.39,320,17.8885
46.42064184,96.39,306,17.4929
46.44690241,96.39,325,18.0278
46.47316298,96.39,318,17.8326
46.49942354,96.39,360,18.9737
46.52568411,96.39,323,17.9722
46.55194467,96.39,324,18
46.57820524,96.39,317,17.8045
46.6044658,96.39,357,18.8944
46.63072637,96.39,322,17.9444
46.65698693,96.39,346,18.6011
46.6832475,96.39,354,18.8149
46.70950806,96.39,316,17.7764
46.73576863,96.39,346,18.6011
46.76202919,96.39,372,19.2873
46.78828976,96.39,405,20.1246
46.81455033,96.39,387,19.6723
46.84081089,96.39,373,19.3132
46.86707146,96.39,360,18.9737
46.89333202,96.39,378,19.4422
46.91959259,96.39,371,19.2614
46.94585315,96.39,391,19.7737
46.97211372,96.39,378,19.4422
46.99837428,96.39,427,20.664
47.02463485,96.39,374,19.3391
47.05089541,96.39,369,19.2094
47.07715598,96.39,404,20.0998
47.10341654,96.39,430,20.7364
47.12967711,96.39,449,21.1896
47.15593767,96.39,431,20.7605
47.18219824,96.39,453,21.2838
47.20845881,96.39,449,21.1896
47.23471937,96.39,410,20.2485
47.26097994,96.39,405,20.1246
47.2872405,96.39,457,21.3776
47.31350107,96.39,409,20.2237
47.33976163,96.39,449,21.1896
47.3660222,96.39,401,20.025
47.39228276,96.39,390,19.7484
47.41854333,96.39,341,18.4662
47.44480389,96.39,350,18.7083
47.47106446,96.39,361,19
47.49732502,96.39,340,18.4391
47.52358559,96.39,344,18.5472
47.54984616,96.39,296,17.2047
47.57610672,96.39,307,17.5214
47.60236729,96.39,348,18.6548
47.62862785,96.39,301,17.3494
47.65488842,96.39,280,16.7332
47.68114898,96.39,309,17.5784
47.70740955,96.39,271,16.4621
47.73367011,96.39,312,17.6635
47.75993068,96.39,321,17.9165
47.78619124,96.39,322,17.9444
47.81245181,96.39,332,18.2209
47.83871237,96.39,355,18.8414
47.86497294,96.39,350,18.7083
47.8912335,96.39,359,18.9473
47.91749407,96.39,331,18.1934
47.94375464,96.39,344,18.5472
47.9700152,96.39,343,18.5203
47.99627577,96.39,329,18.1384
48.02253633,96.39,335,18.303
48.0487969,96.39,339,18.412
48.07505746,96.39,327,18.0831
48.10131803,96.39,288,16.9706
48.12757859,96.39,312,17.6635
48.15383916,96.39,286,16.9115
48.18009972,96.39,296,17.2047
48.20636029,96.39,272,16.4924
48.23262085,96.39,321,17.9165
48.25888142,96.39,315,17.7482
48.28514198,96.39,264,16.2481
48.31140255,96.39,260,16.1245
48.33766312,96.39,241,15.5242
48.36392368,96.39,251,15.843
48.39018425,96.39,297,17.2337
48.41644481,96.39,276,16.6132
48.44270538,96.39,289,17
48.46896594,96.39,292,17.088
48.49522651,96.39,266,16.3095
48.52148707,96.39,275,16.5831
48.54774764,96.39,304,17.4356
48.5740082,96.39,269,16.4012
48.60026877,96.39,256,16
48.62652933,96.39,299,17.2916
48.6527899,96.39,271,16.4621
48.67905047,96.39,298,17.2627
48.70531103,96.39,241,15.5242
48.7315716,96.39,257,16.0312
48.75783216,96.39,267,16.3401
48.78409273,96.39,286,16.9115
48.81035329,96.39,287,16.9411
48.83661386,96.39,292,17.088
48.86287442,96.39,249,15.7797
48.88913499,96.39,282,16.7929
48.91539555,96.39,288,16.9706
48.94165612,96.39,277,16.6433
48.96791668,96.39,300,17.3205
48.99417725,96.39,267,16.3401
49.02043781,96.39,300,17.3205
49.04669838,96.39,306,17.4929
49.07295895,96.39,329,18.1384
49.09921951,96.39,316,17.7764
49.12548008,96.39,282,16.7929
49.15174064,96.39,288,16.9706
49.17800121,96.39,261,16.1555
49.20426177,96.39,276,16.6132
49.23052234,96.39,317,17.8045
49.2567829,96.39,323,17.9722
49.28304347,96.39,265,16.2788
49.30930403,96.39,294,17.1464
49.3355646,96.39,275,16.5831
49.36182516,96.39,273,16.5227
49.38808573,96.39,252,15.8745
49.4143463,96.39,303,17.4069
49.44060686,96.39,244,15.6205
49.46686743,96.39,249,15.7797
49.49312799,96.39,276,16.6132
49.51938856,96.39,241,15.5242
49.54564912,96.39,286,16.9115
49.57190969,96.39,256,16
49.59817025,96.39,289,17
49.62443082,96.39,291,17.0587
49.65069138,96.39,274,16.5529
49.67695195,96.39,272,16.4924
49.70321251,96.39,290,17.0294
49.72947308,96.39,302,17.3781
49.75573364,96.39,309,17.5784
49.78199421,96.39,284,16.8523
49.80825478,96.39,266,16.3095
49.83451534,96.39,286,16.9115
49.86077591,96.39,282,16.7929
49.88703647,96.39,243,15.5885
49.91329704,96.39,280,16.7332
49.9395576,96.39,251,15.843
49.96581817,96.39,224,14.9666
49.99207873,96.39,253,15.906
50.0183393,96.39,223,14.9332
50.04459986,96.39,259,16.0935
50.07086043,96.39,208,14.4222
50.09712099,96.39,246,15.6844
50.12338156,96.39,290,17.0294
50.14964213,96.39,258,16.0624
50.17590269,96.39,229,15.1327
50.20216326,96.39,213,14.5945
50.22842382,96.39,234,15.2971
50.25468439,96.39,244,15.6205
50.28094495,96.39,223,14.9332
50.30720552,96.39,215,14.6629
50.33346608,96.39,238,15.4272
50.35972665,96.39,251,15.843
50.38598721,96.39,276,16.6132
50.41224778,96.39,219,14.7986
50.43850834,96.39,242,15.5563
50.46476891,96.39,215,14.6629
50.49102947,96.39,242,15.5563
50.51729004,96.39,206,14.3527
50.54355061,96.39,240,15.4919
50.56981117,96.39,237,15.3948
50.59607174,96.39,246,15.6844
50.6223323,96.39,246,15.6844
50.64859287,96.39,239,15.4596
50.67485343,96.39,243,15.5885
50.701114,96.39,199,14.1067
50.72737456,96.39,211,14.5258
50.75363513,96.39,221,14.8661
50.77989569,96.39,217,14.7309
50.80615626,96.39,223,14.9332
50.83241682,96.39,225,15
50.85867739,96.39,215,14.6629
50.88493796,96.39,262,16.1864
50.91119852,96.39,249,15.7797
50.93745909,96.39,220,14.8324
50.96371965,96.39,227,15.0665
50.98998022,96.39,219,14.7986
51.01624078,96.39,228,15.0997
51.04250135,96.39,226,15.0333
51.06876191,96.39,253,15.906
51.09502248,96.39,219,14.7986
51.12128304,96.39,240,15.4919
51.14754361,96.39,219,14.7986
51.17380417,96.39,225,15
51.20006474,96.39,239,15.4596
51.2263253,96.39,232,15.2315
51.25258587,96.39,227,15.0665
51.27884644,96.39,207,14.3875
51.305107,96.39,225,15
51.33136757,96.39,236,15.3623
51.35762813,96.39,242,15.5563
51.3838887,96.39,193,13.8924
51.41014926,96.39,232,15.2315
51.43640983,96.39,246,15.6844
51.46267039,96.39,226,15.0333
51.48893096,96.39,230,15.1658
51.51519152,96.39,246,15.6844
51.54145209,96.39,263,16.2173
51.56771265,96.39,244,15.6205
51.59397322,96.39,254,15.9374
51.62023378,96.39,232,15.2315
51.64649435,96.39,247,15.7162
51.67275492,96.39,225,15
51.69901548,96.39,255,15.9687
51.72527605,96.39,258,16.0624
51.75153661,96.39,245,15.6525
51.77779718,96.39,261,16.1555
51.80405774,96.39,245,15.6525
51.83031831,96.39,256,16
51.85657887,96.39,256,16
51.88283944,96.39,262,16.1864
51.9091,96.39,237,15.3948
51.93536057,96.39,299,17.2916
51.96162113,96.39,251,15.843
51.9878817,96.39,271,16.4621
52.01414227,96.39,306,17.4929
52.04040283,96.39,295,17.1756
52.0666634,96.39,296,17.2047
52.09292396,96.39,306,17.4929
52.11918453,96.39,315,17.7482
52.14544509,96.39,348,18.6548
52.17170566,96.39,310,17.6068
52.19796622,96.39,332,18.2209
52.22422679,96.39,334,18.2757
52.25048735,96.39,350,18.7083
52.27674792,96.39,337,18.3576
52.30300848,96.39,380,19.4936
52.32926905,96.39,387,19.6723
52.35552961,96.39,434,20.8327
52.38179018,96.39,532,23.0651
52.40805075,96.39,602,24.5357
52.43431131,96.39,642,25.3377
52.46057188,96.39,829,28.7924
52.48683244,96.39,1036,32.187
52.51309301,96.39,1070,32.7109
52.53935357,96.39,1121,33.4813
52.56561414,96.39,968,31.1127
52.5918747,96.39,897,29.95
52.61813527,96.39,844,29.0517
52.64439583,96.39,890,29.8329
52.6706564,96.39,859,29.3087
52.69691696,96.39,762,27.6043
52.72317753,96.39,696,26.3818
52.7494381,96.39,573,23.9374
52.77569866,96.39,546,23.3666
52.80195923,96.39,468,21.6333
52.82821979,96.39,418,20.445
52.85448036,96.39,457,21.3776
52.88074092,96.39,449,21.1896
52.90700149,96.39,434,20.8327
52.93326205,96.39,458,21.4009
52.95952262,96.39,461,21.4709
52.98578318,96.39,483,21.9773
53.01204375,96.39,479,21.8861
53.03830431,96.39,550,23.4521
53.06456488,96.39,547,23.388
53.09082544,96.39,482,21.9545
53.11708601,96.39,579,24.0624
53.14334658,96.39,563,23.7276
53.16960714,96.39,512,22.6274
53.19586771,96.39,495,22.2486
53.22212827,96.39,454,21.3073
53.24838884,96.39,489,22.1133
53.2746494,96.39,422,20.5426
53.30090997,96.39,450,21.2132
53.32717053,96.39,375,19.3649
53.3534311,96.39,423,20.567
53.37969166,96.39,351,18.735
53.40595223,96.39,320,17.8885
53.43221279,96.39,332,18.2209
53.45847336,96.39,284,16.8523
53.48473393,96.39,313,17.6918
53.51099449,96.39,284,16.8523
53.53725506,96.39,307,17.5214
53.56351562,96.39,316,17.7764
53.58977619,96.39,278,16.6733
53.61603675,96.39,260,16.1245
53.64229732,96.39,254,15.9374
53.66855788,96.39,260,16.1245
53.69481845,96.39,262,16.1864
53.72107901,96.39,267,16.3401
53.74733958,96.39,286,16.9115
53.77360014,96.39,242,15.5563
53.79986071,96.39,276,16.6132
53.82612127,96.39,250,15.8114
53.85238184,96.39,256,16
53.87864241,96.39,273,16.5227
53.90490297,96.39,241,15.5242
53.93116354,96.39,279,16.7033
53.9574241,96.39,253,15.906
53.98368467,96.39,238,15.4272
54.00994523,96.39,258,16.0624
54.0362058,96.39,285,16.8819
54.06246636,96.39,267,16.3401
54.08872693,96.39,251,15.843
54.11498749,96.39,274,16.5529
54.14124806,96.39,279,16.7033
54.16750862,96.39,297,17.2337
54.19376919,96.39,271,16.4621
54.22002976,96.39,324,18
54.24629032,96.39,355,18.8414
54.27255089,96.39,352,18.7617
54.29881145,96.39,348,18.6548
54.32507202,96.39,340,18.4391
54.35133258,96.39,336,18.3303
54.37759315,96.39,317,17.8045
54.40385371,96.39,287,16.9411
54.43011428,96.39,271,16.4621
54.45637484,96.39,276,16.6132
54.48263541,96.39,260,16.1245
54.50889597,96.39,249,15.7797
54.53515654,96.39,256,16
54.5614171,96.39,232,15.2315
54.58767767,96.39,269,16.4012
54.61393824,96.39,238,15.4272
54.6401988,96.39,235,15.3297
54.66645937,96.39,240,15.4919
54.69271993,96.39,251,15.843
54.7189805,96.39,230,15.1658
54.74524106,96.39,245,15.6525
54.77150163,96.39,229,15.1327
54.79776219,96.39,231,15.1987
54.82402276,96.39,260,16.1245
54.85028332,96.39,224,14.9666
54.87654389,96.39,229,15.1327
54.90280445,96.39,245,15.6525
54.92906502,96.39,235,15.3297
54.95532559,96.39,233,15.2643
54.98158615,96.39,212,14.5602
55.00784672,96.39,206,14.3527
55.03410728,96.39,245,15.6525
55.06036785,96.39,214,14.6287
55.08662841,96.39,202,14.2127
55.11288898,96.39,213,14.5945
55.13914954,96.39,183,13.5277
55.16541011,96.39,209,14.4568
55.19167067,96.39,207,14.3875
55.21793124,96.39,199,14.1067
55.2441918,96.39,186,13.6382
55.27045237,96.39,204,14.2829
55.29671293,96.39,216,14.6969
55.3229735,96.39,229,15.1327
55.34923407,96.39,226,15.0333
55.37549463,96.39,221,14.8661
55.4017552,96.39,238,15.4272
55.42801576,96.39,207,14.3875
55.45427633,96.39,214,14.6287
55.48053689,96.39,206,14.3527
55.50679746,96.39,194,13.9284
55.53305802,96.39,217,14.7309
55.55931859,96.39,208,14.4222
55.58557915,96.39,207,14.3875
55.61183972,96.39,230,15.1658
55.63810028,96.39,232,15.2315
55.66436085,96.39,242,15.5563
55.69062141,96.39,213,14.5945
55.71688198,96.39,225,15
55.74314255,96.39,204,14.2829
55.76940311,96.39,193,13.8924
55.79566368,96.39,232,15.2315
55.82192424,96.39,220,14.8324
55.84818481,96.39,235,15.3297
55.87444537,96.39,226,15.0333
55.90070594,96.39,216,14.6969
55.9269665,96.39,206,14.3527
55.95322707,96.39,213,14.5945
55.97948763,96.39,207,14.3875
56.0057482,96.39,201,14.1774
56.03200876,96.39,250,15.8114
56.05826933,96.39,210,14.4914
56.0845299,96.39,201,14.1774
56.11079046,96.39,209,14.4568
56.13705103,96.39,203,14.2478
56.16331159,96.39,238,15.4272
56.18957216,96.39,202,14.2127
56.21583272,96.39,213,14.5945
56.24209329,96.39,204,14.2829
56.26835385,96.39,225,15
56.29461442,96.39,217,14.7309
56.32087498,96.39,222,14.8997
56.34713555,96.39,241,15.5242
56.37339611,96.39,248,15.748
56.39965668,96.39,241,15.5242
56.42591724,96.39,278,16.6733
56.45217781,96.39,281,16.7631
56.47843838,96.39,278,16.6733
56.50469894,96.39,282,16.7929
56.53095951,96.39,252,15.8745
56.55722007,96.39,300,17.3205
56.58348064,96.39,303,17.4069
56.6097412,96.39,262,16.1864
56.63600177,96.39,245,15.6525
56.66226233,96.39,268,16.3707
56.6885229,96.39,226,15.0333
56.71478346,96.39,220,14.8324
56.74104403,96.39,226,15.0333
56.76730459,96.39,241,15.5242
56.79356516,96.39,238,15.4272
56.81982573,96.39,239,15.4596
56.84608629,96.39,243,15.5885
56.87234686,96.39,221,14.8661
56.89860742,96.39,243,15.5885
56.92486799,96.39,265,16.2788
56.95112855,96.39,232,15.2315
56.97738912,96.39,240,15.4919
57.00364968,96.39,259,16.0935
57.02991025,96.39,239,15.4596
57.05617081,96.39,283,16.8226
57.08243138,96.39,253,15.906
57.10869194,96.39,281,16.7631
57.13495251,96.39,302,17.3781
57.16121307,96.39,339,18.412
57.18747364,96.39,322,17.9444
57.21373421,96.39,363,19.0526
57.23999477,96.39,416,20.3961
57.26625534,96.39,428,20.6882
57.2925159,96.39,470,21.6795
57.31877647,96.39,572,23.9165
57.34503703,96.39,706,26.5707
57.3712976,96.39,866,29.4279
57.39755816,96.39,1068,32.6803
57.42381873,96.39,1221,34.9428
57.45007929,96.39,1468,38.3145
57.47633986,96.39,1655,40.6817
57.50260042,96.39,1419,37.6696
57.52886099,96.39,1039,32.2335
57.55512156,96.39,963,31.0322
57.58138212,96.39,940,30.6594
57.60764269,96.39,990,31.4643
57.63390325,96.39,924,30.3974
57.66016382,96.39,762,27.6043
57.68642438,96.39,576,24
57.71268495,96.39,425,20.6155
57.73894551,96.39,354,18.8149
57.76520608,96.39,317,17.8045
57.79146664,96.39,295,17.1756
57.81772721,96.39,273,16.5227
57.84398777,96.39,241,15.5242
57.87024834,96.39,240,15.4919
57.8965089,96.39,241,15.5242
57.92276947,96.39,197,14.0357
57.94903004,96.39,249,15.7797
57.9752906,96.39,240,15.4919
58.00155117,96.39,217,14.7309
58.02781173,96.39,169,13
58.0540723,96.39,207,14.3875
58.08033286,96.39,186,13.6382
58.10659343,96.39,207,14.3875
58.13285399,96.39,195,13.9642
58.15911456,96.39,208,14.4222
58.18537512,96.39,181,13.4536
58.21163569,96.39,215,14.6629
58.23789625,96.39,171,13.0767
58.26415682,96.39,209,14.4568
58.29041739,96.39,207,14.3875
58.31667795,96.39,225,15
58.34293852,96.39,228,15.0997
58.36919908,96.39,236,15.3623
58.39545965,96.39,223,14.9332
58.42172021,96.39,237,15.3948
58.44798078,96.39,233,15.2643
58.47424134,96.39,262,16.1864
58.50050191,96.39,258,16.0624
58.52676247,96.39,277,16.6433
58.55302304,96.39,285,16.8819
58.5792836,96.39,280,16.7332
58.60554417,96.39,309,17.5784
58.63180473,96.39,323,17.9722
58.6580653,96.39,323,17.9722
58.68432587,96.39,269,16.4012
58.71058643,96.39,291,17.0587
58.736847,96.39,275,16.5831
58.76310756,96.39,246,15.6844
58.78936813,96.39,247,15.7162
58.81562869,96.39,264,16.2481
58.84188926,96.39,258,16.0624
58.86814982,96.39,260,16.1245
58.89441039,96.39,237,15.3948
58.92067095,96.39,269,16.4012
58.94693152,96.39,229,15.1327
58.97319208,96.39,208,14.4222
58.99945265,96.39,205,14.3178
59.02571321,96.39,238,15.4272
59.05197378,96.39,225,15
59.07823435,96.39,253,15.906
59.10449491,96.39,229,15.1327
59.13075548,96.39,266,16.3095
59.15701604,96.39,233,15.2643
59.18327661,96.39,240,15.4919
59.20953717,96.39,207,14.3875
59.23579774,96.39,229,15.1327
59.2620583,96.39,256,16
59.28831887,96.39,249,15.7797
59.31457943,96.39,235,15.3297
59.34084,96.39,202,14.2127
59.36710056,96.39,255,15.9687
59.39336113,96.39,235,15.3297
59.4196217,96.39,243,15.5885
59.44588226,96.39,194,13.9284
59.47214283,96.39,222,14.8997
59.49840339,96.39,220,14.8324
59.52466396,96.39,192,13.8564
59.55092452,96.39,226,15.0333
59.57718509,96.39,234,15.2971
59.60344565,96.39,237,15.3948
59.62970622,96.39,228,15.0997
59.65596678,96.39,257,16.0312
59.68222735,96.39,228,15.0997
59.70848791,96.39,255,15.9687
59.73474848,96.39,257,16.0312
59.76100904,96.39,209,14.4568
59.78726961,96.39,209,14.4568
59.81353018,96.39,228,15.0997
59.83979074,96.39,196,14
59.86605131,96.39,239,15.4596
59.89231187,96.39,211,14.5258
59.91857244,96.39,218,14.7648
59.944833,96.39,235,15.3297
59.97109357,96.39,197,14.0357
59.99735413,96.39,223,14.9332
60.0236147,96.39,196,14
60.04987526,96.39,200,14.1421
60.07613583,96.39,211,14.5258
60.10239639,96.39,207,14.3875
60.12865696,96.39,232,15.2315
60.15491753,96.39,215,14.6629
60.18117809,96.39,223,14.9332
60.20743866,96.39,206,14.3527
60.23369922,96.39,205,14.3178
60.25995979,96.39,204,14.2829
60.28622035,96.39,247,15.7162
60.31248092,96.39,242,15.5563
60.33874148,96.39,217,14.7309
60.36500205,96.39,229,15.1327
60.39126261,96.39,239,15.4596
60.41752318,96.39,256,16
60.44378374,96.39,254,15.9374
60.47004431,96.39,240,15.4919
60.49630487,96.39,217,14.7309
60.52256544,96.39,240,15.4919
60.54882601,96.39,276,16.6132
60.57508657,96.39,283,16.8226
60.60134714,96.39,267,16.3401
60.6276077,96.39,301,17.3494
60.65386827,96.39,335,18.303
60.68012883,96.39,340,18.4391
60.7063894,96.39,369,19.2094
60.73264996,96.39,325,18.0278
60.75891053,96.39,413,20.3224
60.78517109,96.39,399,19.975
60.81143166,96.39,428,20.6882
60.83769222,96.39,367,19.1572
60.86395279,96.39,408,20.199
60.89021336,96.39,381,19.5192
60.91647392,96.39,388,19.6977
60.94273449,96.39,427,20.664
60.96899505,96.39,350,18.7083
60.99525562,96.39,343,18.5203
61.02151618,96.39,366,19.1311
61.04777675,96.39,350,18.7083
61.07403731,96.39,373,19.3132
61.10029788,96.39,303,17.4069
61.12655844,96.39,336,18.3303
61.15281901,96.39,314,17.72
61.17907957,96.39,309,17.5784
61.20534014,96.39,346,18.6011
61.2316007,96.39,342,18.4932
61.25786127,96.39,355,18.8414
61.28412184,96.39,380,19.4936
61.3103824,96.39,316,17.7764
61.33664297,96.39,289,17
61.36290353,96.39,282,16.7929
61.3891641,96.39,287,16.9411
61.41542466,96.39,277,16.6433
61.44168523,96.39,265,16.2788
61.46794579,96.39,256,16
61.49420636,96.39,247,15.7162
61.52046692,96.39,252,15.8745
61.54672749,96.39,228,15.0997
61.57298805,96.39,217,14.7309
61.59924862,96.39,233,15.2643
61.62550919,96.39,197,14.0357
61.65176975,96.39,201,14.1774
61.67803032,96.39,265,16.2788
61.70429088,96.39,237,15.3948
61.73055145,96.39,230,15.1658
61.75681201,96.39,227,15.0665
61.78307258,96.39,259,16.0935
61.80933314,96.39,253,15.906
61.83559371,96.39,277,16.6433
61.86185427,96.39,236,15.3623
61.88811484,96.39,246,15.6844
61.9143754,96.39,264,16.2481
61.94063597,96.39,251,15.843
61.96689653,96.39,256,16
61.9931571,96.39,285,16.8819
62.01941767,96.39,304,17.4356
62.04567823,96.39,285,16.8819
62.0719388,96.39,313,17.6918
62.09819936,96.39,342,18.4932
62.12445993,96.39,297,17.2337
62.15072049,96.39,323,17.9722
62.17698106,96.39,370,19.2354
62.20324162,96.39,339,18.412
62.22950219,96.39,325,18.0278
62.25576275,96.39,361,19
62.28202332,96.39,285,16.8819
62.30828388,96.39,350,18.7083
62.33454445,96.39,277,16.6433
62.36080502,96.39,275,16.5831
62.38706558,96.39,290,17.0294
62.41332615,96.39,291,17.0587
62.43958671,96.39,237,15.3948
62.46584728,96.39,243,15.5885
62.49210784,96.39,243,15.5885
62.51836841,96.39,265,16.2788
62.54462897,96.39,247,15.7162
62.57088954,96.39,242,15.5563
62.5971501,96.39,234,15.2971
62.62341067,96.39,220,14.8324
62.64967123,96.39,233,15.2643
62.6759318,96.39,247,15.7162
62.70219236,96.39,210,14.4914
62.72845293,96.39,215,14.6629
62.7547135,96.39,223,14.9332
62.78097406,96.39,263,16.2173
62.80723463,96.39,209,14.4568
62.83349519,96.39,225,15
62.85975576,96.39,214,14.6287
62.88601632,96.39,248,15.748
62.91227689,96.39,199,14.1067
62.93853745,96.39,225,15
62.96479802,96.39,197,14.0357
62.99105858,96.39,197,14.0357
63.01731915,96.39,209,14.4568
63.04357971,96.39,188,13.7113
63.06984028,96.39,184,13.5647
63.09610084,96.39,202,14.2127
63.12236141,96.39,181,13.4536
63.14862198,96.39,241,15.5242
63.17488254,96.39,198,14.0712
63.20114311,96.39,190,13.784
63.22740367,96.39,226,15.0333
63.25366424,96.39,190,13.784
63.2799248,96.39,209,14.4568
63.30618537,96.39,181,13.4536
63.33244593,96.39,198,14.0712
63.3587065,96.39,226,15.0333
63.38496706,96.39,216,14.6969
63.41122763,96.39,209,14.4568
63.43748819,96.39,236,15.3623
63.46374876,96.39,212,14.5602
63.49000933,96.39,246,15.6844
63.51626989,96.39,232,15.2315
63.54253046,96.39,264,16.2481
63.56879102,96.39,274,16.5529
63.59505159,96.39,269,16.4012
63.62131215,96.39,261,16.1555
63.64757272,96.39,305,17.4642
63.67383328,96.39,258,16.0624
63.70009385,96.39,309,17.5784
63.72635441,96.39,330,18.1659
63.75261498,96.39,334,18.2757
63.77887554,96.39,321,17.9165
63.80513611,96.39,292,17.088
63.83139667,96.39,320,17.8885
63.85765724,96.39,313,17.6918
63.88391781,96.39,319,17.8606
63.91017837,96.39,266,16.3095
63.93643894,96.39,276,16.6132
63.9626995,96.39,280,16.7332
63.98896007,96.39,294,17.1464
64.01522063,96.39,268,16.3707
64.0414812,96.39,248,15.748
64.06774176,96.39,238,15.4272
64.09400233,96.39,249,15.7797
64.12026289,96.39,275,16.5831
64.14652346,96.39,235,15.3297
64.17278402,96.39,287,16.9411
64.19904459,96.39,303,17.4069
64.22530516,96.39,271,16.4621
64.25156572,96.39,248,15.748
64.27782629,96.39,265,16.2788
64.30408685,96.39,305,17.4642
64.33034742,96.39,262,16.1864
64.35660798,96.39,287,16.9411
64.38286855,96.39,242,15.5563
64.40912911,96.39,262,16.1864
64.43538968,96.39,256,16
64.46165024,96.39,254,15.9374
64.48791081,96.39,211,14.5258
64.51417137,96.39,248,15.748
64.54043194,96.39,241,15.5242
64.5666925,96.39,235,15.3297
64.59295307,96.39,193,13.8924
64.61921364,96.39,208,14.4222
64.6454742,96.39,222,14.8997
64.67173477,96.39,213,14.5945
64.69799533,96.39,230,15.1658
64.7242559,96.39,177,13.3041
64.75051646,96.39,227,15.0665
64.77677703,96.39,208,14.4222
64.80303759,96.39,173,13.1529
64.82929816,96.39,190,13.784
64.85555872,96.39,182,13.4907
64.88181929,96.39,193,13.8924
64.90807985,96.39,182,13.4907
64.93434042,96.39,174,13.1909
64.96060099,96.39,174,13.1909
64.98686155,96.39,194,13.9284
