[Measurement conditions],,,
Sample identification,150_Centroid08Dec21_Act12Feb23_B1_0714M_NaOH_LS0173,,
Comment - 1,"Configuration=Reflection-Transmission Spinner 3.0, Owner=arr19, Creation date=3/22/2023 1:21:48 PM",,
Comment - 2,Goniometer=Theta/Theta; Minimum step size 2Theta:0.0001; Minimum step size Omega:0.0001,,
Comment - 3,Sample stage=Reflection-transmission spinner 3.0; Minimum step size Phi:0.1,,
Comment - 4,Diffractometer system=EMPYREAN,,
Comment - 5,"Measurement program=X:\XRD\Cement\Spinner_for_cement.xrdmp, Created identifier={6DF360EA-8E6E-4CFC-907C-F1BFECF51AA2}, Created by=Titus Reed, Id=tmr79, Creation date=2/15/2023 11:27:56 AM",,
Anode material,Cu,,
K-Alpha1 wavelength,1.540598,,
K-Alpha2 wavelength,1.544426,,
Ratio K-Alpha2/K-Alpha1,0.5,,
Divergence slit,Fixed,0.125,
Monochromator used,NO,,
Generator voltage,45,,
Tube current,40,,
File date and time,3/22/2023 13:33,,
Unit cell,,,
h k l, 0 0 0,,
Scan axis,Gonio,,
Scan range,4.994599997,64.99999183,
Scan step size,0.0262606,,
No. of points,2285,,
Scan type,CONTINUOUS,,
Phi,0,,
Time per step,96.39,,
Angle, TimePerStep, Intensity, ESD
5.00773028,96.39,1294,35.9722
5.033990845,96.39,1258,35.4683
5.060251411,96.39,1214,34.8425
5.086511976,96.39,1243,35.2562
5.112772541,96.39,1241,35.2278
5.139033107,96.39,1142,33.7935
5.165293672,96.39,1195,34.5688
5.191554237,96.39,1181,34.3657
5.217814803,96.39,1189,34.4819
5.244075368,96.39,1221,34.9428
5.270335934,96.39,1187,34.4529
5.296596499,96.39,1233,35.1141
5.322857064,96.39,1141,33.7787
5.34911763,96.39,1107,33.2716
5.375378195,96.39,1143,33.8083
5.40163876,96.39,1184,34.4093
5.427899326,96.39,1186,34.4384
5.454159891,96.39,1171,34.2199
5.480420456,96.39,1201,34.6554
5.506681022,96.39,1117,33.4215
5.532941587,96.39,1204,34.6987
5.559202152,96.39,1116,33.4066
5.585462718,96.39,1129,33.6006
5.611723283,96.39,1202,34.6699
5.637983849,96.39,1110,33.3167
5.664244414,96.39,1116,33.4066
5.690504979,96.39,1160,34.0588
5.716765545,96.39,1141,33.7787
5.74302611,96.39,1117,33.4215
5.769286675,96.39,1077,32.8177
5.795547241,96.39,1098,33.1361
5.821807806,96.39,1170,34.2053
5.848068371,96.39,1069,32.6956
5.874328937,96.39,1101,33.1813
5.900589502,96.39,1073,32.7567
5.926850067,96.39,1079,32.8481
5.953110633,96.39,1128,33.5857
5.979371198,96.39,1131,33.6303
6.005631763,96.39,1084,32.9242
6.031892329,96.39,1139,33.7491
6.058152894,96.39,1064,32.619
6.08441346,96.39,1052,32.4345
6.110674025,96.39,1085,32.9393
6.13693459,96.39,1119,33.4515
6.163195156,96.39,1119,33.4515
6.189455721,96.39,1098,33.1361
6.215716286,96.39,1085,32.9393
6.241976852,96.39,1114,33.3766
6.268237417,96.39,1080,32.8634
6.294497982,96.39,1057,32.5115
6.320758548,96.39,1063,32.6037
6.347019113,96.39,974,31.209
6.373279678,96.39,1106,33.2566
6.399540244,96.39,1053,32.45
6.425800809,96.39,1071,32.7261
6.452061375,96.39,1035,32.1714
6.47832194,96.39,1079,32.8481
6.504582505,96.39,968,31.1127
6.530843071,96.39,1067,32.665
6.557103636,96.39,1042,32.28
6.583364201,96.39,1069,32.6956
6.609624767,96.39,1072,32.7414
6.635885332,96.39,1121,33.4813
6.662145897,96.39,1041,32.2645
6.688406463,96.39,1068,32.6803
6.714667028,96.39,1100,33.1662
6.740927593,96.39,1013,31.8277
6.767188159,96.39,1019,31.9218
6.793448724,96.39,1023,31.9844
6.819709289,96.39,1019,31.9218
6.845969855,96.39,972,31.1769
6.87223042,96.39,1062,32.5883
6.898490986,96.39,998,31.5911
6.924751551,96.39,1034,32.1559
6.951012116,96.39,1017,31.8904
6.977272682,96.39,1016,31.8748
7.003533247,96.39,978,31.273
7.029793812,96.39,1075,32.7872
7.056054378,96.39,967,31.0966
7.082314943,96.39,1011,31.7962
7.108575508,96.39,1111,33.3317
7.134836074,96.39,986,31.4006
7.161096639,96.39,1058,32.5269
7.187357204,96.39,994,31.5278
7.21361777,96.39,990,31.4643
7.239878335,96.39,985,31.3847
7.2661389,96.39,972,31.1769
7.292399466,96.39,1029,32.078
7.318660031,96.39,966,31.0805
7.344920597,96.39,1007,31.7333
7.371181162,96.39,971,31.1609
7.397441727,96.39,988,31.4325
7.423702293,96.39,1006,31.7175
7.449962858,96.39,978,31.273
7.476223423,96.39,1043,32.2955
7.502483989,96.39,1006,31.7175
7.528744554,96.39,1056,32.4962
7.555005119,96.39,981,31.3209
7.581265685,96.39,930,30.4959
7.60752625,96.39,968,31.1127
7.633786815,96.39,1025,32.0156
7.660047381,96.39,984,31.3688
7.686307946,96.39,1035,32.1714
7.712568512,96.39,1013,31.8277
7.738829077,96.39,1001,31.6386
7.765089642,96.39,1017,31.8904
7.791350208,96.39,995,31.5436
7.817610773,96.39,981,31.3209
7.843871338,96.39,968,31.1127
7.870131904,96.39,986,31.4006
7.896392469,96.39,1009,31.7648
7.922653034,96.39,929,30.4795
7.9489136,96.39,968,31.1127
7.975174165,96.39,976,31.241
8.00143473,96.39,1004,31.686
8.027695296,96.39,947,30.7734
8.053955861,96.39,1043,32.2955
8.080216426,96.39,1002,31.6544
8.106476992,96.39,980,31.305
8.132737557,96.39,1037,32.2025
8.158998123,96.39,999,31.607
8.185258688,96.39,982,31.3369
8.211519253,96.39,975,31.225
8.237779819,96.39,931,30.5123
8.264040384,96.39,989,31.4484
8.290300949,96.39,947,30.7734
8.316561515,96.39,990,31.4643
8.34282208,96.39,976,31.241
8.369082645,96.39,1012,31.8119
8.395343211,96.39,967,31.0966
8.421603776,96.39,994,31.5278
8.447864341,96.39,1008,31.749
8.474124907,96.39,996,31.5595
8.500385472,96.39,975,31.225
8.526646038,96.39,988,31.4325
8.552906603,96.39,1026,32.0312
8.579167168,96.39,992,31.496
8.605427734,96.39,979,31.289
8.631688299,96.39,972,31.1769
8.657948864,96.39,967,31.0966
8.68420943,96.39,994,31.5278
8.710469995,96.39,980,31.305
8.73673056,96.39,1020,31.9374
8.762991126,96.39,992,31.496
8.789251691,96.39,982,31.3369
8.815512256,96.39,943,30.7083
8.841772822,96.39,958,30.9516
8.868033387,96.39,970,31.1448
8.894293952,96.39,965,31.0644
8.920554518,96.39,971,31.1609
8.946815083,96.39,979,31.289
8.973075649,96.39,985,31.3847
8.999336214,96.39,1015,31.8591
9.025596779,96.39,1006,31.7175
9.051857345,96.39,980,31.305
9.07811791,96.39,1029,32.078
9.104378475,96.39,1029,32.078
9.130639041,96.39,1029,32.078
9.156899606,96.39,1003,31.6702
9.183160171,96.39,974,31.209
9.209420737,96.39,949,30.8058
9.235681302,96.39,962,31.0161
9.261941867,96.39,990,31.4643
9.288202433,96.39,984,31.3688
9.314462998,96.39,974,31.209
9.340723564,96.39,968,31.1127
9.366984129,96.39,982,31.3369
9.393244694,96.39,971,31.1609
9.41950526,96.39,954,30.8869
9.445765825,96.39,984,31.3688
9.47202639,96.39,1030,32.0936
9.498286956,96.39,1038,32.218
9.524547521,96.39,965,31.0644
9.550808086,96.39,948,30.7896
9.577068652,96.39,923,30.3809
9.603329217,96.39,997,31.5753
9.629589782,96.39,1039,32.2335
9.655850348,96.39,974,31.209
9.682110913,96.39,987,31.4166
9.708371478,96.39,956,30.9192
9.734632044,96.39,975,31.225
9.760892609,96.39,987,31.4166
9.787153175,96.39,993,31.5119
9.81341374,96.39,921,30.348
9.839674305,96.39,947,30.7734
9.865934871,96.39,966,31.0805
9.892195436,96.39,1002,31.6544
9.918456001,96.39,1001,31.6386
9.944716567,96.39,1019,31.9218
9.970977132,96.39,948,30.7896
9.997237697,96.39,975,31.225
10.02349826,96.39,956,30.9192
10.04975883,96.39,980,31.305
10.07601939,96.39,967,31.0966
10.10227996,96.39,969,31.1288
10.12854052,96.39,976,31.241
10.15480109,96.39,985,31.3847
10.18106166,96.39,996,31.5595
10.20732222,96.39,976,31.241
10.23358279,96.39,1016,31.8748
10.25984335,96.39,986,31.4006
10.28610392,96.39,910,30.1662
10.31236448,96.39,970,31.1448
10.33862505,96.39,958,30.9516
10.36488561,96.39,985,31.3847
10.39114618,96.39,975,31.225
10.41740674,96.39,919,30.315
10.44366731,96.39,964,31.0483
10.46992787,96.39,940,30.6594
10.49618844,96.39,962,31.0161
10.522449,96.39,893,29.8831
10.54870957,96.39,937,30.6105
10.57497014,96.39,908,30.133
10.6012307,96.39,926,30.4302
10.62749127,96.39,965,31.0644
10.65375183,96.39,941,30.6757
10.6800124,96.39,923,30.3809
10.70627296,96.39,864,29.3939
10.73253353,96.39,912,30.1993
10.75879409,96.39,931,30.5123
10.78505466,96.39,934,30.5614
10.81131522,96.39,946,30.7571
10.83757579,96.39,951,30.8383
10.86383635,96.39,932,30.5287
10.89009692,96.39,957,30.9354
10.91635749,96.39,971,31.1609
10.94261805,96.39,932,30.5287
10.96887862,96.39,900,30
10.99513918,96.39,901,30.0167
11.02139975,96.39,939,30.6431
11.04766031,96.39,914,30.2324
11.07392088,96.39,998,31.5911
11.10018144,96.39,940,30.6594
11.12644201,96.39,891,29.8496
11.15270257,96.39,880,29.6648
11.17896314,96.39,877,29.6142
11.2052237,96.39,925,30.4138
11.23148427,96.39,930,30.4959
11.25774483,96.39,946,30.7571
11.2840054,96.39,918,30.2985
11.31026597,96.39,940,30.6594
11.33652653,96.39,858,29.2916
11.3627871,96.39,911,30.1828
11.38904766,96.39,877,29.6142
11.41530823,96.39,890,29.8329
11.44156879,96.39,965,31.0644
11.46782936,96.39,859,29.3087
11.49408992,96.39,902,30.0333
11.52035049,96.39,931,30.5123
11.54661105,96.39,829,28.7924
11.57287162,96.39,907,30.1164
11.59913218,96.39,915,30.249
11.62539275,96.39,918,30.2985
11.65165332,96.39,931,30.5123
11.67791388,96.39,906,30.0998
11.70417445,96.39,829,28.7924
11.73043501,96.39,886,29.7658
11.75669558,96.39,840,28.9828
11.78295614,96.39,840,28.9828
11.80921671,96.39,891,29.8496
11.83547727,96.39,845,29.0689
11.86173784,96.39,880,29.6648
11.8879984,96.39,854,29.2233
11.91425897,96.39,877,29.6142
11.94051953,96.39,888,29.7993
11.9667801,96.39,884,29.7321
11.99304066,96.39,848,29.1204
12.01930123,96.39,840,28.9828
12.0455618,96.39,868,29.4618
12.07182236,96.39,812,28.4956
12.09808293,96.39,836,28.9137
12.12434349,96.39,851,29.1719
12.15060406,96.39,812,28.4956
12.17686462,96.39,873,29.5466
12.20312519,96.39,895,29.9166
12.22938575,96.39,797,28.2312
12.25564632,96.39,889,29.8161
12.28190688,96.39,888,29.7993
12.30816745,96.39,824,28.7054
12.33442801,96.39,874,29.5635
12.36068858,96.39,858,29.2916
12.38694915,96.39,828,28.775
12.41320971,96.39,844,29.0517
12.43947028,96.39,825,28.7228
12.46573084,96.39,829,28.7924
12.49199141,96.39,799,28.2666
12.51825197,96.39,735,27.1109
12.54451254,96.39,817,28.5832
12.5707731,96.39,802,28.3196
12.59703367,96.39,774,27.8209
12.62329423,96.39,822,28.6705
12.6495548,96.39,777,27.8747
12.67581536,96.39,773,27.8029
12.70207593,96.39,799,28.2666
12.72833649,96.39,781,27.9464
12.75459706,96.39,774,27.8209
12.78085763,96.39,739,27.1846
12.80711819,96.39,769,27.7308
12.83337876,96.39,816,28.5657
12.85963932,96.39,773,27.8029
12.88589989,96.39,707,26.5895
12.91216045,96.39,742,27.2397
12.93842102,96.39,768,27.7128
12.96468158,96.39,740,27.2029
12.99094215,96.39,754,27.4591
13.01720271,96.39,729,27
13.04346328,96.39,782,27.9643
13.06972384,96.39,731,27.037
13.09598441,96.39,791,28.1247
13.12224498,96.39,762,27.6043
13.14850554,96.39,776,27.8568
13.17476611,96.39,766,27.6767
13.20102667,96.39,709,26.6271
13.22728724,96.39,764,27.6405
13.2535478,96.39,706,26.5707
13.27980837,96.39,734,27.0924
13.30606893,96.39,740,27.2029
13.3323295,96.39,729,27
13.35859006,96.39,717,26.7769
13.38485063,96.39,763,27.6225
13.41111119,96.39,747,27.3313
13.43737176,96.39,736,27.1293
13.46363232,96.39,756,27.4955
13.48989289,96.39,676,26
13.51615346,96.39,729,27
13.54241402,96.39,688,26.2298
13.56867459,96.39,690,26.2679
13.59493515,96.39,716,26.7582
13.62119572,96.39,714,26.7208
13.64745628,96.39,764,27.6405
13.67371685,96.39,703,26.5141
13.69997741,96.39,699,26.4386
13.72623798,96.39,681,26.096
13.75249854,96.39,681,26.096
13.77875911,96.39,712,26.6833
13.80501967,96.39,704,26.533
13.83128024,96.39,692,26.3059
13.85754081,96.39,706,26.5707
13.88380137,96.39,752,27.4226
13.91006194,96.39,725,26.9258
13.9363225,96.39,665,25.7876
13.96258307,96.39,673,25.9422
13.98884363,96.39,670,25.8844
14.0151042,96.39,654,25.5734
14.04136476,96.39,700,26.4575
14.06762533,96.39,699,26.4386
14.09388589,96.39,661,25.7099
14.12014646,96.39,662,25.7294
14.14640702,96.39,691,26.2869
14.17266759,96.39,683,26.1343
14.19892815,96.39,745,27.2947
14.22518872,96.39,698,26.4197
14.25144929,96.39,718,26.7955
14.27770985,96.39,645,25.3969
14.30397042,96.39,657,25.632
14.33023098,96.39,714,26.7208
14.35649155,96.39,658,25.6515
14.38275211,96.39,738,27.1662
14.40901268,96.39,690,26.2679
14.43527324,96.39,642,25.3377
14.46153381,96.39,615,24.7992
14.48779437,96.39,715,26.7395
14.51405494,96.39,671,25.9037
14.5403155,96.39,653,25.5539
14.56657607,96.39,686,26.1916
14.59283663,96.39,680,26.0768
14.6190972,96.39,616,24.8193
14.64535777,96.39,684,26.1534
14.67161833,96.39,662,25.7294
14.6978789,96.39,648,25.4558
14.72413946,96.39,715,26.7395
14.75040003,96.39,639,25.2784
14.77666059,96.39,643,25.3574
14.80292116,96.39,639,25.2784
14.82918172,96.39,687,26.2107
14.85544229,96.39,635,25.1992
14.88170285,96.39,652,25.5343
14.90796342,96.39,606,24.6171
14.93422398,96.39,633,25.1595
14.96048455,96.39,642,25.3377
14.98674512,96.39,617,24.8395
15.01300568,96.39,671,25.9037
15.03926625,96.39,637,25.2389
15.06552681,96.39,661,25.7099
15.09178738,96.39,597,24.4336
15.11804794,96.39,596,24.4131
15.14430851,96.39,596,24.4131
15.17056907,96.39,665,25.7876
15.19682964,96.39,604,24.5764
15.2230902,96.39,570,23.8747
15.24935077,96.39,641,25.318
15.27561133,96.39,663,25.7488
15.3018719,96.39,602,24.5357
15.32813246,96.39,589,24.2693
15.35439303,96.39,620,24.8998
15.3806536,96.39,637,25.2389
15.40691416,96.39,657,25.632
15.43317473,96.39,624,24.98
15.45943529,96.39,635,25.1992
15.48569586,96.39,654,25.5734
15.51195642,96.39,612,24.7386
15.53821699,96.39,613,24.7588
15.56447755,96.39,601,24.5153
15.59073812,96.39,680,26.0768
15.61699868,96.39,606,24.6171
15.64325925,96.39,637,25.2389
15.66951981,96.39,664,25.7682
15.69578038,96.39,584,24.1661
15.72204095,96.39,615,24.7992
15.74830151,96.39,654,25.5734
15.77456208,96.39,593,24.3516
15.80082264,96.39,649,25.4755
15.82708321,96.39,638,25.2587
15.85334377,96.39,617,24.8395
15.87960434,96.39,633,25.1595
15.9058649,96.39,629,25.0799
15.93212547,96.39,635,25.1992
15.95838603,96.39,630,25.0998
15.9846466,96.39,593,24.3516
16.01090716,96.39,578,24.0416
16.03716773,96.39,583,24.1454
16.06342829,96.39,583,24.1454
16.08968886,96.39,605,24.5967
16.11594943,96.39,588,24.2487
16.14220999,96.39,629,25.0799
16.16847056,96.39,609,24.6779
16.19473112,96.39,575,23.9792
16.22099169,96.39,610,24.6982
16.24725225,96.39,615,24.7992
16.27351282,96.39,584,24.1661
16.29977338,96.39,606,24.6171
16.32603395,96.39,642,25.3377
16.35229451,96.39,624,24.98
16.37855508,96.39,590,24.2899
16.40481564,96.39,612,24.7386
16.43107621,96.39,599,24.4745
16.45733678,96.39,606,24.6171
16.48359734,96.39,618,24.8596
16.50985791,96.39,569,23.8537
16.53611847,96.39,582,24.1247
16.56237904,96.39,592,24.3311
16.5886396,96.39,603,24.5561
16.61490017,96.39,619,24.8797
16.64116073,96.39,625,25
16.6674213,96.39,577,24.0208
16.69368186,96.39,629,25.0799
16.71994243,96.39,583,24.1454
16.74620299,96.39,606,24.6171
16.77246356,96.39,622,24.9399
16.79872412,96.39,611,24.7184
16.82498469,96.39,552,23.4947
16.85124526,96.39,577,24.0208
16.87750582,96.39,633,25.1595
16.90376639,96.39,562,23.7065
16.93002695,96.39,607,24.6374
16.95628752,96.39,593,24.3516
16.98254808,96.39,655,25.593
17.00880865,96.39,617,24.8395
17.03506921,96.39,621,24.9199
17.06132978,96.39,578,24.0416
17.08759034,96.39,661,25.7099
17.11385091,96.39,598,24.454
17.14011147,96.39,594,24.3721
17.16637204,96.39,589,24.2693
17.19263261,96.39,555,23.5584
17.21889317,96.39,634,25.1794
17.24515374,96.39,590,24.2899
17.2714143,96.39,564,23.7487
17.29767487,96.39,628,25.0599
17.32393543,96.39,571,23.8956
17.350196,96.39,570,23.8747
17.37645656,96.39,556,23.5797
17.40271713,96.39,601,24.5153
17.42897769,96.39,655,25.593
17.45523826,96.39,581,24.1039
17.48149882,96.39,624,24.98
17.50775939,96.39,586,24.2074
17.53401995,96.39,590,24.2899
17.56028052,96.39,629,25.0799
17.58654109,96.39,597,24.4336
17.61280165,96.39,602,24.5357
17.63906222,96.39,599,24.4745
17.66532278,96.39,610,24.6982
17.69158335,96.39,581,24.1039
17.71784391,96.39,611,24.7184
17.74410448,96.39,562,23.7065
17.77036504,96.39,644,25.3772
17.79662561,96.39,603,24.5561
17.82288617,96.39,625,25
17.84914674,96.39,612,24.7386
17.8754073,96.39,595,24.3926
17.90166787,96.39,594,24.3721
17.92792843,96.39,641,25.318
17.954189,96.39,613,24.7588
17.98044957,96.39,613,24.7588
18.00671013,96.39,623,24.96
18.0329707,96.39,604,24.5764
18.05923126,96.39,589,24.2693
18.08549183,96.39,554,23.5372
18.11175239,96.39,582,24.1247
18.13801296,96.39,663,25.7488
18.16427352,96.39,627,25.04
18.19053409,96.39,584,24.1661
18.21679465,96.39,642,25.3377
18.24305522,96.39,588,24.2487
18.26931578,96.39,599,24.4745
18.29557635,96.39,582,24.1247
18.32183692,96.39,632,25.1396
18.34809748,96.39,617,24.8395
18.37435805,96.39,614,24.779
18.40061861,96.39,672,25.923
18.42687918,96.39,669,25.865
18.45313974,96.39,661,25.7099
18.47940031,96.39,607,24.6374
18.50566087,96.39,610,24.6982
18.53192144,96.39,643,25.3574
18.558182,96.39,630,25.0998
18.58444257,96.39,651,25.5147
18.61070313,96.39,614,24.779
18.6369637,96.39,626,25.02
18.66322426,96.39,635,25.1992
18.68948483,96.39,598,24.454
18.7157454,96.39,589,24.2693
18.74200596,96.39,634,25.1794
18.76826653,96.39,611,24.7184
18.79452709,96.39,618,24.8596
18.82078766,96.39,645,25.3969
18.84704822,96.39,612,24.7386
18.87330879,96.39,608,24.6577
18.89956935,96.39,641,25.318
18.92582992,96.39,620,24.8998
18.95209048,96.39,611,24.7184
18.97835105,96.39,587,24.2281
19.00461161,96.39,634,25.1794
19.03087218,96.39,681,26.096
19.05713275,96.39,627,25.04
19.08339331,96.39,619,24.8797
19.10965388,96.39,639,25.2784
19.13591444,96.39,613,24.7588
19.16217501,96.39,615,24.7992
19.18843557,96.39,631,25.1197
19.21469614,96.39,625,25
19.2409567,96.39,651,25.5147
19.26721727,96.39,600,24.4949
19.29347783,96.39,658,25.6515
19.3197384,96.39,614,24.779
19.34599896,96.39,647,25.4362
19.37225953,96.39,661,25.7099
19.39852009,96.39,633,25.1595
19.42478066,96.39,660,25.6905
19.45104123,96.39,675,25.9808
19.47730179,96.39,619,24.8797
19.50356236,96.39,636,25.219
19.52982292,96.39,627,25.04
19.55608349,96.39,619,24.8797
19.58234405,96.39,611,24.7184
19.60860462,96.39,638,25.2587
19.63486518,96.39,670,25.8844
19.66112575,96.39,683,26.1343
19.68738631,96.39,639,25.2784
19.71364688,96.39,644,25.3772
19.73990744,96.39,668,25.8457
19.76616801,96.39,609,24.6779
19.79242858,96.39,679,26.0576
19.81868914,96.39,654,25.5734
19.84494971,96.39,674,25.9615
19.87121027,96.39,631,25.1197
19.89747084,96.39,643,25.3574
19.9237314,96.39,695,26.3629
19.94999197,96.39,660,25.6905
19.97625253,96.39,702,26.4953
20.0025131,96.39,664,25.7682
20.02877366,96.39,708,26.6083
20.05503423,96.39,651,25.5147
20.08129479,96.39,662,25.7294
20.10755536,96.39,698,26.4197
20.13381592,96.39,694,26.3439
20.16007649,96.39,682,26.1151
20.18633706,96.39,705,26.5518
20.21259762,96.39,777,27.8747
20.23885819,96.39,736,27.1293
20.26511875,96.39,688,26.2298
20.29137932,96.39,782,27.9643
20.31763988,96.39,791,28.1247
20.34390045,96.39,769,27.7308
20.37016101,96.39,797,28.2312
20.39642158,96.39,744,27.2764
20.42268214,96.39,818,28.6007
20.44894271,96.39,812,28.4956
20.47520327,96.39,878,29.6311
20.50146384,96.39,884,29.7321
20.52772441,96.39,900,30
20.55398497,96.39,934,30.5614
20.58024554,96.39,943,30.7083
20.6065061,96.39,988,31.4325
20.63276667,96.39,992,31.496
20.65902723,96.39,1039,32.2335
20.6852878,96.39,1068,32.6803
20.71154836,96.39,1027,32.0468
20.73780893,96.39,1001,31.6386
20.76406949,96.39,1044,32.311
20.79033006,96.39,1070,32.7109
20.81659062,96.39,996,31.5595
20.84285119,96.39,1021,31.9531
20.86911175,96.39,938,30.6268
20.89537232,96.39,855,29.2404
20.92163289,96.39,873,29.5466
20.94789345,96.39,818,28.6007
20.97415402,96.39,762,27.6043
21.00041458,96.39,734,27.0924
21.02667515,96.39,786,28.0357
21.05293571,96.39,730,27.0185
21.07919628,96.39,708,26.6083
21.10545684,96.39,730,27.0185
21.13171741,96.39,723,26.8887
21.15797797,96.39,736,27.1293
21.18423854,96.39,697,26.4008
21.2104991,96.39,748,27.3496
21.23675967,96.39,688,26.2298
21.26302024,96.39,677,26.0192
21.2892808,96.39,669,25.865
21.31554137,96.39,729,27
21.34180193,96.39,744,27.2764
21.3680625,96.39,716,26.7582
21.39432306,96.39,662,25.7294
21.42058363,96.39,697,26.4008
21.44684419,96.39,744,27.2764
21.47310476,96.39,723,26.8887
21.49936532,96.39,726,26.9444
21.52562589,96.39,759,27.55
21.55188645,96.39,691,26.2869
21.57814702,96.39,654,25.5734
21.60440758,96.39,685,26.1725
21.63066815,96.39,650,25.4951
21.65692872,96.39,690,26.2679
21.68318928,96.39,668,25.8457
21.70944985,96.39,707,26.5895
21.73571041,96.39,697,26.4008
21.76197098,96.39,686,26.1916
21.78823154,96.39,697,26.4008
21.81449211,96.39,724,26.9072
21.84075267,96.39,667,25.8263
21.86701324,96.39,721,26.8514
21.8932738,96.39,726,26.9444
21.91953437,96.39,745,27.2947
21.94579493,96.39,724,26.9072
21.9720555,96.39,681,26.096
21.99831606,96.39,678,26.0384
22.02457663,96.39,707,26.5895
22.0508372,96.39,683,26.1343
22.07709776,96.39,696,26.3818
22.10335833,96.39,714,26.7208
22.12961889,96.39,769,27.7308
22.15587946,96.39,724,26.9072
22.18214002,96.39,710,26.6458
22.20840059,96.39,725,26.9258
22.23466115,96.39,671,25.9037
22.26092172,96.39,723,26.8887
22.28718228,96.39,745,27.2947
22.31344285,96.39,748,27.3496
22.33970341,96.39,784,28
22.36596398,96.39,728,26.9815
22.39222455,96.39,772,27.7849
22.41848511,96.39,730,27.0185
22.44474568,96.39,765,27.6586
22.47100624,96.39,736,27.1293
22.49726681,96.39,772,27.7849
22.52352737,96.39,746,27.313
22.54978794,96.39,706,26.5707
22.5760485,96.39,713,26.7021
22.60230907,96.39,674,25.9615
22.62856963,96.39,702,26.4953
22.6548302,96.39,715,26.7395
22.68109076,96.39,704,26.533
22.70735133,96.39,729,27
22.73361189,96.39,694,26.3439
22.75987246,96.39,701,26.4764
22.78613303,96.39,755,27.4773
22.81239359,96.39,721,26.8514
22.83865416,96.39,677,26.0192
22.86491472,96.39,786,28.0357
22.89117529,96.39,700,26.4575
22.91743585,96.39,718,26.7955
22.94369642,96.39,726,26.9444
22.96995698,96.39,742,27.2397
22.99621755,96.39,726,26.9444
23.02247811,96.39,738,27.1662
23.04873868,96.39,780,27.9285
23.07499924,96.39,724,26.9072
23.10125981,96.39,745,27.2947
23.12752038,96.39,736,27.1293
23.15378094,96.39,716,26.7582
23.18004151,96.39,767,27.6948
23.20630207,96.39,692,26.3059
23.23256264,96.39,686,26.1916
23.2588232,96.39,717,26.7769
23.28508377,96.39,758,27.5318
23.31134433,96.39,714,26.7208
23.3376049,96.39,670,25.8844
23.36386546,96.39,695,26.3629
23.39012603,96.39,727,26.9629
23.41638659,96.39,642,25.3377
23.44264716,96.39,702,26.4953
23.46890772,96.39,687,26.2107
23.49516829,96.39,707,26.5895
23.52142886,96.39,702,26.4953
23.54768942,96.39,688,26.2298
23.57394999,96.39,692,26.3059
23.60021055,96.39,724,26.9072
23.62647112,96.39,742,27.2397
23.65273168,96.39,715,26.7395
23.67899225,96.39,703,26.5141
23.70525281,96.39,688,26.2298
23.73151338,96.39,776,27.8568
23.75777394,96.39,775,27.8388
23.78403451,96.39,728,26.9815
23.81029507,96.39,727,26.9629
23.83655564,96.39,696,26.3818
23.86281621,96.39,727,26.9629
23.88907677,96.39,698,26.4197
23.91533734,96.39,767,27.6948
23.9415979,96.39,752,27.4226
23.96785847,96.39,793,28.1603
23.99411903,96.39,706,26.5707
24.0203796,96.39,655,25.593
24.04664016,96.39,684,26.1534
24.07290073,96.39,769,27.7308
24.09916129,96.39,711,26.6646
24.12542186,96.39,644,25.3772
24.15168242,96.39,660,25.6905
24.17794299,96.39,684,26.1534
24.20420355,96.39,671,25.9037
24.23046412,96.39,681,26.096
24.25672469,96.39,646,25.4165
24.28298525,96.39,619,24.8797
24.30924582,96.39,665,25.7876
24.33550638,96.39,689,26.2488
24.36176695,96.39,631,25.1197
24.38802751,96.39,646,25.4165
24.41428808,96.39,655,25.593
24.44054864,96.39,643,25.3574
24.46680921,96.39,624,24.98
24.49306977,96.39,619,24.8797
24.51933034,96.39,602,24.5357
24.5455909,96.39,613,24.7588
24.57185147,96.39,634,25.1794
24.59811204,96.39,580,24.0832
24.6243726,96.39,615,24.7992
24.65063317,96.39,561,23.6854
24.67689373,96.39,593,24.3516
24.7031543,96.39,606,24.6171
24.72941486,96.39,576,24
24.75567543,96.39,556,23.5797
24.78193599,96.39,561,23.6854
24.80819656,96.39,584,24.1661
24.83445712,96.39,609,24.6779
24.86071769,96.39,580,24.0832
24.88697825,96.39,582,24.1247
24.91323882,96.39,562,23.7065
24.93949938,96.39,606,24.6171
24.96575995,96.39,600,24.4949
24.99202052,96.39,564,23.7487
25.01828108,96.39,574,23.9583
25.04454165,96.39,571,23.8956
25.07080221,96.39,578,24.0416
25.09706278,96.39,563,23.7276
25.12332334,96.39,565,23.7697
25.14958391,96.39,603,24.5561
25.17584447,96.39,621,24.9199
25.20210504,96.39,553,23.516
25.2283656,96.39,556,23.5797
25.25462617,96.39,609,24.6779
25.28088673,96.39,626,25.02
25.3071473,96.39,549,23.4307
25.33340786,96.39,625,25
25.35966843,96.39,625,25
25.385929,96.39,685,26.1725
25.41218956,96.39,721,26.8514
25.43845013,96.39,788,28.0713
25.46471069,96.39,927,30.4467
25.49097126,96.39,1198,34.6121
25.51723182,96.39,1506,38.8072
25.54349239,96.39,1621,40.2616
25.56975295,96.39,1748,41.8091
25.59601352,96.39,1442,37.9737
25.62227408,96.39,1094,33.0757
25.64853465,96.39,935,30.5778
25.67479521,96.39,670,25.8844
25.70105578,96.39,632,25.1396
25.72731635,96.39,584,24.1661
25.75357691,96.39,587,24.2281
25.77983748,96.39,570,23.8747
25.80609804,96.39,579,24.0624
25.83235861,96.39,565,23.7697
25.85861917,96.39,573,23.9374
25.88487974,96.39,578,24.0416
25.9111403,96.39,602,24.5357
25.93740087,96.39,579,24.0624
25.96366143,96.39,533,23.0868
25.989922,96.39,591,24.3105
26.01618256,96.39,602,24.5357
26.04244313,96.39,576,24
26.06870369,96.39,588,24.2487
26.09496426,96.39,573,23.9374
26.12122483,96.39,523,22.8692
26.14748539,96.39,557,23.6008
26.17374596,96.39,542,23.2809
26.20000652,96.39,464,21.5407
26.22626709,96.39,601,24.5153
26.25252765,96.39,486,22.0454
26.27878822,96.39,555,23.5584
26.30504878,96.39,568,23.8328
26.33130935,96.39,537,23.1733
26.35756991,96.39,533,23.0868
26.38383048,96.39,549,23.4307
26.41009104,96.39,524,22.891
26.43635161,96.39,545,23.3452
26.46261218,96.39,604,24.5764
26.48887274,96.39,570,23.8747
26.51513331,96.39,602,24.5357
26.54139387,96.39,665,25.7876
26.56765444,96.39,746,27.313
26.593915,96.39,840,28.9828
26.62017557,96.39,859,29.3087
26.64643613,96.39,817,28.5832
26.6726967,96.39,721,26.8514
26.69895726,96.39,682,26.1151
26.72521783,96.39,580,24.0832
26.75147839,96.39,535,23.1301
26.77773896,96.39,497,22.2935
26.80399952,96.39,516,22.7156
26.83026009,96.39,522,22.8473
26.85652066,96.39,524,22.891
26.88278122,96.39,519,22.7816
26.90904179,96.39,541,23.2594
26.93530235,96.39,519,22.7816
26.96156292,96.39,493,22.2036
26.98782348,96.39,522,22.8473
27.01408405,96.39,477,21.8403
27.04034461,96.39,459,21.4243
27.06660518,96.39,539,23.2164
27.09286574,96.39,503,22.4277
27.11912631,96.39,558,23.622
27.14538687,96.39,520,22.8035
27.17164744,96.39,503,22.4277
27.19790801,96.39,521,22.8254
27.22416857,96.39,454,21.3073
27.25042914,96.39,524,22.891
27.2766897,96.39,488,22.0907
27.30295027,96.39,500,22.3607
27.32921083,96.39,525,22.9129
27.3554714,96.39,506,22.4944
27.38173196,96.39,487,22.0681
27.40799253,96.39,521,22.8254
27.43425309,96.39,512,22.6274
27.46051366,96.39,521,22.8254
27.48677422,96.39,492,22.1811
27.51303479,96.39,505,22.4722
27.53929535,96.39,495,22.2486
27.56555592,96.39,529,23
27.59181649,96.39,555,23.5584
27.61807705,96.39,486,22.0454
27.64433762,96.39,504,22.4499
27.67059818,96.39,485,22.0227
27.69685875,96.39,546,23.3666
27.72311931,96.39,466,21.587
27.74937988,96.39,520,22.8035
27.77564044,96.39,516,22.7156
27.80190101,96.39,501,22.383
27.82816157,96.39,461,21.4709
27.85442214,96.39,517,22.7376
27.8806827,96.39,491,22.1585
27.90694327,96.39,473,21.7486
27.93320384,96.39,495,22.2486
27.9594644,96.39,513,22.6495
27.98572497,96.39,473,21.7486
28.01198553,96.39,474,21.7715
28.0382461,96.39,512,22.6274
28.06450666,96.39,462,21.4942
28.09076723,96.39,495,22.2486
28.11702779,96.39,475,21.7945
28.14328836,96.39,508,22.5389
28.16954892,96.39,553,23.516
28.19580949,96.39,455,21.3307
28.22207005,96.39,522,22.8473
28.24833062,96.39,480,21.9089
28.27459118,96.39,486,22.0454
28.30085175,96.39,509,22.561
28.32711232,96.39,485,22.0227
28.35337288,96.39,508,22.5389
28.37963345,96.39,472,21.7256
28.40589401,96.39,477,21.8403
28.43215458,96.39,520,22.8035
28.45841514,96.39,490,22.1359
28.48467571,96.39,470,21.6795
28.51093627,96.39,522,22.8473
28.53719684,96.39,478,21.8632
28.5634574,96.39,492,22.1811
28.58971797,96.39,474,21.7715
28.61597853,96.39,484,22
28.6422391,96.39,487,22.0681
28.66849967,96.39,451,21.2368
28.69476023,96.39,505,22.4722
28.7210208,96.39,538,23.1948
28.74728136,96.39,528,22.9783
28.77354193,96.39,477,21.8403
28.79980249,96.39,463,21.5174
28.82606306,96.39,496,22.2711
28.85232362,96.39,520,22.8035
28.87858419,96.39,525,22.9129
28.90484475,96.39,484,22
28.93110532,96.39,494,22.2261
28.95736588,96.39,495,22.2486
28.98362645,96.39,477,21.8403
29.00988701,96.39,486,22.0454
29.03614758,96.39,520,22.8035
29.06240815,96.39,504,22.4499
29.08866871,96.39,450,21.2132
29.11492928,96.39,492,22.1811
29.14118984,96.39,480,21.9089
29.16745041,96.39,486,22.0454
29.19371097,96.39,478,21.8632
29.21997154,96.39,512,22.6274
29.2462321,96.39,507,22.5167
29.27249267,96.39,511,22.6053
29.29875323,96.39,515,22.6936
29.3250138,96.39,532,23.0651
29.35127436,96.39,449,21.1896
29.37753493,96.39,448,21.166
29.40379549,96.39,456,21.3542
29.43005606,96.39,488,22.0907
29.45631663,96.39,519,22.7816
29.48257719,96.39,473,21.7486
29.50883776,96.39,516,22.7156
29.53509832,96.39,524,22.891
29.56135889,96.39,486,22.0454
29.58761945,96.39,469,21.6564
29.61388002,96.39,544,23.3238
29.64014058,96.39,456,21.3542
29.66640115,96.39,522,22.8473
29.69266171,96.39,480,21.9089
29.71892228,96.39,532,23.0651
29.74518284,96.39,506,22.4944
29.77144341,96.39,500,22.3607
29.79770398,96.39,526,22.9347
29.82396454,96.39,508,22.5389
29.85022511,96.39,508,22.5389
29.87648567,96.39,488,22.0907
29.90274624,96.39,444,21.0713
29.9290068,96.39,591,24.3105
29.95526737,96.39,495,22.2486
29.98152793,96.39,573,23.9374
30.0077885,96.39,542,23.2809
30.03404906,96.39,539,23.2164
30.06030963,96.39,565,23.7697
30.08657019,96.39,548,23.4094
30.11283076,96.39,517,22.7376
30.13909132,96.39,493,22.2036
30.16535189,96.39,495,22.2486
30.19161246,96.39,481,21.9317
30.21787302,96.39,523,22.8692
30.24413359,96.39,508,22.5389
30.27039415,96.39,510,22.5832
30.29665472,96.39,460,21.4476
30.32291528,96.39,461,21.4709
30.34917585,96.39,508,22.5389
30.37543641,96.39,493,22.2036
30.40169698,96.39,468,21.6333
30.42795754,96.39,530,23.0217
30.45421811,96.39,503,22.4277
30.48047867,96.39,507,22.5167
30.50673924,96.39,487,22.0681
30.53299981,96.39,443,21.0476
30.55926037,96.39,492,22.1811
30.58552094,96.39,447,21.1424
30.6117815,96.39,525,22.9129
30.63804207,96.39,503,22.4277
30.66430263,96.39,508,22.5389
30.6905632,96.39,445,21.095
30.71682376,96.39,436,20.8806
30.74308433,96.39,495,22.2486
30.76934489,96.39,500,22.3607
30.79560546,96.39,474,21.7715
30.82186602,96.39,460,21.4476
30.84812659,96.39,464,21.5407
30.87438715,96.39,492,22.1811
30.90064772,96.39,526,22.9347
30.92690829,96.39,468,21.6333
30.95316885,96.39,508,22.5389
30.97942942,96.39,510,22.5832
31.00568998,96.39,504,22.4499
31.03195055,96.39,550,23.4521
31.05821111,96.39,487,22.0681
31.08447168,96.39,531,23.0434
31.11073224,96.39,484,22
31.13699281,96.39,503,22.4277
31.16325337,96.39,478,21.8632
31.18951394,96.39,462,21.4942
31.2157745,96.39,462,21.4942
31.24203507,96.39,497,22.2935
31.26829564,96.39,444,21.0713
31.2945562,96.39,489,22.1133
31.32081677,96.39,479,21.8861
31.34707733,96.39,460,21.4476
31.3733379,96.39,476,21.8174
31.39959846,96.39,473,21.7486
31.42585903,96.39,503,22.4277
31.45211959,96.39,505,22.4722
31.47838016,96.39,486,22.0454
31.50464072,96.39,466,21.587
31.53090129,96.39,458,21.4009
31.55716185,96.39,470,21.6795
31.58342242,96.39,461,21.4709
31.60968298,96.39,515,22.6936
31.63594355,96.39,503,22.4277
31.66220412,96.39,456,21.3542
31.68846468,96.39,464,21.5407
31.71472525,96.39,535,23.1301
31.74098581,96.39,541,23.2594
31.76724638,96.39,501,22.383
31.79350694,96.39,486,22.0454
31.81976751,96.39,537,23.1733
31.84602807,96.39,575,23.9792
31.87228864,96.39,578,24.0416
31.8985492,96.39,551,23.4734
31.92480977,96.39,524,22.891
31.95107033,96.39,568,23.8328
31.9773309,96.39,539,23.2164
32.00359147,96.39,495,22.2486
32.02985203,96.39,490,22.1359
32.0561126,96.39,517,22.7376
32.08237316,96.39,528,22.9783
32.10863373,96.39,498,22.3159
32.13489429,96.39,454,21.3073
32.16115486,96.39,457,21.3776
32.18741542,96.39,520,22.8035
32.21367599,96.39,449,21.1896
32.23993655,96.39,481,21.9317
32.26619712,96.39,504,22.4499
32.29245768,96.39,449,21.1896
32.31871825,96.39,445,21.095
32.34497881,96.39,442,21.0238
32.37123938,96.39,444,21.0713
32.39749995,96.39,491,22.1585
32.42376051,96.39,497,22.2935
32.45002108,96.39,528,22.9783
32.47628164,96.39,451,21.2368
32.50254221,96.39,492,22.1811
32.52880277,96.39,457,21.3776
32.55506334,96.39,469,21.6564
32.5813239,96.39,463,21.5174
32.60758447,96.39,514,22.6716
32.63384503,96.39,481,21.9317
32.6601056,96.39,525,22.9129
32.68636616,96.39,524,22.891
32.71262673,96.39,496,22.2711
32.7388873,96.39,529,23
32.76514786,96.39,500,22.3607
32.79140843,96.39,504,22.4499
32.81766899,96.39,485,22.0227
32.84392956,96.39,493,22.2036
32.87019012,96.39,506,22.4944
32.89645069,96.39,482,21.9545
32.92271125,96.39,560,23.6643
32.94897182,96.39,519,22.7816
32.97523238,96.39,530,23.0217
33.00149295,96.39,555,23.5584
33.02775351,96.39,549,23.4307
33.05401408,96.39,520,22.8035
33.08027464,96.39,557,23.6008
33.10653521,96.39,482,21.9545
33.13279578,96.39,471,21.7025
33.15905634,96.39,481,21.9317
33.18531691,96.39,473,21.7486
33.21157747,96.39,506,22.4944
33.23783804,96.39,483,21.9773
33.2640986,96.39,480,21.9089
33.29035917,96.39,482,21.9545
33.31661973,96.39,495,22.2486
33.3428803,96.39,479,21.8861
33.36914086,96.39,517,22.7376
33.39540143,96.39,558,23.622
33.42166199,96.39,555,23.5584
33.44792256,96.39,513,22.6495
33.47418312,96.39,537,23.1733
33.50044369,96.39,558,23.622
33.52670426,96.39,550,23.4521
33.55296482,96.39,563,23.7276
33.57922539,96.39,568,23.8328
33.60548595,96.39,579,24.0624
33.63174652,96.39,570,23.8747
33.65800708,96.39,582,24.1247
33.68426765,96.39,617,24.8395
33.71052821,96.39,610,24.6982
33.73678878,96.39,634,25.1794
33.76304934,96.39,635,25.1992
33.78930991,96.39,696,26.3818
33.81557047,96.39,784,28
33.84183104,96.39,752,27.4226
33.86809161,96.39,823,28.688
33.89435217,96.39,871,29.5127
33.92061274,96.39,882,29.6985
33.9468733,96.39,905,30.0832
33.97313387,96.39,940,30.6594
33.99939443,96.39,886,29.7658
34.025655,96.39,991,31.4802
34.05191556,96.39,1031,32.1092
34.07817613,96.39,1051,32.4191
34.10443669,96.39,1023,31.9844
34.13069726,96.39,1082,32.8938
34.15695782,96.39,1104,33.2265
34.18321839,96.39,961,31
34.20947895,96.39,969,31.1288
34.23573952,96.39,926,30.4302
34.26200009,96.39,888,29.7993
34.28826065,96.39,858,29.2916
34.31452122,96.39,897,29.95
34.34078178,96.39,813,28.5132
34.36704235,96.39,794,28.178
34.39330291,96.39,780,27.9285
34.41956348,96.39,718,26.7955
34.44582404,96.39,681,26.096
34.47208461,96.39,676,26
34.49834517,96.39,705,26.5518
34.52460574,96.39,636,25.219
34.5508663,96.39,647,25.4362
34.57712687,96.39,653,25.5539
34.60338744,96.39,643,25.3574
34.629648,96.39,645,25.3969
34.65590857,96.39,653,25.5539
34.68216913,96.39,599,24.4745
34.7084297,96.39,632,25.1396
34.73469026,96.39,628,25.0599
34.76095083,96.39,609,24.6779
34.78721139,96.39,638,25.2587
34.81347196,96.39,596,24.4131
34.83973252,96.39,620,24.8998
34.86599309,96.39,634,25.1794
34.89225365,96.39,689,26.2488
34.91851422,96.39,741,27.2213
34.94477478,96.39,783,27.9821
34.97103535,96.39,782,27.9643
34.99729592,96.39,936,30.5941
35.02355648,96.39,1081,32.8786
35.04981705,96.39,1263,35.5387
35.07607761,96.39,1576,39.6989
35.10233818,96.39,2032,45.0777
35.12859874,96.39,2174,46.6262
35.15485931,96.39,1934,43.9773
35.18111987,96.39,1513,38.8973
35.20738044,96.39,1445,38.0132
35.233641,96.39,1274,35.6931
35.25990157,96.39,935,30.5778
35.28616213,96.39,750,27.3861
35.3124227,96.39,666,25.807
35.33868327,96.39,695,26.3629
35.36494383,96.39,636,25.219
35.3912044,96.39,569,23.8537
35.41746496,96.39,625,25
35.44372553,96.39,615,24.7992
35.46998609,96.39,569,23.8537
35.49624666,96.39,555,23.5584
35.52250722,96.39,558,23.622
35.54876779,96.39,548,23.4094
35.57502835,96.39,557,23.6008
35.60128892,96.39,542,23.2809
35.62754948,96.39,494,22.2261
35.65381005,96.39,475,21.7945
35.68007061,96.39,503,22.4277
35.70633118,96.39,495,22.2486
35.73259175,96.39,477,21.8403
35.75885231,96.39,519,22.7816
35.78511288,96.39,514,22.6716
35.81137344,96.39,483,21.9773
35.83763401,96.39,462,21.4942
35.86389457,96.39,473,21.7486
35.89015514,96.39,555,23.5584
35.9164157,96.39,497,22.2935
35.94267627,96.39,490,22.1359
35.96893683,96.39,476,21.8174
35.9951974,96.39,478,21.8632
36.02145796,96.39,512,22.6274
36.04771853,96.39,466,21.587
36.0739791,96.39,448,21.166
36.10023966,96.39,455,21.3307
36.12650023,96.39,512,22.6274
36.15276079,96.39,480,21.9089
36.17902136,96.39,462,21.4942
36.20528192,96.39,462,21.4942
36.23154249,96.39,416,20.3961
36.25780305,96.39,480,21.9089
36.28406362,96.39,432,20.7846
36.31032418,96.39,478,21.8632
36.33658475,96.39,442,21.0238
36.36284531,96.39,464,21.5407
36.38910588,96.39,478,21.8632
36.41536644,96.39,452,21.2603
36.44162701,96.39,479,21.8861
36.46788758,96.39,445,21.095
36.49414814,96.39,463,21.5174
36.52040871,96.39,479,21.8861
36.54666927,96.39,482,21.9545
36.57292984,96.39,464,21.5407
36.5991904,96.39,503,22.4277
36.62545097,96.39,435,20.8567
36.65171153,96.39,418,20.445
36.6779721,96.39,414,20.347
36.70423266,96.39,452,21.2603
36.73049323,96.39,460,21.4476
36.75675379,96.39,453,21.2838
36.78301436,96.39,459,21.4243
36.80927492,96.39,453,21.2838
36.83553549,96.39,481,21.9317
36.86179606,96.39,439,20.9523
36.88805662,96.39,458,21.4009
36.91431719,96.39,451,21.2368
36.94057775,96.39,461,21.4709
36.96683832,96.39,433,20.8087
36.99309888,96.39,451,21.2368
37.01935945,96.39,430,20.7364
37.04562001,96.39,384,19.5959
37.07188058,96.39,422,20.5426
37.09814114,96.39,422,20.5426
37.12440171,96.39,447,21.1424
37.15066227,96.39,455,21.3307
37.17692284,96.39,418,20.445
37.20318341,96.39,411,20.2731
37.22944397,96.39,410,20.2485
37.25570454,96.39,442,21.0238
37.2819651,96.39,433,20.8087
37.30822567,96.39,451,21.2368
37.33448623,96.39,404,20.0998
37.3607468,96.39,443,21.0476
37.38700736,96.39,467,21.6102
37.41326793,96.39,423,20.567
37.43952849,96.39,441,21
37.46578906,96.39,499,22.3383
37.49204962,96.39,435,20.8567
37.51831019,96.39,493,22.2036
37.54457075,96.39,473,21.7486
37.57083132,96.39,498,22.3159
37.59709189,96.39,544,23.3238
37.62335245,96.39,546,23.3666
37.64961302,96.39,622,24.9399
37.67587358,96.39,752,27.4226
37.70213415,96.39,875,29.5804
37.72839471,96.39,1012,31.8119
37.75465528,96.39,1135,33.6898
37.78091584,96.39,972,31.1769
37.80717641,96.39,794,28.178
37.83343697,96.39,808,28.4253
37.85969754,96.39,780,27.9285
37.8859581,96.39,610,24.6982
37.91221867,96.39,545,23.3452
37.93847924,96.39,486,22.0454
37.9647398,96.39,489,22.1133
37.99100037,96.39,483,21.9773
38.01726093,96.39,433,20.8087
38.0435215,96.39,430,20.7364
38.06978206,96.39,463,21.5174
38.09604263,96.39,406,20.1494
38.12230319,96.39,453,21.2838
38.14856376,96.39,458,21.4009
38.17482432,96.39,415,20.3715
38.20108489,96.39,437,20.9045
38.22734545,96.39,418,20.445
38.25360602,96.39,434,20.8327
38.27986658,96.39,449,21.1896
38.30612715,96.39,394,19.8494
38.33238772,96.39,380,19.4936
38.35864828,96.39,410,20.2485
38.38490885,96.39,429,20.7123
38.41116941,96.39,401,20.025
38.43742998,96.39,359,18.9473
38.46369054,96.39,397,19.9249
38.48995111,96.39,418,20.445
38.51621167,96.39,391,19.7737
38.54247224,96.39,407,20.1742
38.5687328,96.39,404,20.0998
38.59499337,96.39,402,20.0499
38.62125393,96.39,440,20.9762
38.6475145,96.39,374,19.3391
38.67377507,96.39,403,20.0749
38.70003563,96.39,377,19.4165
38.7262962,96.39,381,19.5192
38.75255676,96.39,415,20.3715
38.77881733,96.39,383,19.5704
38.80507789,96.39,401,20.025
38.83133846,96.39,424,20.5913
38.85759902,96.39,445,21.095
38.88385959,96.39,373,19.3132
38.91012015,96.39,407,20.1742
38.93638072,96.39,435,20.8567
38.96264128,96.39,411,20.2731
38.98890185,96.39,392,19.799
39.01516241,96.39,381,19.5192
39.04142298,96.39,374,19.3391
39.06768355,96.39,398,19.9499
39.09394411,96.39,402,20.0499
39.12020468,96.39,391,19.7737
39.14646524,96.39,385,19.6214
39.17272581,96.39,381,19.5192
39.19898637,96.39,388,19.6977
39.22524694,96.39,397,19.9249
39.2515075,96.39,367,19.1572
39.27776807,96.39,377,19.4165
39.30402863,96.39,423,20.567
39.3302892,96.39,395,19.8746
39.35654976,96.39,402,20.0499
39.38281033,96.39,425,20.6155
39.4090709,96.39,391,19.7737
39.43533146,96.39,427,20.664
39.46159203,96.39,375,19.3649
39.48785259,96.39,411,20.2731
39.51411316,96.39,429,20.7123
39.54037372,96.39,394,19.8494
39.56663429,96.39,418,20.445
39.59289485,96.39,401,20.025
39.61915542,96.39,407,20.1742
39.64541598,96.39,402,20.0499
39.67167655,96.39,389,19.7231
39.69793711,96.39,391,19.7737
39.72419768,96.39,379,19.4679
39.75045824,96.39,388,19.6977
39.77671881,96.39,372,19.2873
39.80297938,96.39,384,19.5959
39.82923994,96.39,374,19.3391
39.85550051,96.39,373,19.3132
39.88176107,96.39,373,19.3132
39.90802164,96.39,373,19.3132
39.9342822,96.39,373,19.3132
39.96054277,96.39,375,19.3649
39.98680333,96.39,390,19.7484
40.0130639,96.39,362,19.0263
40.03932446,96.39,378,19.4422
40.06558503,96.39,367,19.1572
40.09184559,96.39,388,19.6977
40.11810616,96.39,374,19.3391
40.14436673,96.39,360,18.9737
40.17062729,96.39,373,19.3132
40.19688786,96.39,334,18.2757
40.22314842,96.39,361,19
40.24940899,96.39,356,18.868
40.27566955,96.39,368,19.1833
40.30193012,96.39,320,17.8885
40.32819068,96.39,366,19.1311
40.35445125,96.39,356,18.868
40.38071181,96.39,347,18.6279
40.40697238,96.39,328,18.1108
40.43323294,96.39,349,18.6815
40.45949351,96.39,342,18.4932
40.48575407,96.39,360,18.9737
40.51201464,96.39,341,18.4662
40.53827521,96.39,362,19.0263
40.56453577,96.39,386,19.6469
40.59079634,96.39,386,19.6469
40.6170569,96.39,334,18.2757
40.64331747,96.39,329,18.1384
40.66957803,96.39,383,19.5704
40.6958386,96.39,308,17.5499
40.72209916,96.39,339,18.412
40.74835973,96.39,361,19
40.77462029,96.39,371,19.2614
40.80088086,96.39,309,17.5784
40.82714142,96.39,385,19.6214
40.85340199,96.39,389,19.7231
40.87966255,96.39,381,19.5192
40.90592312,96.39,343,18.5203
40.93218369,96.39,339,18.412
40.95844425,96.39,360,18.9737
40.98470482,96.39,358,18.9209
41.01096538,96.39,317,17.8045
41.03722595,96.39,352,18.7617
41.06348651,96.39,391,19.7737
41.08974708,96.39,395,19.8746
41.11600764,96.39,423,20.567
41.14226821,96.39,359,18.9473
41.16852877,96.39,377,19.4165
41.19478934,96.39,388,19.6977
41.2210499,96.39,359,18.9473
41.24731047,96.39,374,19.3391
41.27357104,96.39,390,19.7484
41.2998316,96.39,360,18.9737
41.32609217,96.39,360,18.9737
41.35235273,96.39,374,19.3391
41.3786133,96.39,370,19.2354
41.40487386,96.39,358,18.9209
41.43113443,96.39,361,19
41.45739499,96.39,373,19.3132
41.48365556,96.39,378,19.4422
41.50991612,96.39,365,19.105
41.53617669,96.39,325,18.0278
41.56243725,96.39,367,19.1572
41.58869782,96.39,373,19.3132
41.61495838,96.39,390,19.7484
41.64121895,96.39,317,17.8045
41.66747952,96.39,354,18.8149
41.69374008,96.39,333,18.2483
41.72000065,96.39,362,19.0263
41.74626121,96.39,338,18.3848
41.77252178,96.39,326,18.0555
41.79878234,96.39,336,18.3303
41.82504291,96.39,365,19.105
41.85130347,96.39,321,17.9165
41.87756404,96.39,328,18.1108
41.9038246,96.39,327,18.0831
41.93008517,96.39,340,18.4391
41.95634573,96.39,341,18.4662
41.9826063,96.39,324,18
42.00886687,96.39,314,17.72
42.03512743,96.39,341,18.4662
42.061388,96.39,348,18.6548
42.08764856,96.39,368,19.1833
42.11390913,96.39,367,19.1572
42.14016969,96.39,345,18.5742
42.16643026,96.39,325,18.0278
42.19269082,96.39,322,17.9444
42.21895139,96.39,314,17.72
42.24521195,96.39,317,17.8045
42.27147252,96.39,345,18.5742
42.29773308,96.39,305,17.4642
42.32399365,96.39,344,18.5472
42.35025421,96.39,335,18.303
42.37651478,96.39,316,17.7764
42.40277535,96.39,312,17.6635
42.42903591,96.39,332,18.2209
42.45529648,96.39,335,18.303
42.48155704,96.39,307,17.5214
42.50781761,96.39,302,17.3781
42.53407817,96.39,321,17.9165
42.56033874,96.39,274,16.5529
42.5865993,96.39,364,19.0788
42.61285987,96.39,332,18.2209
42.63912043,96.39,298,17.2627
42.665381,96.39,328,18.1108
42.69164156,96.39,300,17.3205
42.71790213,96.39,331,18.1934
42.7441627,96.39,318,17.8326
42.77042326,96.39,313,17.6918
42.79668383,96.39,314,17.72
42.82294439,96.39,330,18.1659
42.84920496,96.39,295,17.1756
42.87546552,96.39,347,18.6279
42.90172609,96.39,329,18.1384
42.92798665,96.39,327,18.0831
42.95424722,96.39,325,18.0278
42.98050778,96.39,294,17.1464
43.00676835,96.39,365,19.105
43.03302891,96.39,355,18.8414
43.05928948,96.39,385,19.6214
43.08555004,96.39,424,20.5913
43.11181061,96.39,473,21.7486
43.13807118,96.39,509,22.561
43.16433174,96.39,546,23.3666
43.19059231,96.39,678,26.0384
43.21685287,96.39,804,28.3549
43.24311344,96.39,1106,33.2566
43.269374,96.39,1317,36.2905
43.29563457,96.39,1748,41.8091
43.32189513,96.39,1889,43.4626
43.3481557,96.39,1774,42.1189
43.37441626,96.39,1319,36.318
43.40067683,96.39,1039,32.2335
43.42693739,96.39,1128,33.5857
43.45319796,96.39,1035,32.1714
43.47945853,96.39,833,28.8617
43.50571909,96.39,559,23.6432
43.53197966,96.39,392,19.799
43.55824022,96.39,355,18.8414
43.58450079,96.39,348,18.6548
43.61076135,96.39,331,18.1934
43.63702192,96.39,336,18.3303
43.66328248,96.39,340,18.4391
43.68954305,96.39,314,17.72
43.71580361,96.39,315,17.7482
43.74206418,96.39,336,18.3303
43.76832474,96.39,343,18.5203
43.79458531,96.39,327,18.0831
43.82084587,96.39,306,17.4929
43.84710644,96.39,327,18.0831
43.87336701,96.39,310,17.6068
43.89962757,96.39,318,17.8326
43.92588814,96.39,289,17
43.9521487,96.39,351,18.735
43.97840927,96.39,314,17.72
44.00466983,96.39,328,18.1108
44.0309304,96.39,353,18.7883
44.05719096,96.39,321,17.9165
44.08345153,96.39,325,18.0278
44.10971209,96.39,338,18.3848
44.13597266,96.39,301,17.3494
44.16223322,96.39,322,17.9444
44.18849379,96.39,337,18.3576
44.21475435,96.39,301,17.3494
44.24101492,96.39,320,17.8885
44.26727549,96.39,349,18.6815
44.29353605,96.39,316,17.7764
44.31979662,96.39,323,17.9722
44.34605718,96.39,310,17.6068
44.37231775,96.39,336,18.3303
44.39857831,96.39,317,17.8045
44.42483888,96.39,302,17.3781
44.45109944,96.39,309,17.5784
44.47736001,96.39,315,17.7482
44.50362057,96.39,297,17.2337
44.52988114,96.39,289,17
44.5561417,96.39,297,17.2337
44.58240227,96.39,334,18.2757
44.60866284,96.39,307,17.5214
44.6349234,96.39,330,18.1659
44.66118397,96.39,295,17.1756
44.68744453,96.39,282,16.7929
44.7137051,96.39,293,17.1172
44.73996566,96.39,294,17.1464
44.76622623,96.39,296,17.2047
44.79248679,96.39,300,17.3205
44.81874736,96.39,361,19
44.84500792,96.39,340,18.4391
44.87126849,96.39,310,17.6068
44.89752905,96.39,361,19
44.92378962,96.39,306,17.4929
44.95005018,96.39,318,17.8326
44.97631075,96.39,300,17.3205
45.00257132,96.39,276,16.6132
45.02883188,96.39,296,17.2047
45.05509245,96.39,307,17.5214
45.08135301,96.39,331,18.1934
45.10761358,96.39,296,17.2047
45.13387414,96.39,323,17.9722
45.16013471,96.39,298,17.2627
45.18639527,96.39,334,18.2757
45.21265584,96.39,298,17.2627
45.2389164,96.39,338,18.3848
45.26517697,96.39,350,18.7083
45.29143753,96.39,317,17.8045
45.3176981,96.39,317,17.8045
45.34395867,96.39,334,18.2757
45.37021923,96.39,350,18.7083
45.3964798,96.39,305,17.4642
45.42274036,96.39,328,18.1108
45.44900093,96.39,324,18
45.47526149,96.39,335,18.303
45.50152206,96.39,308,17.5499
45.52778262,96.39,303,17.4069
45.55404319,96.39,341,18.4662
45.58030375,96.39,326,18.0555
45.60656432,96.39,333,18.2483
45.63282488,96.39,305,17.4642
45.65908545,96.39,329,18.1384
45.68534601,96.39,362,19.0263
45.71160658,96.39,338,18.3848
45.73786715,96.39,323,17.9722
45.76412771,96.39,306,17.4929
45.79038828,96.39,321,17.9165
45.81664884,96.39,345,18.5742
45.84290941,96.39,342,18.4932
45.86916997,96.39,341,18.4662
45.89543054,96.39,306,17.4929
45.9216911,96.39,302,17.3781
45.94795167,96.39,286,16.9115
45.97421223,96.39,338,18.3848
46.0004728,96.39,294,17.1464
46.02673336,96.39,339,18.412
46.05299393,96.39,295,17.1756
46.0792545,96.39,345,18.5742
46.10551506,96.39,326,18.0555
46.13177563,96.39,347,18.6279
46.15803619,96.39,336,18.3303
46.18429676,96.39,315,17.7482
46.21055732,96.39,338,18.3848
46.23681789,96.39,307,17.5214
46.26307845,96.39,362,19.0263
46.28933902,96.39,346,18.6011
46.31559958,96.39,348,18.6548
46.34186015,96.39,311,17.6352
46.36812071,96.39,335,18.303
46.39438128,96.39,316,17.7764
46.42064184,96.39,310,17.6068
46.44690241,96.39,335,18.303
46.47316298,96.39,309,17.5784
46.49942354,96.39,324,18
46.52568411,96.39,331,18.1934
46.55194467,96.39,322,17.9444
46.57820524,96.39,344,18.5472
46.6044658,96.39,327,18.0831
46.63072637,96.39,336,18.3303
46.65698693,96.39,317,17.8045
46.6832475,96.39,340,18.4391
46.70950806,96.39,312,17.6635
46.73576863,96.39,303,17.4069
46.76202919,96.39,320,17.8885
46.78828976,96.39,332,18.2209
46.81455033,96.39,334,18.2757
46.84081089,96.39,337,18.3576
46.86707146,96.39,305,17.4642
46.89333202,96.39,293,17.1172
46.91959259,96.39,309,17.5784
46.94585315,96.39,340,18.4391
46.97211372,96.39,316,17.7764
46.99837428,96.39,312,17.6635
47.02463485,96.39,294,17.1464
47.05089541,96.39,315,17.7482
47.07715598,96.39,345,18.5742
47.10341654,96.39,326,18.0555
47.12967711,96.39,313,17.6918
47.15593767,96.39,318,17.8326
47.18219824,96.39,298,17.2627
47.20845881,96.39,343,18.5203
47.23471937,96.39,313,17.6918
47.26097994,96.39,343,18.5203
47.2872405,96.39,360,18.9737
47.31350107,96.39,315,17.7482
47.33976163,96.39,335,18.303
47.3660222,96.39,316,17.7764
47.39228276,96.39,371,19.2614
47.41854333,96.39,322,17.9444
47.44480389,96.39,315,17.7482
47.47106446,96.39,320,17.8885
47.49732502,96.39,331,18.1934
47.52358559,96.39,290,17.0294
47.54984616,96.39,286,16.9115
47.57610672,96.39,293,17.1172
47.60236729,96.39,336,18.3303
47.62862785,96.39,317,17.8045
47.65488842,96.39,330,18.1659
47.68114898,96.39,269,16.4012
47.70740955,96.39,318,17.8326
47.73367011,96.39,296,17.2047
47.75993068,96.39,311,17.6352
47.78619124,96.39,331,18.1934
47.81245181,96.39,312,17.6635
47.83871237,96.39,311,17.6352
47.86497294,96.39,327,18.0831
47.8912335,96.39,297,17.2337
47.91749407,96.39,292,17.088
47.94375464,96.39,297,17.2337
47.9700152,96.39,338,18.3848
47.99627577,96.39,317,17.8045
48.02253633,96.39,309,17.5784
48.0487969,96.39,304,17.4356
48.07505746,96.39,322,17.9444
48.10131803,96.39,321,17.9165
48.12757859,96.39,311,17.6352
48.15383916,96.39,345,18.5742
48.18009972,96.39,334,18.2757
48.20636029,96.39,319,17.8606
48.23262085,96.39,369,19.2094
48.25888142,96.39,332,18.2209
48.28514198,96.39,314,17.72
48.31140255,96.39,310,17.6068
48.33766312,96.39,326,18.0555
48.36392368,96.39,331,18.1934
48.39018425,96.39,304,17.4356
48.41644481,96.39,310,17.6068
48.44270538,96.39,318,17.8326
48.46896594,96.39,342,18.4932
48.49522651,96.39,311,17.6352
48.52148707,96.39,295,17.1756
48.54774764,96.39,324,18
48.5740082,96.39,327,18.0831
48.60026877,96.39,355,18.8414
48.62652933,96.39,304,17.4356
48.6527899,96.39,345,18.5742
48.67905047,96.39,307,17.5214
48.70531103,96.39,308,17.5499
48.7315716,96.39,347,18.6279
48.75783216,96.39,337,18.3576
48.78409273,96.39,319,17.8606
48.81035329,96.39,322,17.9444
48.83661386,96.39,295,17.1756
48.86287442,96.39,336,18.3303
48.88913499,96.39,359,18.9473
48.91539555,96.39,325,18.0278
48.94165612,96.39,339,18.412
48.96791668,96.39,363,19.0526
48.99417725,96.39,356,18.868
49.02043781,96.39,307,17.5214
49.04669838,96.39,354,18.8149
49.07295895,96.39,374,19.3391
49.09921951,96.39,364,19.0788
49.12548008,96.39,345,18.5742
49.15174064,96.39,337,18.3576
49.17800121,96.39,316,17.7764
49.20426177,96.39,325,18.0278
49.23052234,96.39,301,17.3494
49.2567829,96.39,298,17.2627
49.28304347,96.39,277,16.6433
49.30930403,96.39,306,17.4929
49.3355646,96.39,325,18.0278
49.36182516,96.39,290,17.0294
49.38808573,96.39,276,16.6132
49.4143463,96.39,286,16.9115
49.44060686,96.39,298,17.2627
49.46686743,96.39,285,16.8819
49.49312799,96.39,292,17.088
49.51938856,96.39,286,16.9115
49.54564912,96.39,278,16.6733
49.57190969,96.39,274,16.5529
49.59817025,96.39,264,16.2481
49.62443082,96.39,272,16.4924
49.65069138,96.39,267,16.3401
49.67695195,96.39,261,16.1555
49.70321251,96.39,232,15.2315
49.72947308,96.39,248,15.748
49.75573364,96.39,303,17.4069
49.78199421,96.39,291,17.0587
49.80825478,96.39,289,17
49.83451534,96.39,239,15.4596
49.86077591,96.39,287,16.9411
49.88703647,96.39,266,16.3095
49.91329704,96.39,301,17.3494
49.9395576,96.39,290,17.0294
49.96581817,96.39,289,17
49.99207873,96.39,255,15.9687
50.0183393,96.39,313,17.6918
50.04459986,96.39,269,16.4012
50.07086043,96.39,296,17.2047
50.09712099,96.39,315,17.7482
50.12338156,96.39,323,17.9722
50.14964213,96.39,280,16.7332
50.17590269,96.39,281,16.7631
50.20216326,96.39,287,16.9411
50.22842382,96.39,275,16.5831
50.25468439,96.39,277,16.6433
50.28094495,96.39,276,16.6132
50.30720552,96.39,282,16.7929
50.33346608,96.39,266,16.3095
50.35972665,96.39,276,16.6132
50.38598721,96.39,264,16.2481
50.41224778,96.39,264,16.2481
50.43850834,96.39,272,16.4924
50.46476891,96.39,275,16.5831
50.49102947,96.39,259,16.0935
50.51729004,96.39,293,17.1172
50.54355061,96.39,276,16.6132
50.56981117,96.39,253,15.906
50.59607174,96.39,263,16.2173
50.6223323,96.39,275,16.5831
50.64859287,96.39,252,15.8745
50.67485343,96.39,242,15.5563
50.701114,96.39,247,15.7162
50.72737456,96.39,240,15.4919
50.75363513,96.39,262,16.1864
50.77989569,96.39,307,17.5214
50.80615626,96.39,266,16.3095
50.83241682,96.39,259,16.0935
50.85867739,96.39,256,16
50.88493796,96.39,266,16.3095
50.91119852,96.39,238,15.4272
50.93745909,96.39,266,16.3095
50.96371965,96.39,254,15.9374
50.98998022,96.39,270,16.4317
51.01624078,96.39,254,15.9374
51.04250135,96.39,255,15.9687
51.06876191,96.39,283,16.8226
51.09502248,96.39,256,16
51.12128304,96.39,267,16.3401
51.14754361,96.39,267,16.3401
51.17380417,96.39,242,15.5563
51.20006474,96.39,231,15.1987
51.2263253,96.39,252,15.8745
51.25258587,96.39,239,15.4596
51.27884644,96.39,265,16.2788
51.305107,96.39,258,16.0624
51.33136757,96.39,273,16.5227
51.35762813,96.39,254,15.9374
51.3838887,96.39,247,15.7162
51.41014926,96.39,249,15.7797
51.43640983,96.39,246,15.6844
51.46267039,96.39,264,16.2481
51.48893096,96.39,258,16.0624
51.51519152,96.39,268,16.3707
51.54145209,96.39,241,15.5242
51.56771265,96.39,243,15.5885
51.59397322,96.39,241,15.5242
51.62023378,96.39,238,15.4272
51.64649435,96.39,262,16.1864
51.67275492,96.39,264,16.2481
51.69901548,96.39,228,15.0997
51.72527605,96.39,250,15.8114
51.75153661,96.39,246,15.6844
51.77779718,96.39,247,15.7162
51.80405774,96.39,237,15.3948
51.83031831,96.39,232,15.2315
51.85657887,96.39,219,14.7986
51.88283944,96.39,246,15.6844
51.9091,96.39,251,15.843
51.93536057,96.39,257,16.0312
51.96162113,96.39,243,15.5885
51.9878817,96.39,227,15.0665
52.01414227,96.39,258,16.0624
52.04040283,96.39,260,16.1245
52.0666634,96.39,247,15.7162
52.09292396,96.39,256,16
52.11918453,96.39,254,15.9374
52.14544509,96.39,285,16.8819
52.17170566,96.39,278,16.6733
52.19796622,96.39,269,16.4012
52.22422679,96.39,265,16.2788
52.25048735,96.39,294,17.1464
52.27674792,96.39,303,17.4069
52.30300848,96.39,278,16.6733
52.32926905,96.39,346,18.6011
52.35552961,96.39,370,19.2354
52.38179018,96.39,424,20.5913
52.40805075,96.39,471,21.7025
52.43431131,96.39,576,24
52.46057188,96.39,709,26.6271
52.48683244,96.39,796,28.2135
52.51309301,96.39,915,30.249
52.53935357,96.39,895,29.9166
52.56561414,96.39,710,26.6458
52.5918747,96.39,547,23.388
52.61813527,96.39,561,23.6854
52.64439583,96.39,581,24.1039
52.6706564,96.39,527,22.9565
52.69691696,96.39,479,21.8861
52.72317753,96.39,361,19
52.7494381,96.39,281,16.7631
52.77569866,96.39,282,16.7929
52.80195923,96.39,259,16.0935
52.82821979,96.39,277,16.6433
52.85448036,96.39,258,16.0624
52.88074092,96.39,239,15.4596
52.90700149,96.39,259,16.0935
52.93326205,96.39,260,16.1245
52.95952262,96.39,264,16.2481
52.98578318,96.39,236,15.3623
53.01204375,96.39,255,15.9687
53.03830431,96.39,243,15.5885
53.06456488,96.39,257,16.0312
53.09082544,96.39,210,14.4914
53.11708601,96.39,236,15.3623
53.14334658,96.39,231,15.1987
53.16960714,96.39,249,15.7797
53.19586771,96.39,232,15.2315
53.22212827,96.39,232,15.2315
53.24838884,96.39,231,15.1987
53.2746494,96.39,259,16.0935
53.30090997,96.39,264,16.2481
53.32717053,96.39,253,15.906
53.3534311,96.39,275,16.5831
53.37969166,96.39,270,16.4317
53.40595223,96.39,284,16.8523
53.43221279,96.39,245,15.6525
53.45847336,96.39,242,15.5563
53.48473393,96.39,255,15.9687
53.51099449,96.39,254,15.9374
53.53725506,96.39,259,16.0935
53.56351562,96.39,248,15.748
53.58977619,96.39,228,15.0997
53.61603675,96.39,266,16.3095
53.64229732,96.39,252,15.8745
53.66855788,96.39,240,15.4919
53.69481845,96.39,222,14.8997
53.72107901,96.39,239,15.4596
53.74733958,96.39,241,15.5242
53.77360014,96.39,238,15.4272
53.79986071,96.39,269,16.4012
53.82612127,96.39,240,15.4919
53.85238184,96.39,268,16.3707
53.87864241,96.39,259,16.0935
53.90490297,96.39,247,15.7162
53.93116354,96.39,226,15.0333
53.9574241,96.39,236,15.3623
53.98368467,96.39,245,15.6525
54.00994523,96.39,257,16.0312
54.0362058,96.39,242,15.5563
54.06246636,96.39,245,15.6525
54.08872693,96.39,210,14.4914
54.11498749,96.39,252,15.8745
54.14124806,96.39,253,15.906
54.16750862,96.39,222,14.8997
54.19376919,96.39,228,15.0997
54.22002976,96.39,241,15.5242
54.24629032,96.39,204,14.2829
54.27255089,96.39,252,15.8745
54.29881145,96.39,222,14.8997
54.32507202,96.39,238,15.4272
54.35133258,96.39,258,16.0624
54.37759315,96.39,232,15.2315
54.40385371,96.39,235,15.3297
54.43011428,96.39,254,15.9374
54.45637484,96.39,247,15.7162
54.48263541,96.39,257,16.0312
54.50889597,96.39,249,15.7797
54.53515654,96.39,242,15.5563
54.5614171,96.39,209,14.4568
54.58767767,96.39,251,15.843
54.61393824,96.39,214,14.6287
54.6401988,96.39,271,16.4621
54.66645937,96.39,213,14.5945
54.69271993,96.39,233,15.2643
54.7189805,96.39,256,16
54.74524106,96.39,261,16.1555
54.77150163,96.39,246,15.6844
54.79776219,96.39,232,15.2315
54.82402276,96.39,233,15.2643
54.85028332,96.39,233,15.2643
54.87654389,96.39,225,15
54.90280445,96.39,248,15.748
54.92906502,96.39,243,15.5885
54.95532559,96.39,262,16.1864
54.98158615,96.39,249,15.7797
55.00784672,96.39,236,15.3623
55.03410728,96.39,244,15.6205
55.06036785,96.39,221,14.8661
55.08662841,96.39,226,15.0333
55.11288898,96.39,227,15.0665
55.13914954,96.39,221,14.8661
55.16541011,96.39,245,15.6525
55.19167067,96.39,204,14.2829
55.21793124,96.39,225,15
55.2441918,96.39,244,15.6205
55.27045237,96.39,229,15.1327
55.29671293,96.39,229,15.1327
55.3229735,96.39,232,15.2315
55.34923407,96.39,262,16.1864
55.37549463,96.39,211,14.5258
55.4017552,96.39,265,16.2788
55.42801576,96.39,207,14.3875
55.45427633,96.39,232,15.2315
55.48053689,96.39,244,15.6205
55.50679746,96.39,224,14.9666
55.53305802,96.39,230,15.1658
55.55931859,96.39,216,14.6969
55.58557915,96.39,212,14.5602
55.61183972,96.39,218,14.7648
55.63810028,96.39,254,15.9374
55.66436085,96.39,248,15.748
55.69062141,96.39,201,14.1774
55.71688198,96.39,215,14.6629
55.74314255,96.39,237,15.3948
55.76940311,96.39,239,15.4596
55.79566368,96.39,235,15.3297
55.82192424,96.39,218,14.7648
55.84818481,96.39,199,14.1067
55.87444537,96.39,204,14.2829
55.90070594,96.39,191,13.8203
55.9269665,96.39,174,13.1909
55.95322707,96.39,219,14.7986
55.97948763,96.39,239,15.4596
56.0057482,96.39,206,14.3527
56.03200876,96.39,211,14.5258
56.05826933,96.39,227,15.0665
56.0845299,96.39,208,14.4222
56.11079046,96.39,199,14.1067
56.13705103,96.39,227,15.0665
56.16331159,96.39,246,15.6844
56.18957216,96.39,211,14.5258
56.21583272,96.39,212,14.5602
56.24209329,96.39,229,15.1327
56.26835385,96.39,248,15.748
56.29461442,96.39,239,15.4596
56.32087498,96.39,256,16
56.34713555,96.39,252,15.8745
56.37339611,96.39,238,15.4272
56.39965668,96.39,218,14.7648
56.42591724,96.39,229,15.1327
56.45217781,96.39,219,14.7986
56.47843838,96.39,249,15.7797
56.50469894,96.39,223,14.9332
56.53095951,96.39,225,15
56.55722007,96.39,234,15.2971
56.58348064,96.39,262,16.1864
56.6097412,96.39,207,14.3875
56.63600177,96.39,228,15.0997
56.66226233,96.39,223,14.9332
56.6885229,96.39,236,15.3623
56.71478346,96.39,229,15.1327
56.74104403,96.39,229,15.1327
56.76730459,96.39,238,15.4272
56.79356516,96.39,238,15.4272
56.81982573,96.39,242,15.5563
56.84608629,96.39,224,14.9666
56.87234686,96.39,220,14.8324
56.89860742,96.39,251,15.843
56.92486799,96.39,246,15.6844
56.95112855,96.39,240,15.4919
56.97738912,96.39,263,16.2173
57.00364968,96.39,261,16.1555
57.02991025,96.39,210,14.4914
57.05617081,96.39,224,14.9666
57.08243138,96.39,256,16
57.10869194,96.39,251,15.843
57.13495251,96.39,267,16.3401
57.16121307,96.39,274,16.5529
57.18747364,96.39,297,17.2337
57.21373421,96.39,328,18.1108
57.23999477,96.39,346,18.6011
57.26625534,96.39,363,19.0526
57.2925159,96.39,407,20.1742
57.31877647,96.39,512,22.6274
57.34503703,96.39,611,24.7184
57.3712976,96.39,765,27.6586
57.39755816,96.39,934,30.5614
57.42381873,96.39,1166,34.1467
57.45007929,96.39,1356,36.8239
57.47633986,96.39,1520,38.9872
57.50260042,96.39,1191,34.5109
57.52886099,96.39,881,29.6816
57.55512156,96.39,799,28.2666
57.58138212,96.39,744,27.2764
57.60764269,96.39,841,29
57.63390325,96.39,821,28.6531
57.66016382,96.39,656,25.6125
57.68642438,96.39,441,21
57.71268495,96.39,325,18.0278
57.73894551,96.39,316,17.7764
57.76520608,96.39,252,15.8745
57.79146664,96.39,272,16.4924
57.81772721,96.39,272,16.4924
57.84398777,96.39,226,15.0333
57.87024834,96.39,225,15
57.8965089,96.39,251,15.843
57.92276947,96.39,227,15.0665
57.94903004,96.39,251,15.843
57.9752906,96.39,216,14.6969
58.00155117,96.39,240,15.4919
58.02781173,96.39,225,15
58.0540723,96.39,240,15.4919
58.08033286,96.39,240,15.4919
58.10659343,96.39,260,16.1245
58.13285399,96.39,239,15.4596
58.15911456,96.39,206,14.3527
58.18537512,96.39,228,15.0997
58.21163569,96.39,260,16.1245
58.23789625,96.39,191,13.8203
58.26415682,96.39,220,14.8324
58.29041739,96.39,232,15.2315
58.31667795,96.39,197,14.0357
58.34293852,96.39,221,14.8661
58.36919908,96.39,223,14.9332
58.39545965,96.39,202,14.2127
58.42172021,96.39,207,14.3875
58.44798078,96.39,214,14.6287
58.47424134,96.39,231,15.1987
58.50050191,96.39,250,15.8114
58.52676247,96.39,210,14.4914
58.55302304,96.39,246,15.6844
58.5792836,96.39,206,14.3527
58.60554417,96.39,203,14.2478
58.63180473,96.39,223,14.9332
58.6580653,96.39,235,15.3297
58.68432587,96.39,204,14.2829
58.71058643,96.39,242,15.5563
58.736847,96.39,215,14.6629
58.76310756,96.39,224,14.9666
58.78936813,96.39,225,15
58.81562869,96.39,230,15.1658
58.84188926,96.39,222,14.8997
58.86814982,96.39,193,13.8924
58.89441039,96.39,214,14.6287
58.92067095,96.39,226,15.0333
58.94693152,96.39,221,14.8661
58.97319208,96.39,254,15.9374
58.99945265,96.39,259,16.0935
59.02571321,96.39,224,14.9666
59.05197378,96.39,245,15.6525
59.07823435,96.39,223,14.9332
59.10449491,96.39,227,15.0665
59.13075548,96.39,224,14.9666
59.15701604,96.39,207,14.3875
59.18327661,96.39,223,14.9332
59.20953717,96.39,246,15.6844
59.23579774,96.39,228,15.0997
59.2620583,96.39,220,14.8324
59.28831887,96.39,234,15.2971
59.31457943,96.39,221,14.8661
59.34084,96.39,259,16.0935
59.36710056,96.39,209,14.4568
59.39336113,96.39,231,15.1987
59.4196217,96.39,216,14.6969
59.44588226,96.39,212,14.5602
59.47214283,96.39,218,14.7648
59.49840339,96.39,211,14.5258
59.52466396,96.39,249,15.7797
59.55092452,96.39,219,14.7986
59.57718509,96.39,216,14.6969
59.60344565,96.39,237,15.3948
59.62970622,96.39,231,15.1987
59.65596678,96.39,254,15.9374
59.68222735,96.39,247,15.7162
59.70848791,96.39,250,15.8114
59.73474848,96.39,251,15.843
59.76100904,96.39,237,15.3948
59.78726961,96.39,233,15.2643
59.81353018,96.39,236,15.3623
59.83979074,96.39,232,15.2315
59.86605131,96.39,260,16.1245
59.89231187,96.39,310,17.6068
59.91857244,96.39,258,16.0624
59.944833,96.39,248,15.748
59.97109357,96.39,229,15.1327
59.99735413,96.39,260,16.1245
60.0236147,96.39,227,15.0665
60.04987526,96.39,233,15.2643
60.07613583,96.39,273,16.5227
60.10239639,96.39,286,16.9115
60.12865696,96.39,216,14.6969
60.15491753,96.39,229,15.1327
60.18117809,96.39,219,14.7986
60.20743866,96.39,260,16.1245
60.23369922,96.39,280,16.7332
60.25995979,96.39,251,15.843
60.28622035,96.39,256,16
60.31248092,96.39,254,15.9374
60.33874148,96.39,256,16
60.36500205,96.39,256,16
60.39126261,96.39,296,17.2047
60.41752318,96.39,280,16.7332
60.44378374,96.39,273,16.5227
60.47004431,96.39,233,15.2643
60.49630487,96.39,286,16.9115
60.52256544,96.39,267,16.3401
60.54882601,96.39,290,17.0294
60.57508657,96.39,282,16.7929
60.60134714,96.39,319,17.8606
60.6276077,96.39,289,17
60.65386827,96.39,302,17.3781
60.68012883,96.39,273,16.5227
60.7063894,96.39,324,18
60.73264996,96.39,317,17.8045
60.75891053,96.39,312,17.6635
60.78517109,96.39,329,18.1384
60.81143166,96.39,310,17.6068
60.83769222,96.39,332,18.2209
60.86395279,96.39,305,17.4642
60.89021336,96.39,351,18.735
60.91647392,96.39,361,19
60.94273449,96.39,358,18.9209
60.96899505,96.39,370,19.2354
60.99525562,96.39,380,19.4936
61.02151618,96.39,387,19.6723
61.04777675,96.39,417,20.4206
61.07403731,96.39,388,19.6977
61.10029788,96.39,404,20.0998
61.12655844,96.39,403,20.0749
61.15281901,96.39,407,20.1742
61.17907957,96.39,432,20.7846
61.20534014,96.39,436,20.8806
61.2316007,96.39,386,19.6469
61.25786127,96.39,425,20.6155
61.28412184,96.39,489,22.1133
61.3103824,96.39,368,19.1833
61.33664297,96.39,410,20.2485
61.36290353,96.39,367,19.1572
61.3891641,96.39,351,18.735
61.41542466,96.39,370,19.2354
61.44168523,96.39,382,19.5448
61.46794579,96.39,352,18.7617
61.49420636,96.39,363,19.0526
61.52046692,96.39,345,18.5742
61.54672749,96.39,352,18.7617
61.57298805,96.39,356,18.868
61.59924862,96.39,310,17.6068
61.62550919,96.39,340,18.4391
61.65176975,96.39,291,17.0587
61.67803032,96.39,346,18.6011
61.70429088,96.39,303,17.4069
61.73055145,96.39,314,17.72
61.75681201,96.39,305,17.4642
61.78307258,96.39,297,17.2337
61.80933314,96.39,301,17.3494
61.83559371,96.39,324,18
61.86185427,96.39,302,17.3781
61.88811484,96.39,308,17.5499
61.9143754,96.39,303,17.4069
61.94063597,96.39,312,17.6635
61.96689653,96.39,286,16.9115
61.9931571,96.39,272,16.4924
62.01941767,96.39,340,18.4391
62.04567823,96.39,288,16.9706
62.0719388,96.39,283,16.8226
62.09819936,96.39,277,16.6433
62.12445993,96.39,279,16.7033
62.15072049,96.39,295,17.1756
62.17698106,96.39,324,18
62.20324162,96.39,281,16.7631
62.22950219,96.39,291,17.0587
62.25576275,96.39,308,17.5499
62.28202332,96.39,287,16.9411
62.30828388,96.39,281,16.7631
62.33454445,96.39,259,16.0935
62.36080502,96.39,285,16.8819
62.38706558,96.39,276,16.6132
62.41332615,96.39,270,16.4317
62.43958671,96.39,269,16.4012
62.46584728,96.39,237,15.3948
62.49210784,96.39,245,15.6525
62.51836841,96.39,255,15.9687
62.54462897,96.39,268,16.3707
62.57088954,96.39,252,15.8745
62.5971501,96.39,259,16.0935
62.62341067,96.39,226,15.0333
62.64967123,96.39,223,14.9332
62.6759318,96.39,217,14.7309
62.70219236,96.39,255,15.9687
62.72845293,96.39,280,16.7332
62.7547135,96.39,222,14.8997
62.78097406,96.39,269,16.4012
62.80723463,96.39,242,15.5563
62.83349519,96.39,204,14.2829
62.85975576,96.39,229,15.1327
62.88601632,96.39,270,16.4317
62.91227689,96.39,234,15.2971
62.93853745,96.39,216,14.6969
62.96479802,96.39,217,14.7309
62.99105858,96.39,233,15.2643
63.01731915,96.39,239,15.4596
63.04357971,96.39,230,15.1658
63.06984028,96.39,240,15.4919
63.09610084,96.39,231,15.1987
63.12236141,96.39,245,15.6525
63.14862198,96.39,223,14.9332
63.17488254,96.39,246,15.6844
63.20114311,96.39,235,15.3297
63.22740367,96.39,244,15.6205
63.25366424,96.39,229,15.1327
63.2799248,96.39,211,14.5258
63.30618537,96.39,195,13.9642
63.33244593,96.39,210,14.4914
63.3587065,96.39,216,14.6969
63.38496706,96.39,215,14.6629
63.41122763,96.39,231,15.1987
63.43748819,96.39,211,14.5258
63.46374876,96.39,204,14.2829
63.49000933,96.39,219,14.7986
63.51626989,96.39,207,14.3875
63.54253046,96.39,225,15
63.56879102,96.39,204,14.2829
63.59505159,96.39,206,14.3527
63.62131215,96.39,211,14.5258
63.64757272,96.39,251,15.843
63.67383328,96.39,206,14.3527
63.70009385,96.39,229,15.1327
63.72635441,96.39,205,14.3178
63.75261498,96.39,212,14.5602
63.77887554,96.39,204,14.2829
63.80513611,96.39,209,14.4568
63.83139667,96.39,189,13.7477
63.85765724,96.39,216,14.6969
63.88391781,96.39,206,14.3527
63.91017837,96.39,189,13.7477
63.93643894,96.39,206,14.3527
63.9626995,96.39,203,14.2478
63.98896007,96.39,224,14.9666
64.01522063,96.39,215,14.6629
64.0414812,96.39,213,14.5945
64.06774176,96.39,201,14.1774
64.09400233,96.39,238,15.4272
64.12026289,96.39,199,14.1067
64.14652346,96.39,214,14.6287
64.17278402,96.39,209,14.4568
64.19904459,96.39,249,15.7797
64.22530516,96.39,199,14.1067
64.25156572,96.39,250,15.8114
64.27782629,96.39,213,14.5945
64.30408685,96.39,223,14.9332
64.33034742,96.39,167,12.9228
64.35660798,96.39,200,14.1421
64.38286855,96.39,191,13.8203
64.40912911,96.39,204,14.2829
64.43538968,96.39,206,14.3527
64.46165024,96.39,207,14.3875
64.48791081,96.39,204,14.2829
64.51417137,96.39,188,13.7113
64.54043194,96.39,208,14.4222
64.5666925,96.39,201,14.1774
64.59295307,96.39,208,14.4222
64.61921364,96.39,209,14.4568
64.6454742,96.39,198,14.0712
64.67173477,96.39,202,14.2127
64.69799533,96.39,187,13.6748
64.7242559,96.39,199,14.1067
64.75051646,96.39,211,14.5258
64.77677703,96.39,179,13.3791
64.80303759,96.39,191,13.8203
64.82929816,96.39,219,14.7986
64.85555872,96.39,196,14
64.88181929,96.39,200,14.1421
64.90807985,96.39,189,13.7477
64.93434042,96.39,205,14.3178
64.96060099,96.39,182,13.4907
64.98686155,96.39,206,14.3527
